Data from test_V78500241_249.txt Node
Date: Fri Mar 25 15:11:35 CST 2022
User: usil
Spectrometer: V785-0024
Trigger mode: 0
Integration Time (sec): 4.000000E-1
Scans to average: 1
Nonlinearity correction enabled: false
Boxcar width: 0
Storing dark spectrum: false
XAxis mode: Wavelengths
Number of Pixels in Spectrum: 1024
>>>>>Begin Spectral Data<<<<<
801.071	28128
801.214	28048
801.356	27960
801.499	27918
801.641	27778
801.783	27869
801.926	27899
802.068	27998
802.211	27739
802.353	27610
802.496	27412
802.638	27557
802.78	27496
802.923	27424
803.065	27332
803.208	27462
803.35	27439
803.492	27698
803.635	27648
803.777	27492
803.919	27671
804.061	27835
804.204	27774
804.346	27439
804.488	27481
804.63	27625
804.773	27393
804.915	27580
805.057	27633
805.199	27641
805.341	27663
805.483	27580
805.626	27698
805.768	27580
805.91	27603
806.052	27660
806.194	27709
806.336	27774
806.478	27759
806.62	27743
806.762	27781
806.904	27979
807.046	28124
807.188	28010
807.33	28116
807.472	28147
807.614	28017
807.756	27991
807.898	28017
808.04	27876
808.182	27968
808.324	27937
808.465	27895
808.607	28013
808.749	28078
808.891	28284
809.033	28371
809.174	28432
809.316	28219
809.458	28295
809.6	28249
809.741	28314
809.883	28481
810.025	28580
810.166	28455
810.308	28459
810.45	28504
810.591	28299
810.733	28287
810.875	28280
811.016	28188
811.158	28150
811.299	28188
811.441	28386
811.582	28306
811.724	28192
811.865	28215
812.007	28207
812.148	28322
812.29	28226
812.431	28219
812.573	28554
812.714	28755
812.855	28664
812.997	28820
813.138	29105
813.279	28820
813.421	28729
813.562	28839
813.703	28500
813.845	28436
813.986	28173
814.127	28067
814.268	27850
814.41	27873
814.551	27949
814.692	27941
814.833	27724
814.974	27842
815.115	27964
815.256	27778
815.397	27778
815.539	27743
815.68	27641
815.821	27618
815.962	27759
816.103	27671
816.244	27447
816.385	27405
816.526	27526
816.666	27279
816.807	27138
816.948	27169
817.089	27272
817.23	27085
817.371	26960
817.512	27180
817.653	27009
817.793	27074
817.934	27055
818.075	27108
818.216	27123
818.356	27127
818.497	26937
818.638	26739
818.778	26724
818.919	26648
819.06	26906
819.2	26914
819.341	27032
819.481	27089
819.622	27233
819.762	27393
819.903	27287
820.043	27192
820.184	27100
820.324	27188
820.465	27279
820.605	27230
820.746	27055
820.886	27047
821.026	27173
821.167	27062
821.307	27180
821.447	26994
821.588	26986
821.728	26834
821.868	26609
822.008	26537
822.149	26431
822.289	26609
822.429	26313
822.569	26168
822.709	26267
822.849	26020
822.99	25921
823.13	25997
823.27	25951
823.41	25811
823.55	25647
823.69	25776
823.83	25753
823.97	25681
824.11	25613
824.25	25578
824.389	25662
824.529	25624
824.669	25556
824.809	25818
824.949	25738
825.089	25715
825.228	25639
825.368	25411
825.508	25449
825.648	25434
825.787	25537
825.927	25521
826.067	25514
826.206	25529
826.346	25491
826.485	25468
826.625	25293
826.765	25518
826.904	25457
827.044	25217
827.183	25164
827.323	25057
827.462	25213
827.601	25099
827.741	25069
827.88	25061
828.02	24992
828.159	25019
828.298	25084
828.437	25240
828.577	25038
828.716	25274
828.855	25107
828.994	24856
829.134	24844
829.273	24798
829.412	24905
829.551	24707
829.69	24661
829.829	24859
829.968	24886
830.107	24905
830.246	24783
830.385	24772
830.524	24570
830.663	24551
830.802	24429
830.941	24342
831.08	24319
831.219	24540
831.357	24437
831.496	24608
831.635	24315
831.774	24296
831.913	24235
832.051	24258
832.19	24163
832.329	24182
832.467	24133
832.606	23954
832.744	24057
832.883	24026
833.022	24098
833.16	24049
833.299	24041
833.437	23984
833.576	24125
833.714	24144
833.852	24106
833.991	24079
834.129	24129
834.267	24117
834.406	24155
834.544	24041
834.682	24125
834.821	24041
834.959	24152
835.097	23893
835.235	24144
835.373	24007
835.511	24015
835.65	23893
835.788	23939
835.926	23897
836.064	23714
836.202	23729
836.34	23950
836.478	24038
836.615	23973
836.753	23904
836.891	23973
837.029	23969
837.167	23832
837.305	23745
837.443	23783
837.58	23794
837.718	23779
837.856	23821
837.993	23695
838.131	23714
838.269	23608
838.406	23623
838.544	23619
838.681	23292
838.819	23349
838.956	23212
839.094	23193
839.231	23200
839.369	23315
839.506	23676
839.643	23482
839.781	23223
839.918	23162
840.055	23155
840.193	23056
840.33	23159
840.467	23197
840.604	23006
840.742	23410
840.879	23022
841.016	23090
841.153	22980
841.29	23185
841.427	23048
841.564	23056
841.701	23132
841.838	23044
841.975	23010
842.112	23014
842.249	22858
842.385	22710
842.522	23056
842.659	22835
842.796	22904
842.933	22866
843.069	22858
843.206	22869
843.343	22915
843.479	22854
843.616	22820
843.752	22607
843.889	22565
844.025	22748
844.162	22645
844.298	22611
844.435	22615
844.571	22599
844.708	22687
844.844	22862
844.98	22733
845.117	22653
845.253	22637
845.389	22474
845.525	22577
845.661	22287
845.798	22322
845.934	22440
846.07	22322
846.206	22325
846.342	22303
846.478	22261
846.614	22112
846.75	21979
846.886	22006
847.022	22029
847.158	22188
847.294	22093
847.429	22128
847.565	22017
847.701	22246
847.837	21713
847.972	21736
848.108	21949
848.244	21797
848.379	21789
848.515	21583
848.65	21603
848.786	21682
848.921	21656
849.057	21660
849.192	21778
849.328	21644
849.463	21705
849.598	21606
849.734	21492
849.869	21454
850.004	21340
850.14	21450
850.275	21378
850.41	21252
850.545	21321
850.68	21393
850.815	21310
850.95	21275
851.085	21473
851.22	21580
851.355	21374
851.49	21348
851.625	21370
851.76	21272
851.895	21188
852.03	21291
852.165	21340
852.299	21359
852.434	21428
852.569	21363
852.703	21420
852.838	21302
852.973	21340
853.107	21363
853.242	21298
853.376	21176
853.511	21032
853.645	21131
853.78	21237
853.914	21264
854.048	21081
854.183	21195
854.317	21203
854.451	21245
854.585	21184
854.72	21169
854.854	21233
854.988	21081
855.122	21119
855.256	20933
855.39	21157
855.524	21233
855.658	21100
855.792	21184
855.926	21096
856.06	21218
856.194	21283
856.327	21222
856.461	21188
856.595	21165
856.729	21119
856.862	21176
856.996	21230
857.13	21131
857.263	21287
857.397	21119
857.53	21096
857.664	21226
857.797	21241
857.931	21275
858.064	21317
858.197	21222
858.331	21165
858.464	21017
858.597	21024
858.731	21096
858.864	21203
858.997	21070
859.13	20979
859.263	21241
859.396	21180
859.529	21173
859.662	21093
859.795	21150
859.928	21161
860.061	21321
860.194	21199
860.327	21154
860.46	21211
860.592	21268
860.725	21241
860.858	21199
860.99	21085
861.123	20998
861.256	20963
861.388	21131
861.521	21800
861.653	21123
861.786	20861
861.918	20834
862.05	21055
862.183	21066
862.315	21077
862.447	21180
862.58	21085
862.712	20880
862.844	20876
862.976	20918
863.108	20979
863.24	21272
863.372	20819
863.504	20754
863.636	20834
863.768	20910
863.9	20861
864.032	20727
864.164	20765
864.296	20792
864.428	20967
864.559	20826
864.691	20864
864.823	20762
864.954	20785
865.086	20861
865.217	20765
865.349	20621
865.48	20804
865.612	20640
865.743	20773
865.875	20739
866.006	20678
866.137	20648
866.269	20815
866.4	20773
866.531	20667
866.662	20716
866.793	20648
866.924	20739
867.055	20697
867.186	20701
867.317	20632
867.448	20556
867.579	20594
867.71	20526
867.841	20583
867.972	20697
868.103	20549
868.233	20678
868.364	20659
868.495	20849
868.625	20876
868.756	21017
868.886	20838
869.017	20845
869.147	20895
869.278	21036
869.408	20883
869.539	20811
869.669	20990
869.799	20883
869.929	21001
870.06	20956
870.19	21203
870.32	21131
870.45	21142
870.58	21302
870.71	21272
870.84	21431
870.97	21298
871.1	21237
871.23	21519
871.36	21519
871.489	21466
871.619	21595
871.749	21405
871.879	21416
872.008	21671
872.138	21393
872.267	21492
872.397	21408
872.526	21310
872.656	21321
872.785	21321
872.915	21542
873.044	21606
873.173	21526
873.303	21553
873.432	21580
873.561	21583
873.69	21572
873.819	21481
873.948	21549
874.077	21492
874.206	21477
874.335	21485
874.464	21572
874.593	21766
874.722	21720
874.851	21819
874.979	21686
875.108	21766
875.237	21785
875.365	21652
875.494	21759
875.623	21743
875.751	21694
875.88	21854
876.008	21926
876.136	21960
876.265	22223
876.393	22337
876.521	22253
876.65	22181
876.778	22112
876.906	22116
877.034	22070
877.162	22287
877.29	22040
877.418	22162
877.546	22112
877.674	22124
877.802	22128
877.93	22059
878.058	22029
878.185	22029
878.313	22082
878.441	22158
878.568	21953
878.696	22002
878.824	22322
878.951	22120
879.079	22325
879.206	22432
879.333	22303
879.461	22150
879.588	22188
879.715	22230
879.842	22299
879.97	22086
880.097	21918
880.224	21991
880.351	21998
880.478	21964
880.605	21892
880.732	21865
880.859	22048
880.986	21895
881.112	21899
881.239	21789
881.366	21774
881.493	21587
881.619	21511
881.746	21572
881.872	21507
881.999	21504
882.125	21519
882.252	21580
882.378	21443
882.505	21667
882.631	21325
882.757	21260
882.883	21336
883.01	21180
883.136	21119
883.262	21096
883.388	20994
883.514	21237
883.64	21245
883.766	21138
883.892	20910
884.018	21119
884.143	21154
884.269	21127
884.395	20948
884.52	20849
884.646	20807
884.772	20826
884.897	20735
885.023	20929
885.148	21013
885.274	20929
885.399	20937
885.524	20823
885.65	20944
885.775	20872
885.9	20762
886.025	21013
886.15	20982
886.275	20807
886.4	20735
886.525	20781
886.65	20781
886.775	20830
886.9	21013
887.025	21104
887.149	20861
887.274	20648
887.399	20625
887.523	20571
887.648	20621
887.773	20537
887.897	20678
888.021	20629
888.146	20537
888.27	20712
888.395	20727
888.519	20670
888.643	20636
888.767	20636
888.891	20545
889.015	20408
889.139	20431
889.263	20366
889.387	20492
889.511	20575
889.635	20541
889.759	20358
889.883	20389
890.006	20419
890.13	20412
890.254	20408
890.377	20237
890.501	20218
890.624	20035
890.748	20267
890.871	19982
890.995	19906
891.118	19955
891.241	20001
891.364	19902
891.488	20039
891.611	19883
891.734	19917
891.857	19875
891.98	19909
892.103	20024
892.226	20054
892.349	19928
892.471	19852
892.594	19951
892.717	19860
892.839	19879
892.962	19883
893.085	19989
893.207	19845
893.33	19742
893.452	19970
893.575	20027
893.697	19879
893.819	19959
893.941	20050
894.064	20001
894.186	19860
894.308	19864
894.43	19959
894.552	20065
894.674	20031
894.796	19807
894.918	19837
895.04	19791
895.161	19852
895.283	19864
895.405	19856
895.526	19772
895.648	19974
895.769	19818
895.891	19986
896.012	19913
896.134	19963
896.255	19963
896.376	19822
896.498	19936
896.619	19913
896.74	19928
896.861	19936
896.982	20259
897.103	20328
897.224	20115
897.345	20183
897.466	20035
897.587	20065
897.708	20301
897.828	20187
897.949	19986
898.07	20027
898.19	19970
898.311	20218
898.431	20046
898.552	20054
898.672	20183
898.792	20149
898.913	20134
899.033	19932
899.153	20035
899.273	19826
899.393	19860
899.513	19830
899.633	19928
899.753	19849
899.873	19780
899.993	19811
900.113	19780
900.232	19830
900.352	19818
900.472	19655
900.591	19613
900.711	19575
900.83	19647
900.95	19727
901.069	19609
901.189	19411
901.308	19251
901.427	19282
901.546	19331
901.665	19240
901.784	19198
901.904	19183
902.023	18985
902.141	18779
902.26	18741
902.379	18738
902.498	18673
902.617	18612
902.735	18814
902.854	18620
902.973	18726
903.091	18490
903.21	18403
903.328	18315
903.446	18277
903.565	18095
903.683	18174
903.801	18152
903.919	18129
904.038	18098
904.156	17992
904.274	18087
904.392	18034
904.51	17885
904.627	17912
904.745	18026
904.863	17954
904.981	17802
905.098	17562
905.216	17634
905.334	17699
905.451	17646
905.569	17611
905.686	17615
905.803	17509
905.921	17471
906.038	17520
906.155	17391
906.272	17303
906.389	17341
906.506	17109
906.623	17136
906.74	17197
906.857	17064
906.974	17010
907.091	17265
907.208	17231
907.324	17086
907.441	17025
907.557	17006
907.674	16820
907.79	16843
907.907	16820
908.023	16915
908.139	16919
908.256	16740
908.372	16702
908.488	16729
908.604	16497
908.72	16527
908.836	16626
908.952	16489
909.068	16626
909.184	16694
909.3	16554
909.415	16603
909.531	16542
909.647	16360
909.762	16295
909.878	16249
909.993	16310
910.108	16272
910.224	16253
910.339	16253
910.454	16158
910.57	16093
910.685	15968
910.8	16265
910.915	16188
911.03	16055
911.145	15926
911.259	15838
911.374	15816
911.489	15766
911.604	15838
911.718	15526
911.833	15603
911.947	15462
912.062	15469
912.176	15511
912.291	15625
912.405	15523
912.519	15728
912.633	15724
912.748	15584
912.862	15523
912.976	15408
913.09	15386
913.204	15378
913.318	15488
913.431	15526
913.545	15511
913.659	15405
913.772	15401
913.886	15214
914	15116
914.113	15226
914.226	15336
914.34	15275
914.453	15112
914.566	15252
914.68	15180
914.793	15085
914.906	14975
915.019	14921
915.132	14781
915.245	14842
915.358	14944
915.47	14834
915.583	14811
915.696	14861
915.809	15039
915.921	14956
916.034	14773
916.146	14743
916.259	14804
916.371	14834
916.483	14785
916.595	14720
916.708	14678
916.82	14705
916.932	14640
917.044	14613
917.156	14613
917.268	14488
917.38	14533
917.491	14522
917.603	14503
917.715	14541
917.826	14545
917.938	14423
918.049	14358
918.161	14476
918.272	14621
918.384	14518
918.495	14495
918.606	14290
918.717	14210
918.828	14324
918.939	14309
919.05	14187
919.161	14267
919.272	14046
919.383	14153
919.494	14370
919.604	14530
919.715	14157
919.826	14202
919.936	14161
920.047	14206
920.157	14206
920.267	14438
920.378	14271
920.488	14138
920.598	14309
920.708	14484
920.818	14320
920.928	14202
921.038	14457
921.148	14457
921.258	14195
921.368	14134
921.477	14046
921.587	13959
921.697	13814
921.806	13833
921.916	13860
922.025	13639
922.134	13643
922.244	13483
922.353	13605
922.462	13460
922.571	13483
922.68	13274
922.789	13289
922.898	13232
923.007	13251
923.116	13263
923.224	13217
923.333	13206
923.442	13099
923.55	13065
923.659	13000
923.767	13133
923.876	13023
923.984	13133
924.092	12958
924.201	12947
924.309	12924
924.417	13015
924.525	12894
924.633	12966
924.741	13571
924.849	12677
924.956	12901
925.064	12662
925.172	12688
925.279	12639
925.387	12707
925.494	12608
925.602	12795
925.709	12700
925.816	12540
925.924	12623
926.031	12654
926.138	12589
926.245	12760
926.352	12448
926.459	12658
926.566	12673
926.673	12540
926.779	12528
926.886	12452
926.993	12266
927.099	12315
927.206	12277
927.312	12167
927.419	12311
927.525	12190
927.631	12315
927.737	12106
927.843	12019
927.95	11920
928.056	12015
928.162	12117
928.267	12030
928.373	12635
928.479	12178
928.585	11885
928.69	11931
928.796	12072
928.901	11999
929.007	11790
929.112	11920
929.218	11863
929.323	11843
929.428	11805
929.533	11923
929.638	11821
929.743	11764
929.848	11786
929.953	11722
930.058	11615
930.163	11482
930.267	11486
930.372	11573
930.477	11493
930.581	11638
930.685	11562
930.79	11391
930.894	11391
930.998	11410
931.103	11452
931.207	11071
931.311	11071
931.415	10957
931.519	10763
931.623	10778
