Data from test_V78500241_2960.txt Node
Date: Fri Mar 25 15:30:28 CST 2022
User: usil
Spectrometer: V785-0024
Trigger mode: 0
Integration Time (sec): 4.000000E-1
Scans to average: 1
Nonlinearity correction enabled: false
Boxcar width: 0
Storing dark spectrum: false
XAxis mode: Wavelengths
Number of Pixels in Spectrum: 1024
>>>>>Begin Spectral Data<<<<<
801.071	27081
801.214	27066
801.356	26956
801.499	26762
801.641	26625
801.783	26530
801.926	26705
802.068	26617
802.211	26495
802.353	26499
802.496	26294
802.638	26309
802.78	26218
802.923	26187
803.065	26229
803.208	26206
803.35	26210
803.492	26339
803.635	26533
803.777	26278
803.919	26465
804.061	26739
804.204	26385
804.346	26374
804.488	26336
804.63	26393
804.773	26358
804.915	26347
805.057	26442
805.199	26317
805.341	26461
805.483	26545
805.626	26473
805.768	26484
805.91	26457
806.052	26613
806.194	26298
806.336	26663
806.478	26511
806.62	26313
806.762	26541
806.904	26735
807.046	26899
807.188	26982
807.33	26838
807.472	27123
807.614	26815
807.756	26754
807.898	26735
808.04	26800
808.182	26727
808.324	26739
808.465	26845
808.607	26944
808.749	27009
808.891	27116
809.033	27275
809.174	27302
809.316	27199
809.458	27108
809.6	27001
809.741	27112
809.883	27207
810.025	27496
810.166	27454
810.308	27431
810.45	27199
810.591	27287
810.733	27268
810.875	27165
811.016	27001
811.158	27005
811.299	27192
811.441	27195
811.582	27291
811.724	27173
811.865	27104
812.007	27226
812.148	27055
812.29	27043
812.431	27127
812.573	27272
812.714	27496
812.855	27610
812.997	27637
813.138	27671
813.279	27652
813.421	27511
813.562	27511
813.703	27420
813.845	27116
813.986	27047
814.127	26842
814.268	26811
814.41	26735
814.551	26655
814.692	26800
814.833	26590
814.974	26731
815.115	26667
815.256	26693
815.397	26549
815.539	26663
815.68	26503
815.821	26473
815.962	26495
816.103	26492
816.244	26415
816.385	26252
816.526	26263
816.666	26043
816.807	26035
816.948	26024
817.089	26062
817.23	25940
817.371	25982
817.512	25974
817.653	25871
817.793	25906
817.934	25913
818.075	25928
818.216	26039
818.356	25974
818.497	25795
818.638	25647
818.778	25700
818.919	25689
819.06	25795
819.2	25894
819.341	25955
819.481	25936
819.622	26111
819.762	26180
819.903	26298
820.043	26149
820.184	26058
820.324	26142
820.465	26096
820.605	25989
820.746	26027
820.886	25974
821.026	26092
821.167	26035
821.307	26065
821.447	25940
821.588	25772
821.728	25765
821.868	25529
822.008	25533
822.149	25388
822.289	25339
822.429	25247
822.569	25206
822.709	25225
822.849	25046
822.99	24932
823.13	24894
823.27	24829
823.41	24700
823.55	24665
823.69	24749
823.83	24848
823.97	24696
824.11	24498
824.25	24563
824.389	24616
824.529	24677
824.669	24483
824.809	24692
824.949	24642
825.089	24608
825.228	24582
825.368	24270
825.508	24414
825.648	24426
825.787	24433
825.927	24517
826.067	24384
826.206	24448
826.346	24429
826.485	24403
826.625	24475
826.765	24593
826.904	24380
827.044	24098
827.183	24258
827.323	24121
827.462	24213
827.601	24152
827.741	24159
827.88	24136
828.02	23999
828.159	24095
828.298	24110
828.437	24121
828.577	24011
828.716	24129
828.855	24015
828.994	23916
829.134	23912
829.273	23843
829.412	23665
829.551	23779
829.69	23779
829.829	23973
829.968	23920
830.107	23878
830.246	23859
830.385	23726
830.524	23699
830.663	23638
830.802	23509
830.941	23497
831.08	23444
831.219	23570
831.357	23547
831.496	23581
831.635	23497
831.774	23360
831.913	23299
832.051	23273
832.19	23261
832.329	23269
832.467	23083
832.606	23083
832.744	23132
832.883	23071
833.022	23041
833.16	23041
833.299	23124
833.437	23151
833.576	23216
833.714	23029
833.852	23185
833.991	23132
834.129	23189
834.267	23303
834.406	23056
834.544	23181
834.682	23143
834.821	23170
834.959	23341
835.097	23132
835.235	23337
835.373	23250
835.511	23147
835.65	23166
835.788	23098
835.926	22858
836.064	22721
836.202	22847
836.34	23048
836.478	23185
836.615	22885
836.753	23071
836.891	23014
837.029	22949
837.167	22980
837.305	22892
837.443	22904
837.58	22847
837.718	22965
837.856	22824
837.993	22733
838.131	22759
838.269	22729
838.406	22850
838.544	22698
838.681	22569
838.819	22485
838.956	22398
839.094	22337
839.231	22409
839.369	22554
839.506	22641
839.643	22615
839.781	22356
839.918	22371
840.055	22230
840.193	22253
840.33	22185
840.467	22116
840.604	22356
840.742	22516
840.879	22158
841.016	22101
841.153	22040
841.29	22230
841.427	22181
841.564	22272
841.701	22242
841.838	22207
841.975	22112
842.112	22215
842.249	22173
842.385	22128
842.522	22257
842.659	22078
842.796	22044
842.933	22051
843.069	21956
843.206	21915
843.343	22036
843.479	22055
843.616	21979
843.752	21816
843.889	21743
844.025	21934
844.162	21804
844.298	21766
844.435	21774
844.571	21717
844.708	21793
844.844	21941
844.98	21949
845.117	21781
845.253	21736
845.389	21583
845.525	21755
845.661	21739
845.798	21431
845.934	21500
846.07	21485
846.206	21519
846.342	21724
846.478	21576
846.614	21313
846.75	21249
846.886	21275
847.022	21294
847.158	21283
847.294	21211
847.429	21256
847.565	21192
847.701	21469
847.837	21039
847.972	20838
848.108	20986
848.244	20971
848.379	20998
848.515	20746
848.65	20857
848.786	20975
848.921	20868
849.057	20918
849.192	20883
849.328	20845
849.463	20781
849.598	20788
849.734	20708
849.869	20651
850.004	20659
850.14	20602
850.275	20648
850.41	20484
850.545	20632
850.68	20545
850.815	20697
850.95	20667
851.085	20834
851.22	20648
851.355	20682
851.49	20575
851.625	20560
851.76	20609
851.895	20583
852.03	20579
852.165	20583
852.299	20651
852.434	20613
852.569	20636
852.703	20621
852.838	20556
852.973	20754
853.107	20743
853.242	20564
853.376	20454
853.511	20328
853.645	20495
853.78	20370
853.914	20495
854.048	20503
854.183	20499
854.317	20537
854.451	20686
854.585	20522
854.72	20381
854.854	20457
854.988	20419
855.122	20484
855.256	20244
855.39	20427
855.524	20533
855.658	20427
855.792	20408
855.926	20537
856.06	20438
856.194	20549
856.327	20446
856.461	20381
856.595	20328
856.729	20473
856.862	20484
856.996	20442
857.13	20545
857.263	20507
857.397	20469
857.53	20423
857.664	20446
857.797	20541
857.931	20469
858.064	20427
858.197	20518
858.331	20370
858.464	20400
858.597	20355
858.731	20305
858.864	20415
858.997	20393
859.13	20454
859.263	20377
859.396	20571
859.529	20461
859.662	20347
859.795	20358
859.928	20533
860.061	20663
860.194	20564
860.327	20385
860.46	20419
860.592	20450
860.725	20511
860.858	20541
860.99	20347
861.123	20408
861.256	20404
861.388	20366
861.521	21138
861.653	20305
861.786	20256
861.918	20252
862.05	20377
862.183	20240
862.315	20343
862.447	20419
862.58	20351
862.712	20210
862.844	20107
862.976	20244
863.108	20278
863.24	20571
863.372	20088
863.504	20244
863.636	20119
863.768	20221
863.9	20149
864.032	20122
864.164	20168
864.296	20100
864.428	20278
864.559	20168
864.691	20294
864.823	20172
864.954	20100
865.086	20218
865.217	19986
865.349	19902
865.48	19940
865.612	20084
865.743	20149
865.875	20111
866.006	20039
866.137	20050
866.269	20008
866.4	19986
866.531	19940
866.662	19917
866.793	20016
866.924	19978
867.055	19989
867.186	20046
867.317	20012
867.448	20035
867.579	20039
867.71	19925
867.841	19875
867.972	20005
868.103	19921
868.233	20081
868.364	20024
868.495	20054
868.625	20180
868.756	20324
868.886	20187
869.017	20263
869.147	20324
869.278	20351
869.408	20298
869.539	20206
869.669	20400
869.799	20351
869.929	20355
870.06	20225
870.19	20484
870.32	20419
870.45	20625
870.58	20590
870.71	20842
870.84	20731
870.97	20533
871.1	20708
871.23	20788
871.36	20826
871.489	20819
871.619	20788
871.749	20925
871.879	20796
872.008	20986
872.138	20823
872.267	20796
872.397	20697
872.526	20663
872.656	20678
872.785	20541
872.915	20834
873.044	20937
873.173	20872
873.303	20941
873.432	20887
873.561	20826
873.69	20845
873.819	20788
873.948	20979
874.077	20925
874.206	20788
874.335	20895
874.464	21104
874.593	21135
874.722	20960
874.851	21150
874.979	21127
875.108	21214
875.237	21074
875.365	20845
875.494	21058
875.623	21199
875.751	21047
875.88	21138
876.008	21249
876.136	21268
876.265	21538
876.393	21648
876.521	21580
876.65	21561
876.778	21466
876.906	21572
877.034	21382
877.162	21519
877.29	21405
877.418	21450
877.546	21488
877.674	21443
877.802	21519
877.93	21534
878.058	21435
878.185	21428
878.313	21393
878.441	21466
878.568	21222
878.696	21279
878.824	21473
878.951	21580
879.079	21500
879.206	21747
879.333	21591
879.461	21526
879.588	21557
879.715	21606
879.842	21675
879.97	21507
880.097	21233
880.224	21298
880.351	21302
880.478	21416
880.605	21287
880.732	21351
880.859	21469
880.986	21397
881.112	21237
881.239	21298
881.366	20994
881.493	20990
881.619	20826
881.746	20982
881.872	20975
881.999	20891
882.125	20765
882.252	20838
882.378	20963
882.505	20891
882.631	20788
882.757	20617
882.883	20743
883.01	20587
883.136	20514
883.262	20434
883.388	20317
883.514	20598
883.64	20663
883.766	20522
883.892	20294
884.018	20393
884.143	20503
884.269	20655
884.395	20389
884.52	20214
884.646	20259
884.772	20282
884.897	20084
885.023	20385
885.148	20347
885.274	20324
885.399	20362
885.524	20244
885.65	20286
885.775	20248
885.9	20221
886.025	20366
886.15	20286
886.275	20225
886.4	20012
886.525	20138
886.65	20153
886.775	20138
886.9	20252
887.025	20495
887.149	20248
887.274	20103
887.399	20088
887.523	19883
887.648	20027
887.773	19906
887.897	20065
888.021	20081
888.146	19864
888.27	20069
888.395	20153
888.519	20058
888.643	20031
888.767	19951
888.891	19898
889.015	19841
889.139	19917
889.263	19666
889.387	19963
889.511	20096
889.635	19833
889.759	19784
889.883	19700
890.006	19807
890.13	19955
890.254	19795
890.377	19818
890.501	19563
890.624	19460
890.748	19635
890.871	19476
890.995	19403
891.118	19415
891.241	19407
891.364	19388
891.488	19472
891.611	19217
891.734	19377
891.857	19396
891.98	19430
892.103	19369
892.226	19445
892.349	19343
892.471	19251
892.594	19266
892.717	19217
892.839	19354
892.962	19369
893.085	19403
893.207	19316
893.33	19187
893.452	19327
893.575	19335
893.697	19274
893.819	19544
893.941	19487
894.064	19384
894.186	19236
894.308	19247
894.43	19362
894.552	19403
894.674	19354
894.796	19202
894.918	19327
895.04	19259
895.161	19377
895.283	19415
895.405	19179
895.526	19301
895.648	19266
895.769	19430
895.891	19377
896.012	19430
896.134	19354
896.255	19297
896.376	19312
896.498	19343
896.619	19354
896.74	19388
896.861	19525
896.982	19643
897.103	19727
897.224	19586
897.345	19666
897.466	19544
897.587	19582
897.708	19704
897.828	19655
897.949	19586
898.07	19468
898.19	19533
898.311	19666
898.431	19571
898.552	19609
898.672	19590
898.792	19651
898.913	19563
899.033	19571
899.153	19480
899.273	19388
899.393	19373
899.513	19419
899.633	19373
899.753	19415
899.873	19236
899.993	19320
900.113	19415
900.232	19312
900.352	19293
900.472	19183
900.591	19213
900.711	19129
900.83	19091
900.95	19274
901.069	19255
901.189	18962
901.308	18848
901.427	18749
901.546	18722
901.665	18715
901.784	18711
901.904	18555
902.023	18623
902.141	18403
902.26	18414
902.379	18365
902.498	18315
902.617	18239
902.735	18167
902.854	18296
902.973	18079
903.091	18019
903.21	17931
903.328	18049
903.446	17855
903.565	17824
903.683	17821
903.801	17703
903.919	17752
904.038	17760
904.156	17592
904.274	17657
904.392	17532
904.51	17573
904.627	17440
904.745	17509
904.863	17573
904.981	17379
905.098	17318
905.216	17105
905.334	17185
905.451	17227
905.569	17143
905.686	17242
905.803	17166
905.921	16953
906.038	17105
906.155	16953
906.272	16930
906.389	16976
906.506	16752
906.623	16774
906.74	16698
906.857	16641
906.974	16622
907.091	16759
907.208	16854
907.324	16835
907.441	16668
907.557	16611
907.674	16329
907.79	16497
907.907	16523
908.023	16519
908.139	16466
908.256	16512
908.372	16379
908.488	16379
908.604	16147
908.72	16162
908.836	16185
908.952	16150
909.068	16116
909.184	16322
909.3	16325
909.415	16238
909.531	16207
909.647	15880
909.762	15941
909.878	15823
909.993	15998
910.108	15987
910.224	15850
910.339	15808
910.454	15793
910.57	15720
910.685	15724
910.8	15918
910.915	15816
911.03	15667
911.145	15504
911.259	15538
911.374	15545
911.489	15488
911.604	15405
911.718	15275
911.833	15374
911.947	15287
912.062	15230
912.176	15348
912.291	15306
912.405	15321
912.519	15500
912.633	15439
912.748	15439
912.862	15268
912.976	15142
913.09	15028
913.204	15036
913.318	15070
913.431	15146
913.545	15165
913.659	15161
913.772	15104
913.886	14914
914	14804
914.113	14971
914.226	15024
914.34	14914
914.453	14823
914.566	14883
914.68	14819
914.793	14773
914.906	14507
915.019	14568
915.132	14408
915.245	14514
915.358	14560
915.47	14530
915.583	14438
915.696	14495
915.809	14587
915.921	14632
916.034	14530
916.146	14465
916.259	14476
916.371	14518
916.483	14465
916.595	14465
916.708	14484
916.82	14400
916.932	14366
917.044	14370
917.156	14294
917.268	14210
917.38	14195
917.491	14107
917.603	14252
917.715	14298
917.826	14278
917.938	14191
918.049	14069
918.161	14130
918.272	14244
918.384	14259
918.495	14164
918.606	14001
918.717	13902
918.828	13970
918.939	14039
919.05	13898
919.161	14050
919.272	13731
919.383	13769
919.494	14054
919.604	14103
919.715	14054
919.826	13822
919.936	13913
920.047	14031
920.157	13963
920.267	14153
920.378	13982
920.488	13871
920.598	14149
920.708	14240
920.818	14073
920.928	14084
921.038	14187
921.148	14157
921.258	13928
921.368	13803
921.477	13655
921.587	13647
921.697	13548
921.806	13639
921.916	13537
922.025	13419
922.134	13343
922.244	13293
922.353	13438
922.462	13301
922.571	13145
922.68	13000
922.789	13031
922.898	13004
923.007	12977
923.116	13019
923.224	12989
923.333	12973
923.442	12882
923.55	12726
923.659	12825
923.767	12897
923.876	12856
923.984	12875
924.092	12692
924.201	12730
924.309	12665
924.417	12806
924.525	12642
924.633	12719
924.741	13464
924.849	12490
924.956	12639
925.064	12365
925.172	12388
925.279	12433
925.387	12486
925.494	12475
925.602	12570
925.709	12544
925.816	12391
925.924	12426
926.031	12456
926.138	12403
926.245	12498
926.352	12376
926.459	12445
926.566	12532
926.673	12422
926.779	12148
926.886	12205
926.993	12098
927.099	12087
927.206	11931
927.312	11969
927.419	12060
927.525	12022
927.631	12095
927.737	11916
927.843	11893
927.95	11737
928.056	11847
928.162	11882
928.267	11878
928.373	12498
928.479	11980
928.585	11745
928.69	11741
928.796	11859
928.901	11748
929.007	11688
929.112	11805
929.218	11604
929.323	11615
929.428	11646
929.533	11771
929.638	11520
929.743	11585
929.848	11611
929.953	11592
930.058	11493
930.163	11254
930.267	11337
930.372	11505
930.477	11242
930.581	11611
930.685	11326
930.79	11189
930.894	11265
930.998	11216
931.103	11311
931.207	10987
931.311	10862
931.415	10759
931.519	10577
931.623	10611
