Data from test_V78500241_2361.txt Node
Date: Fri Mar 25 15:26:17 CST 2022
User: usil
Spectrometer: V785-0024
Trigger mode: 0
Integration Time (sec): 4.000000E-1
Scans to average: 1
Nonlinearity correction enabled: false
Boxcar width: 0
Storing dark spectrum: false
XAxis mode: Wavelengths
Number of Pixels in Spectrum: 1024
>>>>>Begin Spectral Data<<<<<
801.071	27351
801.214	27245
801.356	27077
801.499	26880
801.641	26823
801.783	26960
801.926	26845
802.068	26807
802.211	26811
802.353	26670
802.496	26609
802.638	26465
802.78	26537
802.923	26476
803.065	26419
803.208	26511
803.35	26400
803.492	26701
803.635	26746
803.777	26545
803.919	26545
804.061	27081
804.204	26773
804.346	26625
804.488	26625
804.63	26617
804.773	26545
804.915	26686
805.057	26697
805.199	26674
805.341	26682
805.483	26952
805.626	26880
805.768	26724
805.91	26785
806.052	26823
806.194	26823
806.336	26872
806.478	26849
806.62	26750
806.762	26933
806.904	27131
807.046	27355
807.188	27169
807.33	27313
807.472	27249
807.614	27096
807.756	27169
807.898	27028
808.04	26899
808.182	27058
808.324	26986
808.465	27150
808.607	27302
808.749	27450
808.891	27530
809.033	27504
809.174	27515
809.316	27317
809.458	27313
809.6	27332
809.741	27507
809.883	27511
810.025	27568
810.166	27629
810.308	27545
810.45	27564
810.591	27458
810.733	27367
810.875	27294
811.016	27374
811.158	27363
811.299	27477
811.441	27386
811.582	27500
811.724	27439
811.865	27233
812.007	27374
812.148	27195
812.29	27173
812.431	27530
812.573	27724
812.714	27808
812.855	27873
812.997	27941
813.138	27972
813.279	27934
813.421	27945
813.562	27808
813.703	27747
813.845	27538
813.986	27222
814.127	27195
814.268	27066
814.41	27154
814.551	26823
814.692	27161
814.833	26933
814.974	26925
815.115	27017
815.256	26883
815.397	26944
815.539	26861
815.68	26777
815.821	26716
815.962	26883
816.103	26899
816.244	26655
816.385	26682
816.526	26613
816.666	26434
816.807	26381
816.948	26427
817.089	26404
817.23	26248
817.371	26313
817.512	26248
817.653	26172
817.793	26229
817.934	26210
818.075	26282
818.216	26229
818.356	26259
818.497	26039
818.638	26016
818.778	26020
818.919	26195
819.06	26077
819.2	26229
819.341	26183
819.481	26339
819.622	26423
819.762	26511
819.903	26541
820.043	26457
820.184	26336
820.324	26457
820.465	26507
820.605	26377
820.746	26282
820.886	26313
821.026	26286
821.167	26259
821.307	26393
821.447	26313
821.588	26290
821.728	26107
821.868	25932
822.008	25746
822.149	25772
822.289	25750
822.429	25540
822.569	25358
822.709	25411
822.849	25301
822.99	25145
823.13	25221
823.27	25236
823.41	25168
823.55	25034
823.69	25008
823.83	25072
823.97	25099
824.11	24981
824.25	24890
824.389	24947
824.529	24867
824.669	24814
824.809	25019
824.949	24924
825.089	24992
825.228	24928
825.368	24833
825.508	24734
825.648	24734
825.787	24852
825.927	24772
826.067	24787
826.206	24741
826.346	24768
826.485	24859
826.625	24772
826.765	24977
826.904	24821
827.044	24536
827.183	24715
827.323	24433
827.462	24627
827.601	24445
827.741	24456
827.88	24536
828.02	24361
828.159	24426
828.298	24513
828.437	24658
828.577	24479
828.716	24456
828.855	24380
828.994	24289
829.134	24209
829.273	24296
829.412	24174
829.551	24155
829.69	24174
829.829	24220
829.968	24380
830.107	24319
830.246	24102
830.385	24152
830.524	24117
830.663	24068
830.802	23885
830.941	23851
831.08	23817
831.219	23908
831.357	23992
831.496	24022
831.635	23832
831.774	23684
831.913	23779
832.051	23672
832.19	23615
832.329	23531
832.467	23638
832.606	23516
832.744	23501
832.883	23493
833.022	23486
833.16	23471
833.299	23531
833.437	23452
833.576	23516
833.714	23551
833.852	23638
833.991	23661
834.129	23627
834.267	23657
834.406	23634
834.544	23600
834.682	23687
834.821	23490
834.959	23634
835.097	23505
835.235	23535
835.373	23524
835.511	23558
835.65	23345
835.788	23444
835.926	23421
836.064	23155
836.202	23235
836.34	23330
836.478	23520
836.615	23376
836.753	23471
836.891	23463
837.029	23417
837.167	23307
837.305	23376
837.443	23288
837.58	23280
837.718	23360
837.856	23334
837.993	23178
838.131	23296
838.269	23018
838.406	23261
838.544	23060
838.681	22843
838.819	22858
838.956	22683
839.094	22637
839.231	22972
839.369	22896
839.506	23105
839.643	22957
839.781	22759
839.918	22679
840.055	22733
840.193	22664
840.33	22668
840.467	22717
840.604	22793
840.742	22778
840.879	22413
841.016	22634
841.153	22451
841.29	22721
841.427	22611
841.564	22660
841.701	22679
841.838	22588
841.975	22428
842.112	22504
842.249	22538
842.385	22409
842.522	22546
842.659	22428
842.796	22466
842.933	22455
843.069	22322
843.206	22314
843.343	22405
843.479	22386
843.616	22318
843.752	22143
843.889	22204
844.025	22185
844.162	22158
844.298	22226
844.435	22226
844.571	22112
844.708	22135
844.844	22162
844.98	22352
845.117	22291
845.253	22158
845.389	22013
845.525	22166
845.661	22051
845.798	21880
845.934	21960
846.07	21812
846.206	21876
846.342	22055
846.478	21953
846.614	21823
846.75	21595
846.886	21549
847.022	21705
847.158	21759
847.294	21633
847.429	21778
847.565	21534
847.701	21926
847.837	21424
847.972	21397
848.108	21500
848.244	21458
848.379	21264
848.515	21272
848.65	21298
848.786	21370
848.921	21317
849.057	21359
849.192	21249
849.328	21397
849.463	21173
849.598	21024
849.734	21157
849.869	21100
850.004	20956
850.14	20971
850.275	21055
850.41	20899
850.545	20986
850.68	20998
850.815	21108
850.95	21005
851.085	21195
851.22	21135
851.355	21036
851.49	20982
851.625	20819
851.76	20918
851.895	20895
852.03	20868
852.165	20963
852.299	20952
852.434	21085
852.569	21028
852.703	21032
852.838	21077
852.973	21226
853.107	21077
853.242	20952
853.376	20921
853.511	20792
853.645	20758
853.78	20933
853.914	20925
854.048	20842
854.183	20845
854.317	20823
854.451	20941
854.585	21032
854.72	20765
854.854	20971
854.988	20872
855.122	20731
855.256	20651
855.39	20849
855.524	20975
855.658	20929
855.792	20765
855.926	20834
856.06	20872
856.194	20975
856.327	20944
856.461	20811
856.595	20819
856.729	20872
856.862	20952
856.996	20895
857.13	20823
857.263	20887
857.397	20906
857.53	20769
857.664	20830
857.797	20872
857.931	21024
858.064	20788
858.197	21009
858.331	20792
858.464	20712
858.597	20762
858.731	20739
858.864	20845
858.997	20800
859.13	20845
859.263	20834
859.396	20891
859.529	20815
859.662	20754
859.795	20716
859.928	20773
860.061	20902
860.194	21036
860.327	20876
860.46	20872
860.592	20979
860.725	20910
860.858	20956
860.99	20845
861.123	20781
861.256	20785
861.388	20921
861.521	21249
861.653	20731
861.786	20514
861.918	20682
862.05	20777
862.183	20807
862.315	20705
862.447	20750
862.58	20739
862.712	20560
862.844	20568
862.976	20648
863.108	20602
863.24	20952
863.372	20404
863.504	20552
863.636	20514
863.768	20636
863.9	20488
864.032	20484
864.164	20404
864.296	20568
864.428	20670
864.559	20613
864.691	20625
864.823	20533
864.954	20552
865.086	20587
865.217	20469
865.349	20358
865.48	20355
865.612	20438
865.743	20503
865.875	20431
866.006	20419
866.137	20434
866.269	20465
866.4	20446
866.531	20518
866.662	20393
866.793	20290
866.924	20370
867.055	20362
867.186	20347
867.317	20320
867.448	20294
867.579	20248
867.71	20377
867.841	20237
867.972	20275
868.103	20412
868.233	20431
868.364	20431
868.495	20522
868.625	20594
868.756	20663
868.886	20526
869.017	20659
869.147	20758
869.278	20701
869.408	20568
869.539	20564
869.669	20682
869.799	20716
869.929	20686
870.06	20686
870.19	20883
870.32	20899
870.45	20864
870.58	21013
870.71	21028
870.84	21024
870.97	20986
871.1	21058
871.23	21169
871.36	21192
871.489	21100
871.619	21146
871.749	21344
871.879	21180
872.008	21294
872.138	21199
872.267	21260
872.397	21043
872.526	20944
872.656	21077
872.785	20986
872.915	21211
873.044	21272
873.173	21310
873.303	21138
873.432	21329
873.561	21291
873.69	21260
873.819	21180
873.948	21321
874.077	21378
874.206	21233
874.335	21260
874.464	21332
874.593	21466
874.722	21485
874.851	21431
874.979	21572
875.108	21572
875.237	21382
875.365	21488
875.494	21401
875.623	21644
875.751	21435
875.88	21420
876.008	21603
876.136	21568
876.265	21884
876.393	21899
876.521	21915
876.65	21979
876.778	21895
876.906	21720
877.034	21774
877.162	21945
877.29	21774
877.418	21838
877.546	21899
877.674	21808
877.802	21918
877.93	21778
878.058	21823
878.185	21797
878.313	21705
878.441	21819
878.568	21675
878.696	21690
878.824	21861
878.951	21838
879.079	22002
879.206	21873
879.333	21994
879.461	21724
879.588	21888
879.715	22025
879.842	22093
879.97	21869
880.097	21641
880.224	21610
880.351	21644
880.478	21671
880.605	21610
880.732	21561
880.859	21922
880.986	21724
881.112	21663
881.239	21435
881.366	21386
881.493	21351
881.619	21325
881.746	21291
881.872	21180
881.999	21157
882.125	21252
882.252	21268
882.378	21195
882.505	21306
882.631	21100
882.757	20982
882.883	21081
883.01	20914
883.136	20864
883.262	20773
883.388	20762
883.514	20883
883.64	20967
883.766	20796
883.892	20701
884.018	20754
884.143	21032
884.269	20849
884.395	20606
884.52	20587
884.646	20522
884.772	20518
884.897	20412
885.023	20594
885.148	20686
885.274	20655
885.399	20625
885.524	20606
885.65	20739
885.775	20480
885.9	20537
886.025	20583
886.15	20663
886.275	20575
886.4	20427
886.525	20438
886.65	20381
886.775	20537
886.9	20705
887.025	20716
887.149	20587
887.274	20377
887.399	20252
887.523	20393
887.648	20332
887.773	20237
887.897	20499
888.021	20362
888.146	20305
888.27	20450
888.395	20438
888.519	20358
888.643	20358
888.767	20328
888.891	20252
889.015	20107
889.139	20244
889.263	20195
889.387	20263
889.511	20393
889.635	20275
889.759	20176
889.883	20161
890.006	20191
890.13	20218
890.254	20081
890.377	20115
890.501	19955
890.624	19830
890.748	19982
890.871	19826
890.995	19750
891.118	19666
891.241	19723
891.364	19845
891.488	19932
891.611	19666
891.734	19734
891.857	19822
891.98	19769
892.103	19776
892.226	19662
892.349	19620
892.471	19575
892.594	19658
892.717	19666
892.839	19651
892.962	19597
893.085	19852
893.207	19605
893.33	19445
893.452	19518
893.575	19772
893.697	19590
893.819	19795
893.941	19742
894.064	19788
894.186	19567
894.308	19571
894.43	19647
894.552	19788
894.674	19685
894.796	19616
894.918	19639
895.04	19609
895.161	19674
895.283	19658
895.405	19586
895.526	19674
895.648	19651
895.769	19628
895.891	19715
896.012	19670
896.134	19685
896.255	19662
896.376	19563
896.498	19616
896.619	19757
896.74	19681
896.861	19689
896.982	20073
897.103	20069
897.224	19940
897.345	19955
897.466	19909
897.587	19917
897.708	19986
897.828	20031
897.949	19879
898.07	19731
898.19	19734
898.311	19913
898.431	19849
898.552	19890
898.672	19963
898.792	19860
898.913	19925
899.033	19849
899.153	19677
899.273	19609
899.393	19582
899.513	19712
899.633	19594
899.753	19719
899.873	19537
899.993	19738
900.113	19628
900.232	19643
900.352	19552
900.472	19457
900.591	19358
900.711	19502
900.83	19350
900.95	19514
901.069	19533
901.189	19202
901.308	19034
901.427	18970
901.546	19095
901.665	18977
901.784	19019
901.904	18905
902.023	18760
902.141	18574
902.26	18517
902.379	18661
902.498	18559
902.617	18559
902.735	18566
902.854	18410
902.973	18429
903.091	18197
903.21	18232
903.328	18201
903.446	18026
903.565	18076
903.683	18015
903.801	17946
903.919	18038
904.038	18022
904.156	17756
904.274	17851
904.392	17699
904.51	17672
904.627	17710
904.745	17760
904.863	17851
904.981	17630
905.098	17433
905.216	17478
905.334	17505
905.451	17562
905.569	17417
905.686	17493
905.803	17425
905.921	17292
906.038	17387
906.155	17223
906.272	17212
906.389	17231
906.506	17006
906.623	16968
906.74	17071
906.857	16858
906.974	16881
907.091	16968
907.208	17060
907.324	16953
907.441	16915
907.557	16748
907.674	16698
907.79	16660
907.907	16729
908.023	16683
908.139	16809
908.256	16607
908.372	16637
908.488	16558
908.604	16470
908.72	16284
908.836	16382
908.952	16436
909.068	16436
909.184	16519
909.3	16333
909.415	16462
909.531	16485
909.647	16112
909.762	16093
909.878	16147
909.993	16173
910.108	16166
910.224	16109
910.339	16124
910.454	16090
910.57	15960
910.685	15838
910.8	16185
910.915	16162
911.03	15930
911.145	15808
911.259	15701
911.374	15641
911.489	15648
911.604	15584
911.718	15545
911.833	15496
911.947	15405
912.062	15336
912.176	15378
912.291	15389
912.405	15443
912.519	15618
912.633	15694
912.748	15496
912.862	15526
912.976	15306
913.09	15275
913.204	15317
913.318	15408
913.431	15389
913.545	15447
913.659	15340
913.772	15279
913.886	15089
914	15070
914.113	15165
914.226	15214
914.34	15203
914.453	15017
914.566	15131
914.68	15097
914.793	14956
914.906	14785
915.019	14762
915.132	14651
915.245	14731
915.358	14800
915.47	14804
915.583	14758
915.696	14659
915.809	14838
915.921	14857
916.034	14640
916.146	14712
916.259	14552
916.371	14708
916.483	14689
916.595	14533
916.708	14503
916.82	14549
916.932	14446
917.044	14549
917.156	14511
917.268	14347
917.38	14385
917.491	14488
917.603	14400
917.715	14492
917.826	14564
917.938	14343
918.049	14267
918.161	14355
918.272	14507
918.384	14522
918.495	14317
918.606	14149
918.717	14050
918.828	14202
918.939	14214
919.05	14058
919.161	14172
919.272	13913
919.383	13906
919.494	14271
919.604	14339
919.715	14271
919.826	14058
919.936	14058
920.047	14214
920.157	14187
920.267	14248
920.378	14199
920.488	14115
920.598	14259
920.708	14347
920.818	14278
920.928	14164
921.038	14434
921.148	14313
921.258	14100
921.368	13989
921.477	13940
921.587	13788
921.697	13696
921.806	13860
921.916	13712
922.025	13643
922.134	13537
922.244	13381
922.353	13491
922.462	13411
922.571	13358
922.68	13202
922.789	13190
922.898	13171
923.007	13129
923.116	13232
923.224	13202
923.333	13137
923.442	12947
923.55	13027
923.659	13042
923.767	13110
923.876	13088
923.984	13034
924.092	12981
924.201	12924
924.309	12947
924.417	12954
924.525	12909
924.633	12878
924.741	13742
924.849	12608
924.956	12768
925.064	12662
925.172	12532
925.279	12460
925.387	12547
925.494	12555
925.602	12741
925.709	12597
925.816	12490
925.924	12620
926.031	12646
926.138	12414
926.245	12612
926.352	12525
926.459	12612
926.566	12650
926.673	12490
926.779	12372
926.886	12506
926.993	12243
927.099	12273
927.206	12129
927.312	12167
927.419	12262
927.525	12197
927.631	12205
927.737	12076
927.843	12072
927.95	11969
928.056	12102
928.162	11927
928.267	12133
928.373	12612
928.479	12087
928.585	11965
928.69	11961
928.796	11996
928.901	11946
929.007	11688
929.112	11836
929.218	11824
929.323	11737
929.428	11680
929.533	11988
929.638	11699
929.743	11741
929.848	11805
929.953	11684
930.058	11585
930.163	11421
930.267	11478
930.372	11570
930.477	11330
930.581	11570
930.685	11497
930.79	11387
930.894	11307
930.998	11303
931.103	11474
931.207	11048
931.311	10976
931.415	10934
931.519	10835
931.623	10729
