Data from test_V78500241_1089.txt Node
Date: Fri Mar 25 15:17:26 CST 2022
User: usil
Spectrometer: V785-0024
Trigger mode: 0
Integration Time (sec): 4.000000E-1
Scans to average: 1
Nonlinearity correction enabled: false
Boxcar width: 0
Storing dark spectrum: false
XAxis mode: Wavelengths
Number of Pixels in Spectrum: 1024
>>>>>Begin Spectral Data<<<<<
801.071	28322
801.214	28230
801.356	28101
801.499	27914
801.641	27785
801.783	27812
801.926	27941
802.068	27850
802.211	27717
802.353	27751
802.496	27488
802.638	27473
802.78	27507
802.923	27473
803.065	27439
803.208	27561
803.35	27553
803.492	27667
803.635	27671
803.777	27515
803.919	27743
804.061	28013
804.204	27911
804.346	27686
804.488	27534
804.63	27698
804.773	27644
804.915	27854
805.057	27823
805.199	27717
805.341	27880
805.483	27835
805.626	27880
805.768	27842
805.91	27835
806.052	27762
806.194	27690
806.336	28097
806.478	27865
806.62	27857
806.762	28055
806.904	28051
807.046	28432
807.188	28341
807.33	28124
807.472	28360
807.614	28253
807.756	28242
807.898	28036
808.04	28105
808.182	28272
808.324	28329
808.465	28280
808.607	28261
808.749	28440
808.891	28660
809.033	28588
809.174	28428
809.316	28485
809.458	28615
809.6	28451
809.741	28656
809.883	28721
810.025	28778
810.166	28812
810.308	28774
810.45	28805
810.591	28831
810.733	28660
810.875	28565
811.016	28478
811.158	28287
811.299	28557
811.441	28797
811.582	28824
811.724	28546
811.865	28512
812.007	28516
812.148	28440
812.29	28713
812.431	28805
812.573	28733
812.714	28949
812.855	29220
812.997	29094
813.138	29334
813.279	29105
813.421	29170
813.562	29193
813.703	28946
813.845	28812
813.986	28550
814.127	28497
814.268	28188
814.41	28417
814.551	28268
814.692	28253
814.833	28257
814.974	28261
815.115	28310
815.256	28128
815.397	28268
815.539	28078
815.68	27975
815.821	27975
815.962	28059
816.103	28055
816.244	28013
816.385	27918
816.526	27899
816.666	27625
816.807	27587
816.948	27648
817.089	27603
817.23	27663
817.371	27644
817.512	27492
817.653	27591
817.793	27511
817.934	27572
818.075	27637
818.216	27629
818.356	27667
818.497	27614
818.638	27291
818.778	27317
818.919	27249
819.06	27302
819.2	27450
819.341	27515
819.481	27511
819.622	27576
819.762	28036
819.903	27918
820.043	27808
820.184	27679
820.324	27747
820.465	27743
820.605	27751
820.746	27663
820.886	27542
821.026	27564
821.167	27671
821.307	27648
821.447	27652
821.588	27618
821.728	27534
821.868	27268
822.008	27154
822.149	26937
822.289	26971
822.429	26716
822.569	26701
822.709	26674
822.849	26571
822.99	26476
823.13	26564
823.27	26632
823.41	26400
823.55	26374
823.69	26488
823.83	26514
823.97	26370
824.11	26237
824.25	26252
824.389	26263
824.529	26252
824.669	26187
824.809	26465
824.949	26366
825.089	26389
825.228	26393
825.368	26122
825.508	26157
825.648	26168
825.787	26149
825.927	26233
826.067	26149
826.206	26035
826.346	26195
826.485	26240
826.625	26122
826.765	26218
826.904	26172
827.044	25837
827.183	25795
827.323	25795
827.462	25879
827.601	26031
827.741	25807
827.88	25902
828.02	25689
828.159	25868
828.298	25784
828.437	25947
828.577	25700
828.716	25921
828.855	25780
828.994	25506
829.134	25578
829.273	25624
829.412	25597
829.551	25422
829.69	25575
829.829	25525
829.968	25662
830.107	25674
830.246	25559
830.385	25571
830.524	25438
830.663	25430
830.802	25384
830.941	25217
831.08	25190
831.219	25270
831.357	25236
831.496	25449
831.635	25198
831.774	25168
831.913	25031
832.051	24928
832.19	24882
832.329	24905
832.467	24688
832.606	24749
832.744	24913
832.883	24764
833.022	24837
833.16	24928
833.299	24741
833.437	24916
833.576	25046
833.714	24753
833.852	24913
833.991	24886
834.129	24932
834.267	24992
834.406	24875
834.544	24954
834.682	25038
834.821	24844
834.959	25118
835.097	24875
835.235	24935
835.373	24939
835.511	24920
835.65	24871
835.788	24738
835.926	24673
836.064	24612
836.202	24498
836.34	24734
836.478	24817
836.615	24840
836.753	24810
836.891	24833
837.029	24783
837.167	24604
837.305	24620
837.443	24703
837.58	24612
837.718	24700
837.856	24585
837.993	24532
838.131	24574
838.269	24399
838.406	24616
838.544	24350
838.681	24281
838.819	24239
838.956	24106
839.094	24041
839.231	24079
839.369	24285
839.506	24525
839.643	24243
839.781	23992
839.918	24057
840.055	24026
840.193	24003
840.33	23828
840.467	23999
840.604	23889
840.742	24254
840.879	23843
841.016	23901
841.153	23889
841.29	24011
841.427	23965
841.564	24045
841.701	24011
841.838	23942
841.975	23912
842.112	23916
842.249	23771
842.385	23756
842.522	23954
842.659	23843
842.796	23627
842.933	23638
843.069	23794
843.206	23695
843.343	23790
843.479	23714
843.616	23729
843.752	23524
843.889	23528
844.025	23695
844.162	23547
844.298	23710
844.435	23558
844.571	23425
844.708	23524
844.844	23665
844.98	23619
845.117	23539
845.253	23649
845.389	23398
845.525	23360
845.661	23387
845.798	23193
845.934	23239
846.07	23193
846.206	23303
846.342	23334
846.478	23235
846.614	23121
846.75	22927
846.886	22987
847.022	22984
847.158	23025
847.294	22919
847.429	23079
847.565	22999
847.701	23170
847.837	22721
847.972	22733
848.108	22721
848.244	22752
848.379	22755
848.515	22470
848.65	22519
848.786	22550
848.921	22512
849.057	22615
849.192	22645
849.328	22538
849.463	22542
849.598	22405
849.734	22557
849.869	22481
850.004	22257
850.14	22424
850.275	22443
850.41	22249
850.545	22204
850.68	22284
850.815	22337
850.95	22371
851.085	22565
851.22	22504
851.355	22287
851.49	22230
851.625	22356
851.76	22280
851.895	22230
852.03	22268
852.165	22284
852.299	22348
852.434	22363
852.569	22314
852.703	22447
852.838	22402
852.973	22462
853.107	22443
853.242	22382
853.376	22166
853.511	22029
853.645	22173
853.78	22196
853.914	22310
854.048	21979
854.183	22204
854.317	22150
854.451	22386
854.585	22147
854.72	22131
854.854	22166
854.988	22010
855.122	22112
855.256	22029
855.39	22181
855.524	22185
855.658	22272
855.792	22150
855.926	22074
856.06	22261
856.194	22204
856.327	22112
856.461	22211
856.595	22093
856.729	22166
856.862	22352
856.996	22128
857.13	22185
857.263	22257
857.397	22139
857.53	22074
857.664	22223
857.797	22200
857.931	22109
858.064	22207
858.197	22265
858.331	22120
858.464	21979
858.597	22021
858.731	22177
858.864	22150
858.997	22067
859.13	22188
859.263	22044
859.396	22211
859.529	22086
859.662	22040
859.795	22093
859.928	22177
860.061	22318
860.194	22322
860.327	22177
860.46	22139
860.592	22299
860.725	22234
860.858	22246
860.99	22234
861.123	22055
861.256	22109
861.388	22188
861.521	22793
861.653	22090
861.786	22059
861.918	21964
862.05	21979
862.183	22112
862.315	22093
862.447	22196
862.58	22139
862.712	21793
862.844	21812
862.976	21823
863.108	21960
863.24	22360
863.372	21698
863.504	21743
863.636	21724
863.768	21987
863.9	21793
864.032	21732
864.164	21827
864.296	21724
864.428	22029
864.559	21888
864.691	22036
864.823	22013
864.954	21838
865.086	21766
865.217	21808
865.349	21679
865.48	21679
865.612	21816
865.743	21842
865.875	21823
866.006	21701
866.137	21705
866.269	21679
866.4	21747
866.531	21690
866.662	21576
866.793	21599
866.924	21603
867.055	21663
867.186	21568
867.317	21618
867.448	21545
867.579	21561
867.71	21553
867.841	21660
867.972	21739
868.103	21614
868.233	21648
868.364	21675
868.495	21857
868.625	21880
868.756	21876
868.886	21789
869.017	21861
869.147	21941
869.278	22048
869.408	21941
869.539	21876
869.669	21934
869.799	21865
869.929	22093
870.06	22029
870.19	22226
870.32	22246
870.45	22135
870.58	22280
870.71	22314
870.84	22337
870.97	22261
871.1	22318
871.23	22459
871.36	22485
871.489	22394
871.619	22459
871.749	22500
871.879	22516
872.008	22634
872.138	22462
872.267	22523
872.397	22451
872.526	22242
872.656	22287
872.785	22295
872.915	22485
873.044	22554
873.173	22451
873.303	22626
873.432	22550
873.561	22508
873.69	22527
873.819	22497
873.948	22626
874.077	22607
874.206	22512
874.335	22481
874.464	22637
874.593	22672
874.722	22744
874.851	22828
874.979	22748
875.108	22717
875.237	22694
875.365	22573
875.494	22759
875.623	22786
875.751	22649
875.88	22778
876.008	22759
876.136	22965
876.265	23204
876.393	23246
876.521	23113
876.65	23025
876.778	23098
876.906	23083
877.034	23044
877.162	23022
877.29	23022
877.418	23197
877.546	23105
877.674	22953
877.802	23056
877.93	23094
878.058	23025
878.185	22919
878.313	23052
878.441	23064
878.568	22866
878.696	22873
878.824	23014
878.951	23223
879.079	23280
879.206	23242
879.333	23307
879.461	23170
879.588	23185
879.715	23189
879.842	23402
879.97	23162
880.097	22911
880.224	22968
880.351	22965
880.478	22892
880.605	22763
880.732	22763
880.859	23044
880.986	22934
881.112	22896
881.239	22763
881.366	22523
881.493	22447
881.619	22485
881.746	22554
881.872	22417
881.999	22466
882.125	22379
882.252	22322
882.378	22390
882.505	22664
882.631	22261
882.757	22230
882.883	22322
883.01	22185
883.136	22109
883.262	22040
883.388	22025
883.514	22215
883.64	22116
883.766	22036
883.892	21983
884.018	22002
884.143	22029
884.269	22265
884.395	21865
884.52	21709
884.646	21724
884.772	21625
884.897	21644
885.023	21861
885.148	21949
885.274	21789
885.399	21831
885.524	21732
885.65	21648
885.775	21808
885.9	21751
886.025	21770
886.15	21880
886.275	21838
886.4	21705
886.525	21724
886.65	21671
886.775	21671
886.9	21903
887.025	21964
887.149	21720
887.274	21633
887.399	21599
887.523	21458
887.648	21545
887.773	21515
887.897	21515
888.021	21641
888.146	21389
888.27	21648
888.395	21629
888.519	21580
888.643	21542
888.767	21469
888.891	21458
889.015	21325
889.139	21378
889.263	21252
889.387	21435
889.511	21614
889.635	21504
889.759	21268
889.883	21268
890.006	21310
890.13	21450
890.254	21306
890.377	21192
890.501	20967
890.624	21020
890.748	21146
890.871	20963
890.995	20796
891.118	20929
891.241	20971
891.364	20880
891.488	21119
891.611	20899
891.734	20826
891.857	20948
891.98	20887
892.103	20887
892.226	20986
892.349	20693
892.471	20689
892.594	20796
892.717	20823
892.839	20815
892.962	20815
893.085	20899
893.207	20754
893.33	20689
893.452	20663
893.575	20823
893.697	20765
893.819	20853
893.941	20998
894.064	20876
894.186	20625
894.308	20750
894.43	20887
894.552	20971
894.674	20861
894.796	20651
894.918	20716
895.04	20674
895.161	20986
895.283	20826
895.405	20727
895.526	20731
895.648	20716
895.769	20731
895.891	20712
896.012	20796
896.134	20716
896.255	20796
896.376	20674
896.498	20853
896.619	20880
896.74	20670
896.861	20781
896.982	21005
897.103	21081
897.224	20944
897.345	20918
897.466	20960
897.587	20918
897.708	21001
897.828	20902
897.949	20887
898.07	20834
898.19	20857
898.311	20895
898.431	20819
898.552	20868
898.672	20842
898.792	21001
898.913	20826
899.033	20849
899.153	20819
899.273	20518
899.393	20712
899.513	20750
899.633	20693
899.753	20697
899.873	20629
899.993	20716
900.113	20621
900.232	20636
900.352	20549
900.472	20495
900.591	20396
900.711	20488
900.83	20431
900.95	20530
901.069	20545
901.189	20385
901.308	20199
901.427	20153
901.546	20031
901.665	20005
901.784	20058
901.904	19909
902.023	19769
902.141	19575
902.26	19521
902.379	19628
902.498	19635
902.617	19476
902.735	19559
902.854	19556
902.973	19480
903.091	19175
903.21	19179
903.328	19247
903.446	19122
903.565	18970
903.683	19034
903.801	18856
903.919	18943
904.038	18886
904.156	18768
904.274	18776
904.392	18635
904.51	18741
904.627	18635
904.745	18791
904.863	18798
904.981	18532
905.098	18399
905.216	18506
905.334	18502
905.451	18513
905.569	18372
905.686	18452
905.803	18490
905.921	18224
906.038	18266
906.155	18323
906.272	18102
906.389	18136
906.506	17946
906.623	18003
906.74	17969
906.857	17828
906.974	17942
907.091	18072
907.208	18091
907.324	17973
907.441	17882
907.557	17745
907.674	17486
907.79	17604
907.907	17653
908.023	17661
908.139	17649
908.256	17646
908.372	17459
908.488	17592
908.604	17398
908.72	17296
908.836	17292
908.952	17330
909.068	17414
909.184	17562
909.3	17402
909.415	17322
909.531	17349
909.647	17128
909.762	17162
909.878	17010
909.993	16991
910.108	16972
910.224	17083
910.339	16957
910.454	16949
910.57	16847
910.685	16793
910.8	17060
910.915	17014
911.03	16843
911.145	16793
911.259	16698
911.374	16577
911.489	16649
911.604	16527
911.718	16394
911.833	16447
911.947	16329
912.062	16207
912.176	16382
912.291	16398
912.405	16413
912.519	16531
912.633	16504
912.748	16417
912.862	16272
912.976	16246
913.09	16158
913.204	16150
913.318	16329
913.431	16428
913.545	16223
913.659	16234
913.772	16265
913.886	16063
914	15945
914.113	16071
914.226	16185
914.34	16177
914.453	15918
914.566	16055
914.68	15838
914.793	15937
914.906	15759
915.019	15652
915.132	15473
915.245	15667
915.358	15618
915.47	15644
915.583	15549
915.696	15614
915.809	15713
915.921	15686
916.034	15542
916.146	15488
916.259	15515
916.371	15477
916.483	15557
916.595	15469
916.708	15351
916.82	15462
916.932	15439
917.044	15332
917.156	15374
917.268	15264
917.38	15291
917.491	15233
917.603	15260
917.715	15294
917.826	15382
917.938	15127
918.049	15176
918.161	15138
918.272	15344
918.384	15332
918.495	15138
918.606	14967
918.717	14941
918.828	15020
918.939	15017
919.05	14937
919.161	14906
919.272	14800
919.383	14773
919.494	15097
919.604	15157
919.715	14937
919.826	14838
919.936	14895
920.047	14975
920.157	14868
920.267	15188
920.378	14933
920.488	14800
920.598	15062
920.708	15203
920.818	15036
920.928	15062
921.038	15233
921.148	15203
921.258	14845
921.368	14785
921.477	14693
921.587	14674
921.697	14499
921.806	14629
921.916	14541
922.025	14396
922.134	14374
922.244	14313
922.353	14244
922.462	14092
922.571	14035
922.68	14035
922.789	13875
922.898	14020
923.007	13902
923.116	13955
923.224	13928
923.333	13864
923.442	13738
923.55	13841
923.659	13883
923.767	13841
923.876	13738
923.984	13757
924.092	13590
924.201	13677
924.309	13666
924.417	13761
924.525	13613
924.633	13575
924.741	14457
924.849	13403
924.956	13556
925.064	13480
925.172	13358
925.279	13324
925.387	13331
925.494	13373
925.602	13438
925.709	13327
925.816	13213
925.924	13339
926.031	13369
926.138	13251
926.245	13263
926.352	13266
926.459	13411
926.566	13335
926.673	13244
926.779	13076
926.886	13103
926.993	13034
927.099	12966
927.206	12802
927.312	12848
927.419	12867
927.525	12821
927.631	12844
927.737	12810
927.843	12749
927.95	12513
928.056	12707
928.162	12692
928.267	12825
928.373	13419
928.479	12768
928.585	12483
928.69	12639
928.796	12726
928.901	12551
929.007	12486
929.112	12574
929.218	12559
929.323	12429
929.428	12395
929.533	12475
929.638	12353
929.743	12391
929.848	12399
929.953	12372
930.058	12304
930.163	12064
930.267	12038
930.372	12220
930.477	11999
930.581	12220
930.685	12140
930.79	11935
930.894	11980
930.998	11988
931.103	12072
931.207	11680
931.311	11608
931.415	11604
931.519	11383
931.623	11292
