Data from test_V78500241_1300.txt Node
Date: Fri Mar 25 15:18:54 CST 2022
User: usil
Spectrometer: V785-0024
Trigger mode: 0
Integration Time (sec): 4.000000E-1
Scans to average: 1
Nonlinearity correction enabled: false
Boxcar width: 0
Storing dark spectrum: false
XAxis mode: Wavelengths
Number of Pixels in Spectrum: 1024
>>>>>Begin Spectral Data<<<<<
801.071	27956
801.214	27994
801.356	27648
801.499	27660
801.641	27504
801.783	27572
801.926	27500
802.068	27389
802.211	27473
802.353	27443
802.496	27085
802.638	27070
802.78	27127
802.923	27161
803.065	27112
803.208	27032
803.35	27108
803.492	27237
803.635	27211
803.777	27173
803.919	27469
804.061	27667
804.204	27447
804.346	27203
804.488	27218
804.63	27374
804.773	27249
804.915	27393
805.057	27591
805.199	27233
805.341	27496
805.483	27606
805.626	27488
805.768	27534
805.91	27412
806.052	27416
806.194	27370
806.336	27629
806.478	27500
806.62	27481
806.762	27591
806.904	27774
807.046	27983
807.188	27914
807.33	28048
807.472	28010
807.614	27804
807.756	27979
807.898	27705
808.04	27736
808.182	27766
808.324	27846
808.465	27736
808.607	27960
808.749	28074
808.891	28131
809.033	28219
809.174	28124
809.316	28067
809.458	28135
809.6	28154
809.741	28299
809.883	28360
810.025	28413
810.166	28409
810.308	28360
810.45	28394
810.591	28185
810.733	28230
810.875	28090
811.016	28112
811.158	28029
811.299	28299
811.441	28322
811.582	28295
811.724	28086
811.865	28139
812.007	28173
812.148	28131
812.29	28177
812.431	28360
812.573	28379
812.714	28500
812.855	28694
812.997	28763
813.138	28877
813.279	28866
813.421	28694
813.562	28599
813.703	28512
813.845	28447
813.986	28097
814.127	27922
814.268	27861
814.41	27960
814.551	27797
814.692	27880
814.833	27804
814.974	27770
815.115	27846
815.256	27743
815.397	27743
815.539	27724
815.68	27663
815.821	27515
815.962	27770
816.103	27633
816.244	27561
816.385	27439
816.526	27553
816.666	27291
816.807	27047
816.948	27241
817.089	27306
817.23	27226
817.371	27051
817.512	27192
817.653	27233
817.793	27108
817.934	27116
818.075	27142
818.216	27207
818.356	27138
818.497	26986
818.638	26952
818.778	26864
818.919	26944
819.06	27070
819.2	26960
819.341	26963
819.481	27070
819.622	27272
819.762	27408
819.903	27348
820.043	27332
820.184	27298
820.324	27363
820.465	27420
820.605	27310
820.746	27275
820.886	27123
821.026	27310
821.167	27226
821.307	27264
821.447	27260
821.588	27043
821.728	26910
821.868	26788
822.008	26552
822.149	26689
822.289	26689
822.429	26419
822.569	26339
822.709	26389
822.849	26168
822.99	26176
823.13	26012
823.27	26039
823.41	25940
823.55	25830
823.69	25849
823.83	25913
823.97	25974
824.11	25811
824.25	25818
824.389	25708
824.529	25925
824.669	25761
824.809	25826
824.949	25788
825.089	25830
825.228	25784
825.368	25639
825.508	25696
825.648	25700
825.787	25712
825.927	25746
826.067	25677
826.206	25719
826.346	25776
826.485	25704
826.625	25578
826.765	25746
826.904	25655
827.044	25510
827.183	25499
827.323	25335
827.462	25426
827.601	25335
827.741	25434
827.88	25369
828.02	25240
828.159	25400
828.298	25362
828.437	25487
828.577	25263
828.716	25514
828.855	25202
828.994	25050
829.134	25069
829.273	25107
829.412	25061
829.551	24977
829.69	25053
829.829	24943
829.968	25183
830.107	25122
830.246	25046
830.385	24939
830.524	25004
830.663	24817
830.802	24859
830.941	24665
831.08	24703
831.219	24844
831.357	24597
831.496	24886
831.635	24612
831.774	24631
831.913	24601
832.051	24467
832.19	24429
832.329	24574
832.467	24342
832.606	24338
832.744	24319
832.883	24498
833.022	24372
833.16	24418
833.299	24399
833.437	24182
833.576	24380
833.714	24448
833.852	24525
833.991	24540
834.129	24464
834.267	24544
834.406	24467
834.544	24452
834.682	24483
834.821	24559
834.959	24471
835.097	24350
835.235	24471
835.373	24262
835.511	24410
835.65	24315
835.788	24220
835.926	24186
836.064	24045
836.202	24102
836.34	24216
836.478	24243
836.615	24232
836.753	24228
836.891	24334
837.029	24247
837.167	24216
837.305	24148
837.443	24110
837.58	24144
837.718	24136
837.856	24125
837.993	24076
838.131	24022
838.269	23984
838.406	23859
838.544	23961
838.681	23699
838.819	23680
838.956	23543
839.094	23558
839.231	23695
839.369	23764
839.506	23863
839.643	23874
839.781	23585
839.918	23558
840.055	23573
840.193	23646
840.33	23425
840.467	23433
840.604	23509
840.742	23779
840.879	23337
841.016	23391
841.153	23277
841.29	23627
841.427	23414
841.564	23444
841.701	23395
841.838	23349
841.975	23440
842.112	23341
842.249	23223
842.385	23128
842.522	23436
842.659	23239
842.796	23117
842.933	23265
843.069	23204
843.206	23174
843.343	23227
843.479	23109
843.616	23242
843.752	23044
843.889	22911
844.025	23075
844.162	23075
844.298	22995
844.435	23010
844.571	22957
844.708	23029
844.844	23136
844.98	23197
845.117	23041
845.253	22930
845.389	22854
845.525	22767
845.661	22816
845.798	22801
845.934	22778
846.07	22713
846.206	22759
846.342	22896
846.478	22778
846.614	22459
846.75	22451
846.886	22512
847.022	22500
847.158	22459
847.294	22470
847.429	22519
847.565	22500
847.701	22634
847.837	22166
847.972	22124
848.108	22246
848.244	22314
848.379	22124
848.515	22131
848.65	22029
848.786	22021
848.921	22135
849.057	22230
849.192	22177
849.328	22078
849.463	22059
849.598	22051
849.734	21915
849.869	21998
850.004	21854
850.14	21743
850.275	21907
850.41	21816
850.545	21804
850.68	21705
850.815	21899
850.95	21755
851.085	21953
851.22	21922
851.355	21869
851.49	21835
851.625	21819
851.76	21918
851.895	21823
852.03	21656
852.165	21884
852.299	21926
852.434	21930
852.569	21903
852.703	21800
852.838	21907
852.973	21960
853.107	22040
853.242	21800
853.376	21739
853.511	21526
853.645	21667
853.78	21808
853.914	21739
854.048	21698
854.183	21614
854.317	21736
854.451	21869
854.585	21682
854.72	21637
854.854	21800
854.988	21576
855.122	21766
855.256	21530
855.39	21564
855.524	21747
855.658	21892
855.792	21694
855.926	21713
856.06	21705
856.194	21637
856.327	21595
856.461	21648
856.595	21648
856.729	21622
856.862	21778
856.996	21660
857.13	21720
857.263	21755
857.397	21705
857.53	21660
857.664	21698
857.797	21720
857.931	21812
858.064	21724
858.197	21717
858.331	21599
858.464	21747
858.597	21500
858.731	21587
858.864	21648
858.997	21652
859.13	21641
859.263	21667
859.396	21842
859.529	21625
859.662	21507
859.795	21732
859.928	21709
860.061	21686
860.194	21911
860.327	21831
860.46	21652
860.592	21728
860.725	21873
860.858	21739
860.99	21747
861.123	21789
861.256	21622
861.388	21660
861.521	22344
861.653	21473
861.786	21507
861.918	21405
862.05	21511
862.183	21599
862.315	21618
862.447	21667
862.58	21591
862.712	21344
862.844	21412
862.976	21439
863.108	21386
863.24	21720
863.372	21389
863.504	21439
863.636	21439
863.768	21401
863.9	21287
864.032	21252
864.164	21332
864.296	21344
864.428	21622
864.559	21454
864.691	21466
864.823	21348
864.954	21283
865.086	21378
865.217	21302
865.349	21161
865.48	21340
865.612	21325
865.743	21431
865.875	21249
866.006	21256
866.137	21287
866.269	21142
866.4	21291
866.531	21104
866.662	21233
866.793	21096
866.924	21188
867.055	21184
867.186	21089
867.317	21169
867.448	21237
867.579	21241
867.71	21093
867.841	21135
867.972	21298
868.103	21146
868.233	21188
868.364	21161
868.495	21135
868.625	21469
868.756	21435
868.886	21279
869.017	21523
869.147	21454
869.278	21591
869.408	21359
869.539	21439
869.669	21454
869.799	21450
869.929	21500
870.06	21496
870.19	21766
870.32	21682
870.45	21724
870.58	21930
870.71	21846
870.84	21937
870.97	21762
871.1	21869
871.23	21945
871.36	22006
871.489	21846
871.619	22013
871.749	21926
871.879	21998
872.008	22192
872.138	21972
872.267	22109
872.397	21968
872.526	21816
872.656	21888
872.785	21865
872.915	22006
873.044	22124
873.173	21979
873.303	22021
873.432	22097
873.561	22139
873.69	22101
873.819	22093
873.948	22097
874.077	22032
874.206	21983
874.335	21869
874.464	22295
874.593	22253
874.722	22341
874.851	22223
874.979	22440
875.108	22367
875.237	22211
875.365	22226
875.494	22367
875.623	22375
875.751	22192
875.88	22341
876.008	22360
876.136	22405
876.265	22481
876.393	22710
876.521	22687
876.65	22675
876.778	22603
876.906	22592
877.034	22569
877.162	22641
877.29	22573
877.418	22573
877.546	22679
877.674	22584
877.802	22611
877.93	22527
878.058	22523
878.185	22527
878.313	22519
878.441	22592
878.568	22287
878.696	22504
878.824	22649
878.951	22637
879.079	22869
879.206	22904
879.333	22755
879.461	22717
879.588	22767
879.715	22866
879.842	22831
879.97	22748
880.097	22478
880.224	22287
880.351	22310
880.478	22375
880.605	22352
880.732	22405
880.859	22588
880.986	22531
881.112	22500
881.239	22314
881.366	22147
881.493	22036
881.619	22013
881.746	21972
881.872	22063
881.999	22048
882.125	21926
882.252	22032
882.378	21956
882.505	22067
882.631	21812
882.757	21781
882.883	21694
883.01	21633
883.136	21618
883.262	21633
883.388	21424
883.514	21698
883.64	21641
883.766	21553
883.892	21382
884.018	21515
884.143	21530
884.269	21785
884.395	21424
884.52	21291
884.646	21340
884.772	21256
884.897	21283
885.023	21325
885.148	21344
885.274	21469
885.399	21397
885.524	21252
885.65	21393
885.775	21359
885.9	21405
886.025	21420
886.15	21405
886.275	21321
886.4	21222
886.525	21268
886.65	21310
886.775	21287
886.9	21405
887.025	21515
887.149	21351
887.274	21173
887.399	21047
887.523	20994
887.648	21062
887.773	21009
887.897	21211
888.021	21226
888.146	20918
888.27	21260
888.395	21184
888.519	21062
888.643	20986
888.767	21077
888.891	21096
889.015	20960
889.139	20826
889.263	20849
889.387	21077
889.511	21093
889.635	21009
889.759	20872
889.883	20804
890.006	20925
890.13	21013
890.254	20880
890.377	20689
890.501	20590
890.624	20674
890.748	20617
890.871	20480
890.995	20393
891.118	20423
891.241	20415
891.364	20461
891.488	20533
891.611	20522
891.734	20408
891.857	20415
891.98	20404
892.103	20503
892.226	20431
892.349	20377
892.471	20278
892.594	20385
892.717	20408
892.839	20423
892.962	20362
893.085	20358
893.207	20263
893.33	20275
893.452	20275
893.575	20396
893.697	20370
893.819	20488
893.941	20629
894.064	20526
894.186	20301
894.308	20267
894.43	20377
894.552	20541
894.674	20324
894.796	20362
894.918	20355
895.04	20286
895.161	20503
895.283	20355
895.405	20225
895.526	20347
895.648	20298
895.769	20461
895.891	20290
896.012	20393
896.134	20503
896.255	20324
896.376	20298
896.498	20332
896.619	20473
896.74	20271
896.861	20381
896.982	20712
897.103	20781
897.224	20701
897.345	20552
897.466	20488
897.587	20495
897.708	20648
897.828	20644
897.949	20526
898.07	20374
898.19	20507
898.311	20583
898.431	20476
898.552	20495
898.672	20716
898.792	20552
898.913	20579
899.033	20427
899.153	20355
899.273	20267
899.393	20313
899.513	20431
899.633	20233
899.753	20195
899.873	20278
899.993	20370
900.113	20111
900.232	20157
900.352	20172
900.472	20088
900.591	20103
900.711	20054
900.83	20054
900.95	20168
901.069	20195
901.189	19928
901.308	19700
901.427	19677
901.546	19704
901.665	19521
901.784	19628
901.904	19582
902.023	19373
902.141	19327
902.26	19274
902.379	19240
902.498	19129
902.617	19141
902.735	19031
902.854	19187
902.973	19015
903.091	18909
903.21	18707
903.328	18837
903.446	18715
903.565	18741
903.683	18620
903.801	18589
903.919	18616
904.038	18589
904.156	18369
904.274	18414
904.392	18327
904.51	18407
904.627	18391
904.745	18372
904.863	18342
904.981	18117
905.098	17992
905.216	18076
905.334	18114
905.451	18019
905.569	18053
905.686	18064
905.803	18041
905.921	17870
906.038	17984
906.155	17878
906.272	17687
906.389	17840
906.506	17596
906.623	17634
906.74	17551
906.857	17452
906.974	17604
907.091	17589
907.208	17703
907.324	17737
907.441	17482
907.557	17334
907.674	17345
907.79	17292
907.907	17318
908.023	17330
908.139	17334
908.256	17231
908.372	17143
908.488	17216
908.604	17056
908.72	17010
908.836	17025
908.952	16984
909.068	17086
909.184	17079
909.3	16991
909.415	17056
909.531	16965
909.647	16713
909.762	16740
909.878	16744
909.993	16801
910.108	16630
910.224	16774
910.339	16622
910.454	16573
910.57	16550
910.685	16546
910.8	16748
910.915	16649
911.03	16630
911.145	16451
911.259	16367
911.374	16341
911.489	16230
911.604	16242
911.718	16051
911.833	16082
911.947	16051
912.062	15800
912.176	16071
912.291	16051
912.405	15991
912.519	16173
912.633	16306
912.748	16131
912.862	16078
912.976	15861
913.09	15781
913.204	15819
913.318	15915
913.431	15926
913.545	15876
913.659	16051
913.772	15918
913.886	15751
914	15682
914.113	15747
914.226	15800
914.34	15736
914.453	15587
914.566	15724
914.68	15637
914.793	15519
914.906	15351
915.019	15287
915.132	15173
915.245	15272
915.358	15279
915.47	15283
915.583	15321
915.696	15173
915.809	15424
915.921	15389
916.034	15222
916.146	15119
916.259	15230
916.371	15275
916.483	15188
916.595	15062
916.708	15119
916.82	15116
916.932	15070
917.044	15085
917.156	15154
917.268	15028
917.38	14979
917.491	14876
917.603	14895
917.715	15017
917.826	14891
917.938	14929
918.049	14743
918.161	14921
918.272	15036
918.384	15058
918.495	14864
918.606	14716
918.717	14739
918.828	14773
918.939	14777
919.05	14644
919.161	14735
919.272	14507
919.383	14621
919.494	14785
919.604	14895
919.715	14708
919.826	14640
919.936	14640
920.047	14758
920.157	14663
920.267	14819
920.378	14678
920.488	14667
920.598	14864
920.708	14971
920.818	14819
920.928	14796
921.038	14975
921.148	14941
921.258	14644
921.368	14606
921.477	14476
921.587	14450
921.697	14244
921.806	14442
921.916	14301
922.025	14100
922.134	14065
922.244	14024
922.353	14103
922.462	13875
922.571	13822
922.68	13765
922.789	13689
922.898	13750
923.007	13636
923.116	13761
923.224	13674
923.333	13677
923.442	13521
923.55	13434
923.659	13620
923.767	13582
923.876	13476
923.984	13514
924.092	13373
924.201	13525
924.309	13422
924.417	13453
924.525	13384
924.633	13263
924.741	14275
924.849	13232
924.956	13289
925.064	13118
925.172	13053
925.279	13114
925.387	13129
925.494	13156
925.602	13221
925.709	13129
925.816	12981
925.924	13126
926.031	13133
926.138	12996
926.245	13107
926.352	12951
926.459	13023
926.566	13114
926.673	12932
926.779	12863
926.886	12837
926.993	12673
927.099	12684
927.206	12582
927.312	12631
927.419	12700
927.525	12608
927.631	12669
927.737	12509
927.843	12448
927.95	12395
928.056	12418
928.162	12536
928.267	12555
928.373	13190
928.479	12498
928.585	12369
928.69	12437
928.796	12414
928.901	12323
929.007	12148
929.112	12414
929.218	12220
929.323	12277
929.428	12201
929.533	12330
929.638	12121
929.743	12136
929.848	12197
929.953	12171
930.058	12102
930.163	11851
930.267	11885
930.372	12007
930.477	11935
930.581	12019
930.685	11874
930.79	11821
930.894	11843
930.998	11764
931.103	11946
931.207	11592
931.311	11402
931.415	11372
931.519	11128
931.623	11151
