Data from test_V78500241_3063.txt Node
Date: Fri Mar 25 15:31:11 CST 2022
User: usil
Spectrometer: V785-0024
Trigger mode: 0
Integration Time (sec): 4.000000E-1
Scans to average: 1
Nonlinearity correction enabled: false
Boxcar width: 0
Storing dark spectrum: false
XAxis mode: Wavelengths
Number of Pixels in Spectrum: 1024
>>>>>Begin Spectral Data<<<<<
801.071	27298
801.214	27230
801.356	26994
801.499	26952
801.641	26921
801.783	26857
801.926	26948
802.068	26788
802.211	26758
802.353	26701
802.496	26328
802.638	26571
802.78	26317
802.923	26389
803.065	26355
803.208	26313
803.35	26530
803.492	26697
803.635	26648
803.777	26419
803.919	26640
804.061	26861
804.204	26785
804.346	26579
804.488	26522
804.63	26606
804.773	26423
804.915	26568
805.057	26655
805.199	26457
805.341	26712
805.483	26689
805.626	26530
805.768	26773
805.91	26720
806.052	26705
806.194	26667
806.336	26765
806.478	26648
806.62	26724
806.762	26625
806.904	27013
807.046	27138
807.188	27157
807.33	27055
807.472	27161
807.614	26960
807.756	27089
807.898	26986
808.04	26891
808.182	26960
808.324	26830
808.465	27123
808.607	27104
808.749	27306
808.891	27523
809.033	27405
809.174	27245
809.316	27233
809.458	27344
809.6	27218
809.741	27329
809.883	27367
810.025	27523
810.166	27515
810.308	27492
810.45	27462
810.591	27435
810.733	27249
810.875	27302
811.016	27218
811.158	27104
811.299	27302
811.441	27500
811.582	27310
811.724	27203
811.865	27256
812.007	27188
812.148	27245
812.29	27310
812.431	27359
812.573	27496
812.714	27690
812.855	27705
812.997	27774
813.138	28067
813.279	27911
813.421	27831
813.562	27743
813.703	27534
813.845	27412
813.986	27218
814.127	27009
814.268	26940
814.41	27093
814.551	27036
814.692	26933
814.833	26971
814.974	26960
815.115	26910
815.256	26849
815.397	26902
815.539	26876
815.68	26785
815.821	26689
815.962	26750
816.103	26663
816.244	26541
816.385	26530
816.526	26469
816.666	26298
816.807	26206
816.948	26233
817.089	26347
817.23	26161
817.371	26214
817.512	26358
817.653	26168
817.793	26107
817.934	26138
818.075	26187
818.216	26145
818.356	26073
818.497	26126
818.638	25921
818.778	26054
818.919	25947
819.06	26020
819.2	26111
819.341	26214
819.481	26027
819.622	26290
819.762	26602
819.903	26339
820.043	26298
820.184	26286
820.324	26286
820.465	26317
820.605	26324
820.746	26298
820.886	26172
821.026	26339
821.167	26259
821.307	26358
821.447	26225
821.588	26103
821.728	26103
821.868	25757
822.008	25639
822.149	25609
822.289	25540
822.429	25388
822.569	25324
822.709	25320
822.849	25137
822.99	25285
823.13	25156
823.27	25038
823.41	25042
823.55	24859
823.69	24992
823.83	24954
823.97	24837
824.11	24555
824.25	24635
824.389	24734
824.529	24802
824.669	24734
824.809	24859
824.949	24916
825.089	24901
825.228	24764
825.368	24608
825.508	24749
825.648	24582
825.787	24623
825.927	24711
826.067	24703
826.206	24715
826.346	24597
826.485	24688
826.625	24696
826.765	24776
826.904	24623
827.044	24597
827.183	24429
827.323	24338
827.462	24342
827.601	24403
827.741	24361
827.88	24414
828.02	24114
828.159	24285
828.298	24372
828.437	24426
828.577	24258
828.716	24422
828.855	24247
828.994	24163
829.134	24018
829.273	24087
829.412	24083
829.551	24007
829.69	24007
829.829	24159
829.968	24049
830.107	24022
830.246	24034
830.385	24045
830.524	24003
830.663	23817
830.802	23779
830.941	23577
831.08	23630
831.219	23805
831.357	23748
831.496	23904
831.635	23722
831.774	23661
831.913	23596
832.051	23535
832.19	23391
832.329	23455
832.467	23368
832.606	23292
832.744	23216
832.883	23288
833.022	23318
833.16	23433
833.299	23429
833.437	23379
833.576	23387
833.714	23376
833.852	23497
833.991	23474
834.129	23528
834.267	23368
834.406	23604
834.544	23379
834.682	23372
834.821	23345
834.959	23570
835.097	23395
835.235	23429
835.373	23360
835.511	23459
835.65	23299
835.788	23261
835.926	23227
836.064	23083
836.202	23014
836.34	23299
836.478	23220
836.615	23117
836.753	23200
836.891	23398
837.029	23208
837.167	23147
837.305	23132
837.443	23052
837.58	23261
837.718	23162
837.856	23071
837.993	23018
838.131	23079
838.269	22892
838.406	23064
838.544	23052
838.681	22801
838.819	22615
838.956	22611
839.094	22596
839.231	22653
839.369	22691
839.506	22949
839.643	22755
839.781	22527
839.918	22462
840.055	22653
840.193	22485
840.33	22512
840.467	22706
840.604	22565
840.742	22725
840.879	22424
841.016	22497
841.153	22394
841.29	22577
841.427	22451
841.564	22451
841.701	22561
841.838	22561
841.975	22284
842.112	22451
842.249	22310
842.385	22360
842.522	22504
842.659	22390
842.796	22333
842.933	22314
843.069	22192
843.206	22280
843.343	22268
843.479	22238
843.616	22367
843.752	21972
843.889	22173
844.025	22173
844.162	21975
844.298	22025
844.435	22017
844.571	22029
844.708	22025
844.844	22211
844.98	22112
845.117	22318
845.253	21934
845.389	21915
845.525	21823
845.661	21884
845.798	21705
845.934	21854
846.07	21690
846.206	21812
846.342	21762
846.478	21701
846.614	21610
846.75	21428
846.886	21564
847.022	21549
847.158	21606
847.294	21576
847.429	21644
847.565	21576
847.701	21667
847.837	21230
847.972	21287
848.108	21310
848.244	21351
848.379	21211
848.515	21165
848.65	21081
848.786	21005
848.921	21146
849.057	21230
849.192	21211
849.328	21154
849.463	21074
849.598	21051
849.734	20944
849.869	20979
850.004	20845
850.14	20720
850.275	20887
850.41	20758
850.545	20838
850.68	20842
850.815	20765
850.95	20895
851.085	21036
851.22	21005
851.355	20906
851.49	20819
851.625	20811
851.76	20883
851.895	20899
852.03	20758
852.165	20849
852.299	20880
852.434	20880
852.569	20998
852.703	20914
852.838	20849
852.973	21051
853.107	20883
853.242	20895
853.376	20701
853.511	20564
853.645	20648
853.78	20830
853.914	20754
854.048	20678
854.183	20697
854.317	20686
854.451	20880
854.585	20682
854.72	20617
854.854	20750
854.988	20640
855.122	20689
855.256	20575
855.39	20689
855.524	20674
855.658	20769
855.792	20697
855.926	20785
856.06	20682
856.194	20712
856.327	20682
856.461	20682
856.595	20613
856.729	20663
856.862	20796
856.996	20739
857.13	20739
857.263	20804
857.397	20697
857.53	20773
857.664	20800
857.797	20735
857.931	20834
858.064	20705
858.197	20849
858.331	20750
858.464	20602
858.597	20568
858.731	20598
858.864	20689
858.997	20781
859.13	20724
859.263	20670
859.396	20735
859.529	20514
859.662	20613
859.795	20727
859.928	20842
860.061	20823
860.194	20823
860.327	20693
860.46	20693
860.592	20906
860.725	21013
860.858	20910
860.99	20800
861.123	20667
861.256	20579
861.388	20792
861.521	21241
861.653	20640
861.786	20457
861.918	20609
862.05	20549
862.183	20621
862.315	20644
862.447	20625
862.58	20678
862.712	20457
862.844	20320
862.976	20469
863.108	20431
863.24	20807
863.372	20362
863.504	20381
863.636	20393
863.768	20454
863.9	20442
864.032	20396
864.164	20374
864.296	20366
864.428	20537
864.559	20473
864.691	20571
864.823	20549
864.954	20461
865.086	20396
865.217	20408
865.349	20355
865.48	20305
865.612	20305
865.743	20473
865.875	20377
866.006	20374
866.137	20438
866.269	20332
866.4	20248
866.531	20290
866.662	20172
866.793	20278
866.924	20362
867.055	20317
867.186	20332
867.317	20256
867.448	20161
867.579	20415
867.71	20161
867.841	20187
867.972	20225
868.103	20122
868.233	20237
868.364	20256
868.495	20336
868.625	20499
868.756	20670
868.886	20385
869.017	20484
869.147	20651
869.278	20644
869.408	20670
869.539	20476
869.669	20636
869.799	20488
869.929	20568
870.06	20735
870.19	20914
870.32	20792
870.45	20906
870.58	20826
870.71	20979
870.84	20967
870.97	21005
871.1	20975
871.23	21089
871.36	21123
871.489	21070
871.619	21055
871.749	21032
871.879	21218
872.008	21222
872.138	21135
872.267	21020
872.397	21062
872.526	21017
872.656	20834
872.785	20864
872.915	21077
873.044	21173
873.173	21173
873.303	21112
873.432	21077
873.561	21142
873.69	21135
873.819	21154
873.948	21272
874.077	21131
874.206	21116
874.335	21112
874.464	21176
874.593	21344
874.722	21325
874.851	21412
874.979	21336
875.108	21416
875.237	21294
875.365	21249
875.494	21336
875.623	21462
875.751	21260
875.88	21363
876.008	21622
876.136	21576
876.265	21739
876.393	21953
876.521	21861
876.65	21960
876.778	21816
876.906	21728
877.034	21542
877.162	21690
877.29	21675
877.418	21694
877.546	21781
877.674	21724
877.802	21690
877.93	21774
878.058	21713
878.185	21648
878.313	21648
878.441	21717
878.568	21534
878.696	21705
878.824	21682
878.951	21842
879.079	21991
879.206	21994
879.333	22017
879.461	21762
879.588	21800
879.715	21838
879.842	22021
879.97	21797
880.097	21614
880.224	21755
880.351	21644
880.478	21561
880.605	21549
880.732	21595
880.859	21766
880.986	21591
881.112	21641
881.239	21336
881.366	21332
881.493	21302
881.619	21104
881.746	21108
881.872	21138
881.999	21093
882.125	21085
882.252	21070
882.378	21066
882.505	21230
882.631	21001
882.757	20834
882.883	20956
883.01	20868
883.136	20617
883.262	20735
883.388	20724
883.514	20956
883.64	20864
883.766	20720
883.892	20568
884.018	20739
884.143	20807
884.269	20864
884.395	20667
884.52	20484
884.646	20507
884.772	20347
884.897	20393
885.023	20556
885.148	20636
885.274	20663
885.399	20507
885.524	20358
885.65	20609
885.775	20507
885.9	20541
886.025	20568
886.15	20617
886.275	20404
886.4	20286
886.525	20530
886.65	20488
886.775	20385
886.9	20541
887.025	20689
887.149	20488
887.274	20267
887.399	20320
887.523	20164
887.648	20218
887.773	20073
887.897	20320
888.021	20309
888.146	20138
888.27	20362
888.395	20313
888.519	20336
888.643	20305
888.767	20218
888.891	20111
889.015	20088
889.139	20103
889.263	20046
889.387	20210
889.511	20218
889.635	20180
889.759	20024
889.883	20031
890.006	20081
890.13	20020
890.254	19978
890.377	19974
890.501	19833
890.624	19719
890.748	19803
890.871	19696
890.995	19696
891.118	19651
891.241	19643
891.364	19628
891.488	19693
891.611	19651
891.734	19658
891.857	19662
891.98	19605
892.103	19696
892.226	19750
892.349	19681
892.471	19392
892.594	19643
892.717	19563
892.839	19464
892.962	19594
893.085	19662
893.207	19643
893.33	19480
893.452	19487
893.575	19647
893.697	19483
893.819	19712
893.941	19719
894.064	19696
894.186	19567
894.308	19483
894.43	19670
894.552	19666
894.674	19715
894.796	19343
894.918	19548
895.04	19468
895.161	19723
895.283	19540
895.405	19472
895.526	19647
895.648	19495
895.769	19620
895.891	19712
896.012	19578
896.134	19578
896.255	19613
896.376	19563
896.498	19537
896.619	19651
896.74	19632
896.861	19651
896.982	19871
897.103	19936
897.224	19830
897.345	19860
897.466	19655
897.587	19822
897.708	20039
897.828	19856
897.949	19624
898.07	19677
898.19	19685
898.311	19818
898.431	19715
898.552	19818
898.672	19875
898.792	19955
898.913	19837
899.033	19685
899.153	19643
899.273	19502
899.393	19594
899.513	19670
899.633	19609
899.753	19586
899.873	19373
899.993	19639
900.113	19369
900.232	19464
900.352	19510
900.472	19388
900.591	19221
900.711	19343
900.83	19270
900.95	19381
901.069	19396
901.189	19232
901.308	19012
901.427	18943
901.546	18985
901.665	18970
901.784	19015
901.904	18806
902.023	18726
902.141	18525
902.26	18597
902.379	18582
902.498	18460
902.617	18433
902.735	18521
902.854	18464
902.973	18418
903.091	18243
903.21	17980
903.328	18194
903.446	18034
903.565	17874
903.683	17939
903.801	17794
903.919	17901
904.038	17927
904.156	17775
904.274	17691
904.392	17729
904.51	17714
904.627	17672
904.745	17729
904.863	17783
904.981	17509
905.098	17379
905.216	17364
905.334	17497
905.451	17433
905.569	17277
905.686	17501
905.803	17364
905.921	17197
906.038	17273
906.155	17239
906.272	17056
906.389	17048
906.506	16862
906.623	16915
906.74	16885
906.857	16801
906.974	16847
907.091	16923
907.208	16999
907.324	16980
907.441	16843
907.557	16641
907.674	16679
907.79	16569
907.907	16664
908.023	16630
908.139	16729
908.256	16558
908.372	16538
908.488	16596
908.604	16421
908.72	16341
908.836	16382
908.952	16348
909.068	16417
909.184	16497
909.3	16341
909.415	16360
909.531	16318
909.647	16207
909.762	16078
909.878	16109
909.993	16029
910.108	15953
910.224	15998
910.339	16074
910.454	16017
910.57	15854
910.685	15888
910.8	16067
910.915	16032
911.03	15915
911.145	15709
911.259	15686
911.374	15694
911.489	15504
911.604	15595
911.718	15408
911.833	15370
911.947	15431
912.062	15340
912.176	15542
912.291	15523
912.405	15481
912.519	15660
912.633	15667
912.748	15408
912.862	15420
912.976	15249
913.09	15199
913.204	15176
913.318	15272
913.431	15370
913.545	15382
913.659	15264
913.772	15195
913.886	15100
914	15009
914.113	15104
914.226	15150
914.34	15077
914.453	14861
914.566	15058
914.68	14883
914.793	14887
914.906	14743
915.019	14731
915.132	14598
915.245	14640
915.358	14750
915.47	14617
915.583	14712
915.696	14670
915.809	14773
915.921	14857
916.034	14613
916.146	14629
916.259	14556
916.371	14617
916.483	14720
916.595	14488
916.708	14503
916.82	14564
916.932	14495
917.044	14545
917.156	14476
917.268	14415
917.38	14404
917.491	14248
917.603	14438
917.715	14492
917.826	14351
917.938	14298
918.049	14218
918.161	14290
918.272	14419
918.384	14408
918.495	14332
918.606	14123
918.717	14103
918.828	14081
918.939	14107
919.05	14031
919.161	14134
919.272	13928
919.383	13898
919.494	14130
919.604	14336
919.715	14073
919.826	14142
919.936	14031
920.047	14153
920.157	14138
920.267	14248
920.378	14024
920.488	13993
920.598	14286
920.708	14377
920.818	14248
920.928	14218
921.038	14339
921.148	14412
921.258	14088
921.368	13974
921.477	13772
921.587	13837
921.697	13784
921.806	13890
921.916	13681
922.025	13636
922.134	13529
922.244	13460
922.353	13521
922.462	13297
922.571	13270
922.68	13206
922.789	13137
922.898	13099
923.007	13088
923.116	13110
923.224	13141
923.333	13091
923.442	13099
923.55	12924
923.659	13061
923.767	13015
923.876	12951
923.984	13031
924.092	12905
924.201	12886
924.309	12920
924.417	12878
924.525	12814
924.633	12741
924.741	13719
924.849	12604
924.956	12753
925.064	12639
925.172	12513
925.279	12593
925.387	12578
925.494	12521
925.602	12776
925.709	12604
925.816	12479
925.924	12490
926.031	12623
926.138	12460
926.245	12517
926.352	12403
926.459	12555
926.566	12646
926.673	12445
926.779	12228
926.886	12391
926.993	12205
927.099	12129
927.206	12129
927.312	12140
927.419	12243
927.525	12095
927.631	12186
927.737	11984
927.843	12011
927.95	11878
928.056	11866
928.162	11984
928.267	12015
928.373	12700
928.479	12038
928.585	11802
928.69	11904
928.796	11984
928.901	11786
929.007	11680
929.112	11828
929.218	11745
929.323	11775
929.428	11745
929.533	11855
929.638	11668
929.743	11684
929.848	11699
929.953	11649
930.058	11528
930.163	11395
930.267	11448
930.372	11551
930.477	11387
930.581	11589
930.685	11501
930.79	11387
930.894	11292
930.998	11246
931.103	11402
931.207	11006
931.311	10934
931.415	10927
931.519	10683
931.623	10717
