Data from test_V78500241_2038.txt Node
Date: Fri Mar 25 15:24:02 CST 2022
User: usil
Spectrometer: V785-0024
Trigger mode: 0
Integration Time (sec): 4.000000E-1
Scans to average: 1
Nonlinearity correction enabled: false
Boxcar width: 0
Storing dark spectrum: false
XAxis mode: Wavelengths
Number of Pixels in Spectrum: 1024
>>>>>Begin Spectral Data<<<<<
801.071	27762
801.214	27838
801.356	27549
801.499	27576
801.641	27313
801.783	27435
801.926	27340
802.068	27294
802.211	27306
802.353	27256
802.496	27081
802.638	27028
802.78	27066
802.923	26868
803.065	26872
803.208	26830
803.35	26864
803.492	26975
803.635	27081
803.777	26990
803.919	27260
804.061	27401
804.204	27272
804.346	27188
804.488	27070
804.63	27123
804.773	27157
804.915	27138
805.057	27272
805.199	27150
805.341	27203
805.483	27310
805.626	27321
805.768	27188
805.91	27245
806.052	27291
806.194	27161
806.336	27378
806.478	27389
806.62	27272
806.762	27321
806.904	27576
807.046	27823
807.188	27720
807.33	27732
807.472	27751
807.614	27603
807.756	27663
807.898	27526
808.04	27530
808.182	27481
808.324	27610
808.465	27583
808.607	27762
808.749	27930
808.891	27983
809.033	27941
809.174	28032
809.316	27895
809.458	27873
809.6	27964
809.741	28017
809.883	28192
810.025	28295
810.166	28200
810.308	28154
810.45	28242
810.591	27991
810.733	28051
810.875	27899
811.016	27797
811.158	27732
811.299	27983
811.441	28036
811.582	28059
811.724	27861
811.865	27812
812.007	27960
812.148	27880
812.29	27930
812.431	28093
812.573	28306
812.714	28436
812.855	28455
812.997	28459
813.138	28679
813.279	28607
813.421	28470
813.562	28455
813.703	28303
813.845	28143
813.986	27876
814.127	27759
814.268	27622
814.41	27488
814.551	27545
814.692	27682
814.833	27557
814.974	27717
815.115	27663
815.256	27412
815.397	27614
815.539	27515
815.68	27370
815.821	27363
815.962	27603
816.103	27393
816.244	27336
816.385	27176
816.526	27222
816.666	27036
816.807	26933
816.948	27089
817.089	27047
817.23	26918
817.371	26758
817.512	26864
817.653	26940
817.793	26845
817.934	26914
818.075	26868
818.216	26975
818.356	26857
818.497	26823
818.638	26648
818.778	26545
818.919	26697
819.06	26663
819.2	26769
819.341	26933
819.481	27020
819.622	26971
819.762	27096
819.903	27138
820.043	27077
820.184	27039
820.324	27001
820.465	27100
820.605	27024
820.746	27051
820.886	26861
821.026	26918
821.167	26914
821.307	27001
821.447	26940
821.588	26876
821.728	26769
821.868	26533
822.008	26438
822.149	26438
822.289	26351
822.429	26168
822.569	26115
822.709	26191
822.849	25936
822.99	25811
823.13	25860
823.27	25913
823.41	25704
823.55	25696
823.69	25780
823.83	25746
823.97	25784
824.11	25548
824.25	25533
824.389	25563
824.529	25457
824.669	25514
824.809	25540
824.949	25628
825.089	25506
825.228	25620
825.368	25228
825.508	25301
825.648	25460
825.787	25472
825.927	25506
826.067	25422
826.206	25369
826.346	25464
826.485	25278
826.625	25312
826.765	25457
826.904	25304
827.044	25194
827.183	25194
827.323	25050
827.462	25225
827.601	25221
827.741	25126
827.88	25156
828.02	25008
828.159	25080
828.298	25038
828.437	25148
828.577	24996
828.716	25183
828.855	25008
828.994	24760
829.134	24833
829.273	24829
829.412	24768
829.551	24768
829.69	24810
829.829	24821
829.968	24939
830.107	24829
830.246	24924
830.385	24730
830.524	24669
830.663	24597
830.802	24528
830.941	24441
831.08	24369
831.219	24551
831.357	24475
831.496	24574
831.635	24445
831.774	24327
831.913	24243
832.051	24251
832.19	24194
832.329	24136
832.467	24155
832.606	24114
832.744	24083
832.883	24102
833.022	24091
833.16	24106
833.299	24152
833.437	24060
833.576	24171
833.714	24072
833.852	24209
833.991	24091
834.129	24228
834.267	24117
834.406	24178
834.544	24171
834.682	24174
834.821	24034
834.959	24266
835.097	24087
835.235	24129
835.373	24057
835.511	24022
835.65	23954
835.788	24060
835.926	23775
836.064	23737
836.202	23828
836.34	23988
836.478	23973
836.615	23901
836.753	24030
836.891	23980
837.029	23984
837.167	23851
837.305	23920
837.443	23893
837.58	23809
837.718	23893
837.856	23840
837.993	23863
838.131	23726
838.269	23741
838.406	23642
838.544	23638
838.681	23459
838.819	23501
838.956	23231
839.094	23303
839.231	23436
839.369	23463
839.506	23745
839.643	23509
839.781	23220
839.918	23132
840.055	23379
840.193	23197
840.33	23162
840.467	23315
840.604	23280
840.742	23577
840.879	23090
841.016	23159
841.153	23159
841.29	23334
841.427	23189
841.564	23223
841.701	23223
841.838	23159
841.975	23003
842.112	23124
842.249	23037
842.385	23006
842.522	23280
842.659	23056
842.796	22957
842.933	23003
843.069	22885
843.206	22965
843.343	23044
843.479	23018
843.616	22972
843.752	22812
843.889	22782
844.025	22820
844.162	22706
844.298	22862
844.435	22729
844.571	22691
844.708	22736
844.844	22854
844.98	22835
845.117	22850
845.253	22592
845.389	22557
845.525	22645
845.661	22538
845.798	22424
845.934	22538
846.07	22470
846.206	22504
846.342	22611
846.478	22417
846.614	22344
846.75	22181
846.886	22371
847.022	22238
847.158	22105
847.294	22196
847.429	22261
847.565	22204
847.701	22470
847.837	21987
847.972	21835
848.108	22135
848.244	22040
848.379	21895
848.515	21816
848.65	21732
848.786	21755
848.921	21793
849.057	21838
849.192	21846
849.328	21949
849.463	21816
849.598	21705
849.734	21610
849.869	21663
850.004	21458
850.14	21530
850.275	21572
850.41	21378
850.545	21515
850.68	21530
850.815	21530
850.95	21576
851.085	21679
851.22	21720
851.355	21629
851.49	21610
851.625	21519
851.76	21587
851.895	21466
852.03	21534
852.165	21496
852.299	21625
852.434	21599
852.569	21667
852.703	21534
852.838	21545
852.973	21747
853.107	21606
853.242	21389
853.376	21348
853.511	21279
853.645	21355
853.78	21629
853.914	21462
854.048	21165
854.183	21416
854.317	21412
854.451	21519
854.585	21329
854.72	21359
854.854	21416
854.988	21359
855.122	21256
855.256	21268
855.39	21408
855.524	21344
855.658	21443
855.792	21321
855.926	21397
856.06	21374
856.194	21507
856.327	21351
856.461	21351
856.595	21298
856.729	21424
856.862	21485
856.996	21500
857.13	21405
857.263	21447
857.397	21466
857.53	21382
857.664	21469
857.797	21355
857.931	21477
858.064	21283
858.197	21538
858.331	21329
858.464	21344
858.597	21279
858.731	21439
858.864	21378
858.997	21340
859.13	21496
859.263	21450
859.396	21363
859.529	21485
859.662	21214
859.795	21336
859.928	21450
860.061	21591
860.194	21488
860.327	21462
860.46	21378
860.592	21386
860.725	21496
860.858	21473
860.99	21477
861.123	21348
861.256	21359
861.388	21450
861.521	22169
861.653	21245
861.786	21199
861.918	21184
862.05	21287
862.183	21351
862.315	21252
862.447	21382
862.58	21169
862.712	21070
862.844	21100
862.976	21241
863.108	21241
863.24	21443
863.372	21146
863.504	21142
863.636	20967
863.768	21127
863.9	21150
864.032	21055
864.164	21043
864.296	21081
864.428	21195
864.559	21112
864.691	21218
864.823	21058
864.954	21093
865.086	21108
865.217	21036
865.349	20956
865.48	20998
865.612	21017
865.743	21043
865.875	20921
866.006	21005
866.137	20944
866.269	20948
866.4	20918
866.531	21032
866.662	20845
866.793	20876
866.924	20944
867.055	20944
867.186	20902
867.317	20921
867.448	20788
867.579	20838
867.71	20785
867.841	20941
867.972	20872
868.103	20887
868.233	20994
868.364	20937
868.495	21013
868.625	21135
868.756	21279
868.886	21028
869.017	21085
869.147	21321
869.278	21222
869.408	21051
869.539	21116
869.669	21252
869.799	21024
869.929	21294
870.06	21329
870.19	21370
870.32	21389
870.45	21504
870.58	21629
870.71	21694
870.84	21698
870.97	21481
871.1	21538
871.23	21720
871.36	21679
871.489	21610
871.619	21705
871.749	21747
871.879	21876
872.008	21892
872.138	21789
872.267	21819
872.397	21614
872.526	21641
872.656	21439
872.785	21564
872.915	21743
873.044	21812
873.173	21728
873.303	21755
873.432	21823
873.561	21838
873.69	21762
873.819	21667
873.948	21854
874.077	21755
874.206	21717
874.335	21698
874.464	21823
874.593	21991
874.722	22002
874.851	22044
874.979	22025
875.108	22101
875.237	21857
875.365	21956
875.494	21972
875.623	22032
875.751	21918
875.88	21987
876.008	22230
876.136	22230
876.265	22417
876.393	22512
876.521	22485
876.65	22421
876.778	22405
876.906	22249
877.034	22272
877.162	22211
877.29	22188
877.418	22333
877.546	22440
877.674	22337
877.802	22314
877.93	22325
878.058	22295
878.185	22253
878.313	22402
878.441	22284
878.568	22150
878.696	22287
878.824	22470
878.951	22516
879.079	22318
879.206	22672
879.333	22417
879.461	22333
879.588	22379
879.715	22500
879.842	22508
879.97	22443
880.097	22169
880.224	22265
880.351	22238
880.478	22112
880.605	22169
880.732	22173
880.859	22504
880.986	22230
881.112	22207
881.239	22010
881.366	21937
881.493	21842
881.619	21705
881.746	21880
881.872	21739
881.999	21759
882.125	21610
882.252	21728
882.378	21629
882.505	21694
882.631	21610
882.757	21469
882.883	21485
883.01	21412
883.136	21405
883.262	21351
883.388	21184
883.514	21511
883.64	21538
883.766	21526
883.892	21138
884.018	21272
884.143	21370
884.269	21408
884.395	21165
884.52	21093
884.646	21127
884.772	21001
884.897	21051
885.023	21024
885.148	21161
885.274	21127
885.399	21127
885.524	21142
885.65	21077
885.775	21096
885.9	21119
886.025	21154
886.15	21043
886.275	20963
886.4	20994
886.525	21055
886.65	20982
886.775	20918
886.9	21081
887.025	21211
887.149	21039
887.274	20815
887.399	20849
887.523	20891
887.648	20811
887.773	20750
887.897	20849
888.021	20762
888.146	20754
888.27	20880
888.395	20849
888.519	20861
888.643	20872
888.767	20842
888.891	20750
889.015	20678
889.139	20750
889.263	20632
889.387	20754
889.511	20857
889.635	20758
889.759	20655
889.883	20617
890.006	20693
890.13	20659
890.254	20594
890.377	20419
890.501	20404
890.624	20336
890.748	20404
890.871	20355
890.995	20096
891.118	20145
891.241	20267
891.364	20317
891.488	20157
891.611	20153
891.734	20180
891.857	20339
891.98	20214
892.103	20183
892.226	20138
892.349	20081
892.471	19936
892.594	20100
892.717	20138
892.839	20100
892.962	20142
893.085	20164
893.207	20153
893.33	20005
893.452	19947
893.575	20145
893.697	20031
893.819	20381
893.941	20237
894.064	20282
894.186	20031
894.308	20062
894.43	20206
894.552	20244
894.674	20100
894.796	20035
894.918	19989
895.04	20084
895.161	20168
895.283	20119
895.405	20069
895.526	20077
895.648	20084
895.769	20183
895.891	20176
896.012	20263
896.134	20161
896.255	20149
896.376	20096
896.498	20153
896.619	20027
896.74	20138
896.861	20107
896.982	20320
897.103	20552
897.224	20431
897.345	20366
897.466	20305
897.587	20244
897.708	20404
897.828	20461
897.949	20244
898.07	20153
898.19	20187
898.311	20473
898.431	20271
898.552	20263
898.672	20328
898.792	20351
898.913	20381
899.033	20187
899.153	20130
899.273	20187
899.393	20020
899.513	20035
899.633	20126
899.753	20126
899.873	19989
899.993	20145
900.113	20088
900.232	20031
900.352	20024
900.472	19921
900.591	19814
900.711	19799
900.83	19849
900.95	19955
901.069	19917
901.189	19693
901.308	19521
901.427	19407
901.546	19438
901.665	19377
901.784	19350
901.904	19316
902.023	19236
902.141	19053
902.26	19015
902.379	19000
902.498	18916
902.617	18977
902.735	19012
902.854	18905
902.973	18875
903.091	18677
903.21	18604
903.328	18620
903.446	18517
903.565	18407
903.683	18494
903.801	18334
903.919	18437
904.038	18353
904.156	18201
904.274	18178
904.392	18228
904.51	18136
904.627	18190
904.745	18247
904.863	18144
904.981	17939
905.098	17882
905.216	17874
905.334	17942
905.451	17920
905.569	17920
905.686	17935
905.803	17855
905.921	17634
906.038	17687
906.155	17668
906.272	17630
906.389	17528
906.506	17410
906.623	17459
906.74	17383
906.857	17299
906.974	17288
907.091	17429
907.208	17596
907.324	17337
907.441	17315
907.557	17147
907.674	17204
907.79	17045
907.907	17064
908.023	17079
908.139	17128
908.256	17010
908.372	17052
908.488	17014
908.604	16847
908.72	16873
908.836	16812
908.952	16847
909.068	16831
909.184	16927
909.3	16820
909.415	16801
909.531	16812
909.647	16599
909.762	16500
909.878	16512
909.993	16611
910.108	16497
910.224	16440
910.339	16424
910.454	16314
910.57	16234
910.685	16139
910.8	16481
910.915	16478
911.03	16485
911.145	16234
911.259	16253
911.374	16044
911.489	16063
911.604	15937
911.718	15842
911.833	15956
911.947	15720
912.062	15682
912.176	15884
912.291	15774
912.405	15850
912.519	16090
912.633	15983
912.748	15941
912.862	15770
912.976	15694
913.09	15625
913.204	15682
913.318	15755
913.431	15854
913.545	15804
913.659	15827
913.772	15644
913.886	15519
914	15507
914.113	15584
914.226	15591
914.34	15580
914.453	15355
914.566	15488
914.68	15412
914.793	15485
914.906	15146
915.019	15157
915.132	15058
915.245	15119
915.358	15036
915.47	15047
915.583	15058
915.696	15112
915.809	15222
915.921	15222
916.034	15081
916.146	14933
916.259	14982
916.371	15047
916.483	14990
916.595	14982
916.708	15028
916.82	14868
916.932	14929
917.044	14933
917.156	14864
917.268	14739
917.38	14705
917.491	14689
917.603	14883
917.715	14826
917.826	14796
917.938	14743
918.049	14659
918.161	14697
918.272	14842
918.384	14876
918.495	14640
918.606	14473
918.717	14488
918.828	14522
918.939	14530
919.05	14492
919.161	14434
919.272	14214
919.383	14454
919.494	14556
919.604	14594
919.715	14457
919.826	14366
919.936	14465
920.047	14518
920.157	14476
920.267	14617
920.378	14431
920.488	14343
920.598	14625
920.708	14693
920.818	14499
920.928	14583
921.038	14579
921.148	14853
921.258	14358
921.368	14278
921.477	14210
921.587	14225
921.697	14065
921.806	14248
921.916	14035
922.025	13890
922.134	13921
922.244	13811
922.353	13913
922.462	13689
922.571	13734
922.68	13476
922.789	13453
922.898	13559
923.007	13472
923.116	13438
923.224	13510
923.333	13495
923.442	13346
923.55	13316
923.659	13396
923.767	13430
923.876	13297
923.984	13388
924.092	13209
924.201	13293
924.309	13213
924.417	13346
924.525	13145
924.633	13149
924.741	13898
924.849	12913
924.956	13099
925.064	12985
925.172	12856
925.279	12894
925.387	12951
925.494	12905
925.602	13000
925.709	12901
925.816	12798
925.924	12966
926.031	12935
926.138	12958
926.245	12951
926.352	12795
926.459	12890
926.566	12897
926.673	12757
926.779	12719
926.886	12665
926.993	12544
927.099	12521
927.206	12498
927.312	12399
927.419	12486
927.525	12460
927.631	12551
927.737	12353
927.843	12369
927.95	12159
928.056	12296
928.162	12296
928.267	12388
928.373	12932
928.479	12467
928.585	12144
928.69	12304
928.796	12213
928.901	12205
929.007	12057
929.112	12121
929.218	12121
929.323	12057
929.428	12022
929.533	12243
929.638	11992
929.743	11950
929.848	11958
929.953	11916
930.058	11771
930.163	11691
930.267	11805
930.372	11893
930.477	11661
930.581	11840
930.685	11745
930.79	11619
930.894	11600
930.998	11535
931.103	11794
931.207	11459
931.311	11334
931.415	11159
931.519	11041
931.623	10957
