Data from test_V78500241_2728.txt Node
Date: Fri Mar 25 15:28:51 CST 2022
User: usil
Spectrometer: V785-0024
Trigger mode: 0
Integration Time (sec): 4.000000E-1
Scans to average: 1
Nonlinearity correction enabled: false
Boxcar width: 0
Storing dark spectrum: false
XAxis mode: Wavelengths
Number of Pixels in Spectrum: 1024
>>>>>Begin Spectral Data<<<<<
801.071	27332
801.214	27020
801.356	26918
801.499	26918
801.641	26708
801.783	26663
801.926	26716
802.068	26701
802.211	26648
802.353	26526
802.496	26518
802.638	26419
802.78	26362
802.923	26347
803.065	26267
803.208	26237
803.35	26415
803.492	26453
803.635	26518
803.777	26366
803.919	26579
804.061	26735
804.204	26556
804.346	26503
804.488	26370
804.63	26461
804.773	26393
804.915	26545
805.057	26552
805.199	26377
805.341	26526
805.483	26621
805.626	26689
805.768	26450
805.91	26701
806.052	26552
806.194	26640
806.336	26792
806.478	26541
806.62	26545
806.762	26750
806.904	26952
807.046	27028
807.188	27032
807.33	27013
807.472	27161
807.614	26952
807.756	27077
807.898	26807
808.04	26765
808.182	26838
808.324	27066
808.465	26975
808.607	27070
808.749	27089
808.891	27256
809.033	27397
809.174	27313
809.316	27131
809.458	27275
809.6	27135
809.741	27329
809.883	27435
810.025	27599
810.166	27523
810.308	27583
810.45	27477
810.591	27264
810.733	27230
810.875	27218
811.016	27009
811.158	27066
811.299	27389
811.441	27412
811.582	27427
811.724	27142
811.865	27313
812.007	27230
812.148	27020
812.29	27142
812.431	27351
812.573	27393
812.714	27610
812.855	27622
812.997	27808
813.138	27842
813.279	27823
813.421	27717
813.562	27667
813.703	27412
813.845	27496
813.986	27093
814.127	26963
814.268	26887
814.41	26899
814.551	26906
814.692	26971
814.833	26811
814.974	26823
815.115	26735
815.256	26670
815.397	26792
815.539	26880
815.68	26560
815.821	26564
815.962	26716
816.103	26598
816.244	26461
816.385	26374
816.526	26434
816.666	26225
816.807	26088
816.948	26221
817.089	26229
817.23	26111
817.371	26138
817.512	26054
817.653	26115
817.793	26039
817.934	26043
818.075	26100
818.216	26153
818.356	26043
818.497	25940
818.638	25784
818.778	25814
818.919	25791
819.06	25887
819.2	26081
819.341	26107
819.481	26126
819.622	26081
819.762	26381
819.903	26343
820.043	26271
820.184	25989
820.324	26130
820.465	26267
820.605	26096
820.746	26195
820.886	26073
821.026	26168
821.167	26183
821.307	26233
821.447	26096
821.588	25944
821.728	25917
821.868	25769
822.008	25757
822.149	25677
822.289	25582
822.429	25285
822.569	25293
822.709	25301
822.849	25046
822.99	25027
823.13	25122
823.27	25042
823.41	24913
823.55	24852
823.69	24916
823.83	24779
823.97	24795
824.11	24715
824.25	24646
824.389	24722
824.529	24700
824.669	24582
824.809	24859
824.949	24825
825.089	24817
825.228	24722
825.368	24540
825.508	24635
825.648	24498
825.787	24513
825.927	24692
826.067	24593
826.206	24665
826.346	24593
826.485	24681
826.625	24502
826.765	24665
826.904	24597
827.044	24540
827.183	24471
827.323	24155
827.462	24380
827.601	24437
827.741	24171
827.88	24338
828.02	24197
828.159	24254
828.298	24361
828.437	24342
828.577	24228
828.716	24369
828.855	24277
828.994	23988
829.134	23866
829.273	24129
829.412	24068
829.551	23824
829.69	23958
829.829	24087
829.968	24163
830.107	24083
830.246	24140
830.385	23992
830.524	23954
830.663	23760
830.802	23642
830.941	23581
831.08	23646
831.219	23680
831.357	23691
831.496	23805
831.635	23665
831.774	23414
831.913	23497
832.051	23455
832.19	23360
832.329	23376
832.467	23410
832.606	23250
832.744	23311
832.883	23322
833.022	23315
833.16	23277
833.299	23395
833.437	23311
833.576	23433
833.714	23299
833.852	23414
833.991	23318
834.129	23478
834.267	23353
834.406	23387
834.544	23406
834.682	23368
834.821	23353
834.959	23509
835.097	23330
835.235	23414
835.373	23292
835.511	23239
835.65	23174
835.788	23376
835.926	23010
836.064	23159
836.202	23075
836.34	23261
836.478	23277
836.615	23307
836.753	23200
836.891	23277
837.029	23204
837.167	23151
837.305	23174
837.443	23121
837.58	22976
837.718	23086
837.856	23094
837.993	23029
838.131	23086
838.269	22972
838.406	22949
838.544	22847
838.681	22744
838.819	22698
838.956	22478
839.094	22615
839.231	22523
839.369	22577
839.506	23006
839.643	22763
839.781	22542
839.918	22440
840.055	22550
840.193	22577
840.33	22409
840.467	22443
840.604	22588
840.742	22691
840.879	22386
841.016	22303
841.153	22360
841.29	22462
841.427	22409
841.564	22409
841.701	22348
841.838	22447
841.975	22280
842.112	22497
842.249	22303
842.385	22219
842.522	22542
842.659	22341
842.796	22344
842.933	22124
843.069	22032
843.206	22051
843.343	22215
843.479	22234
843.616	22272
843.752	21895
843.889	21926
844.025	21991
844.162	21975
844.298	22082
844.435	21968
844.571	22040
844.708	21964
844.844	22196
844.98	22059
845.117	22070
845.253	22025
845.389	21911
845.525	21838
845.661	21789
845.798	21610
845.934	21751
846.07	21644
846.206	21675
846.342	21869
846.478	21705
846.614	21473
846.75	21443
846.886	21515
847.022	21462
847.158	21511
847.294	21469
847.429	21481
847.565	21412
847.701	21564
847.837	21161
847.972	21165
848.108	21325
848.244	21222
848.379	21131
848.515	20906
848.65	21085
848.786	21108
848.921	21032
849.057	21184
849.192	21150
849.328	21032
849.463	21005
849.598	20998
849.734	20956
849.869	20872
850.004	20769
850.14	20765
850.275	20785
850.41	20811
850.545	20670
850.68	20781
850.815	20800
850.95	20910
851.085	20986
851.22	20921
851.355	20830
851.49	20769
851.625	20750
851.76	20693
851.895	20701
852.03	20708
852.165	20910
852.299	20910
852.434	20864
852.569	20857
852.703	20781
852.838	21005
852.973	20956
853.107	20914
853.242	20819
853.376	20765
853.511	20484
853.645	20765
853.78	20781
853.914	20689
854.048	20689
854.183	20659
854.317	20750
854.451	20845
854.585	20625
854.72	20712
854.854	20887
854.988	20564
855.122	20590
855.256	20488
855.39	20579
855.524	20590
855.658	20655
855.792	20648
855.926	20712
856.06	20712
856.194	20758
856.327	20579
856.461	20503
856.595	20590
856.729	20568
856.862	20743
856.996	20689
857.13	20697
857.263	20682
857.397	20788
857.53	20594
857.664	20670
857.797	20735
857.931	20686
858.064	20750
858.197	20777
858.331	20640
858.464	20499
858.597	20583
858.731	20575
858.864	20678
858.997	20648
859.13	20667
859.263	20670
859.396	20663
859.529	20750
859.662	20556
859.795	20579
859.928	20587
860.061	20773
860.194	20929
860.327	20807
860.46	20727
860.592	20689
860.725	20830
860.858	20902
860.99	20632
861.123	20701
861.256	20488
861.388	20686
861.521	21195
861.653	20571
861.786	20469
861.918	20412
862.05	20503
862.183	20511
862.315	20659
862.447	20533
862.58	20564
862.712	20442
862.844	20263
862.976	20503
863.108	20465
863.24	20921
863.372	20343
863.504	20427
863.636	20282
863.768	20332
863.9	20351
864.032	20328
864.164	20301
864.296	20351
864.428	20427
864.559	20442
864.691	20408
864.823	20393
864.954	20324
865.086	20362
865.217	20328
865.349	20176
865.48	20202
865.612	20294
865.743	20381
865.875	20305
866.006	20233
866.137	20202
866.269	20218
866.4	20275
866.531	20339
866.662	20176
866.793	20225
866.924	20157
867.055	20248
867.186	20237
867.317	20126
867.448	20134
867.579	20168
867.71	20100
867.841	20134
867.972	20286
868.103	20149
868.233	20149
868.364	20263
868.495	20305
868.625	20404
868.756	20511
868.886	20377
869.017	20442
869.147	20537
869.278	20533
869.408	20583
869.539	20366
869.669	20537
869.799	20469
869.929	20514
870.06	20507
870.19	20849
870.32	20716
870.45	20788
870.58	20921
870.71	21009
870.84	20914
870.97	20895
871.1	20807
871.23	21013
871.36	21055
871.489	21039
871.619	21013
871.749	21089
871.879	21058
872.008	21161
872.138	21108
872.267	21009
872.397	20887
872.526	20914
872.656	20826
872.785	20883
872.915	21135
873.044	21169
873.173	21108
873.303	21184
873.432	21051
873.561	21085
873.69	21093
873.819	21089
873.948	21066
874.077	21123
874.206	21062
874.335	21123
874.464	21173
874.593	21382
874.722	21188
874.851	21393
874.979	21351
875.108	21279
875.237	21336
875.365	21135
875.494	21279
875.623	21382
875.751	21260
875.88	21313
876.008	21378
876.136	21462
876.265	21656
876.393	21816
876.521	21819
876.65	21759
876.778	21652
876.906	21671
877.034	21724
877.162	21686
877.29	21694
877.418	21622
877.546	21698
877.674	21793
877.802	21549
877.93	21564
878.058	21561
878.185	21481
878.313	21519
878.441	21534
878.568	21530
878.696	21519
878.824	21667
878.951	21736
879.079	21808
879.206	21918
879.333	21800
879.461	21637
879.588	21880
879.715	21903
879.842	21972
879.97	21705
880.097	21603
880.224	21534
880.351	21538
880.478	21485
880.605	21515
880.732	21344
880.859	21603
880.986	21488
881.112	21545
881.239	21306
881.366	21344
881.493	21123
881.619	21131
881.746	21127
881.872	21043
881.999	21070
882.125	21074
882.252	21195
882.378	21020
882.505	21184
882.631	20906
882.757	20826
882.883	20845
883.01	20834
883.136	20735
883.262	20609
883.388	20716
883.514	20807
883.64	20819
883.766	20773
883.892	20594
884.018	20693
884.143	20720
884.269	20769
884.395	20568
884.52	20408
884.646	20298
884.772	20351
884.897	20305
885.023	20484
885.148	20442
885.274	20651
885.399	20518
885.524	20370
885.65	20450
885.775	20446
885.9	20465
886.025	20632
886.15	20598
886.275	20415
886.4	20225
886.525	20278
886.65	20332
886.775	20434
886.9	20560
887.025	20617
887.149	20301
887.274	20252
887.399	20183
887.523	20244
887.648	20122
887.773	20100
887.897	20244
888.021	20252
888.146	20027
888.27	20404
888.395	20294
888.519	20221
888.643	20176
888.767	20248
888.891	20218
889.015	19951
889.139	20062
889.263	19898
889.387	20134
889.511	20225
889.635	20062
889.759	20035
889.883	19940
890.006	19944
890.13	20157
890.254	19982
890.377	19837
890.501	19811
890.624	19674
890.748	19845
890.871	19613
890.995	19544
891.118	19426
891.241	19544
891.364	19624
891.488	19693
891.611	19544
891.734	19639
891.857	19708
891.98	19727
892.103	19590
892.226	19586
892.349	19559
892.471	19396
892.594	19407
892.717	19556
892.839	19464
892.962	19544
893.085	19556
893.207	19578
893.33	19301
893.452	19441
893.575	19556
893.697	19403
893.819	19662
893.941	19677
894.064	19616
894.186	19400
894.308	19491
894.43	19647
894.552	19575
894.674	19632
894.796	19381
894.918	19537
895.04	19411
895.161	19590
895.283	19533
895.405	19480
895.526	19537
895.648	19525
895.769	19529
895.891	19521
896.012	19540
896.134	19586
896.255	19533
896.376	19460
896.498	19613
896.619	19556
896.74	19590
896.861	19620
896.982	19791
897.103	20012
897.224	19723
897.345	19830
897.466	19753
897.587	19826
897.708	19879
897.828	19871
897.949	19693
898.07	19559
898.19	19700
898.311	19864
898.431	19674
898.552	19727
898.672	19795
898.792	19780
898.913	19788
899.033	19624
899.153	19533
899.273	19445
899.393	19480
899.513	19544
899.633	19514
899.753	19483
899.873	19384
899.993	19582
900.113	19369
900.232	19575
900.352	19476
900.472	19327
900.591	19343
900.711	19320
900.83	19198
900.95	19350
901.069	19331
901.189	19198
901.308	19027
901.427	18798
901.546	18924
901.665	18802
901.784	18878
901.904	18791
902.023	18631
902.141	18574
902.26	18384
902.379	18525
902.498	18513
902.617	18403
902.735	18441
902.854	18376
902.973	18163
903.091	18182
903.21	18060
903.328	18106
903.446	18072
903.565	17939
903.683	17798
903.801	17889
903.919	17832
904.038	17840
904.156	17585
904.274	17710
904.392	17684
904.51	17661
904.627	17741
904.745	17619
904.863	17707
904.981	17463
905.098	17261
905.216	17379
905.334	17455
905.451	17368
905.569	17299
905.686	17284
905.803	17322
905.921	17083
906.038	17250
906.155	17128
906.272	17033
906.389	17056
906.506	16896
906.623	16957
906.74	16923
906.857	16729
906.974	16710
907.091	16953
907.208	17075
907.324	16923
907.441	16771
907.557	16573
907.674	16577
907.79	16611
907.907	16580
908.023	16679
908.139	16637
908.256	16481
908.372	16523
908.488	16588
908.604	16386
908.72	16223
908.836	16280
908.952	16223
909.068	16371
909.184	16409
909.3	16295
909.415	16348
909.531	16344
909.647	16032
909.762	16093
909.878	15987
909.993	16021
910.108	16006
910.224	16013
910.339	16032
910.454	15873
910.57	15911
910.685	15880
910.8	16029
910.915	16036
911.03	15880
911.145	15629
911.259	15618
911.374	15618
911.489	15641
911.604	15469
911.718	15359
911.833	15367
911.947	15424
912.062	15344
912.176	15336
912.291	15477
912.405	15405
912.519	15599
912.633	15561
912.748	15382
912.862	15386
912.976	15169
913.09	15131
913.204	15089
913.318	15039
913.431	15336
913.545	15237
913.659	15237
913.772	15104
913.886	15055
914	15112
914.113	15058
914.226	15104
914.34	15093
914.453	14887
914.566	15104
914.68	14902
914.793	14857
914.906	14659
915.019	14632
915.132	14632
915.245	14648
915.358	14568
915.47	14587
915.583	14640
915.696	14640
915.809	14750
915.921	14720
916.034	14625
916.146	14549
916.259	14438
916.371	14564
916.483	14598
916.595	14450
916.708	14503
916.82	14499
916.932	14469
917.044	14434
917.156	14404
917.268	14336
917.38	14355
917.491	14259
917.603	14404
917.715	14282
917.826	14339
917.938	14267
918.049	14138
918.161	14320
918.272	14419
918.384	14370
918.495	14381
918.606	14054
918.717	13967
918.828	14084
918.939	14107
919.05	13967
919.161	14031
919.272	13845
919.383	13997
919.494	14024
919.604	14237
919.715	14001
919.826	13932
919.936	13970
920.047	14142
920.157	14020
920.267	14271
920.378	14115
920.488	14092
920.598	14069
920.708	14366
920.818	14149
920.928	14058
921.038	14290
921.148	14259
921.258	14054
921.368	13963
921.477	13772
921.587	13811
921.697	13704
921.806	13803
921.916	13700
922.025	13586
922.134	13400
922.244	13426
922.353	13552
922.462	13358
922.571	13289
922.68	13240
922.789	13095
922.898	13053
923.007	13031
923.116	13076
923.224	13061
923.333	13065
923.442	13072
923.55	12981
923.659	12901
923.767	12954
923.876	12882
923.984	13046
924.092	12901
924.201	12897
924.309	12856
924.417	12810
924.525	12787
924.633	12757
924.741	13708
924.849	12555
924.956	12726
925.064	12509
925.172	12418
925.279	12525
925.387	12544
925.494	12475
925.602	12688
925.709	12544
925.816	12414
925.924	12513
926.031	12582
926.138	12494
926.245	12559
926.352	12429
926.459	12509
926.566	12551
926.673	12437
926.779	12330
926.886	12311
926.993	12239
927.099	12201
927.206	12091
927.312	12057
927.419	12175
927.525	12117
927.631	12140
927.737	12030
927.843	11946
927.95	11885
928.056	11946
928.162	11901
928.267	12026
928.373	12445
928.479	12034
928.585	11775
928.69	11954
928.796	11920
928.901	11870
929.007	11695
929.112	11786
929.218	11752
929.323	11672
929.428	11726
929.533	11832
929.638	11600
929.743	11615
929.848	11729
929.953	11581
930.058	11570
930.163	11376
930.267	11391
930.372	11512
930.477	11372
930.581	11551
930.685	11429
930.79	11246
930.894	11356
930.998	11239
931.103	11433
931.207	11003
931.311	10946
931.415	10850
931.519	10706
931.623	10664
