Data from test_V78500241_3297.txt Node
Date: Fri Mar 25 15:32:49 CST 2022
User: usil
Spectrometer: V785-0024
Trigger mode: 0
Integration Time (sec): 4.000000E-1
Scans to average: 1
Nonlinearity correction enabled: false
Boxcar width: 0
Storing dark spectrum: false
XAxis mode: Wavelengths
Number of Pixels in Spectrum: 1024
>>>>>Begin Spectral Data<<<<<
801.071	27427
801.214	27340
801.356	27077
801.499	27009
801.641	26910
801.783	26910
801.926	26906
802.068	26914
802.211	26720
802.353	26902
802.496	26727
802.638	26545
802.78	26362
802.923	26533
803.065	26290
803.208	26415
803.35	26552
803.492	26629
803.635	26724
803.777	26667
803.919	26750
804.061	27077
804.204	26743
804.346	26678
804.488	26560
804.63	26507
804.773	26507
804.915	26640
805.057	26872
805.199	26670
805.341	26735
805.483	26811
805.626	26842
805.768	26720
805.91	26807
806.052	26819
806.194	26674
806.336	26838
806.478	26842
806.62	26697
806.762	26891
806.904	27127
807.046	27370
807.188	27256
807.33	27135
807.472	27401
807.614	27100
807.756	27161
807.898	27001
808.04	26918
808.182	27001
808.324	26902
808.465	27024
808.607	27389
808.749	27435
808.891	27496
809.033	27610
809.174	27393
809.316	27386
809.458	27507
809.6	27195
809.741	27500
809.883	27595
810.025	27743
810.166	27797
810.308	27713
810.45	27526
810.591	27618
810.733	27427
810.875	27416
811.016	27119
811.158	27268
811.299	27363
811.441	27557
811.582	27610
811.724	27412
811.865	27287
812.007	27389
812.148	27382
812.29	27534
812.431	27568
812.573	27675
812.714	27835
812.855	27892
812.997	28074
813.138	27979
813.279	27972
813.421	27911
813.562	27892
813.703	27663
813.845	27576
813.986	27249
814.127	27146
814.268	27005
814.41	26975
814.551	27127
814.692	27119
814.833	26929
814.974	26986
815.115	26979
815.256	26857
815.397	26826
815.539	26944
815.68	26667
815.821	26781
815.962	26925
816.103	26872
816.244	26663
816.385	26583
816.526	26564
816.666	26366
816.807	26389
816.948	26495
817.089	26434
817.23	26324
817.371	26336
817.512	26389
817.653	26358
817.793	26298
817.934	26317
818.075	26290
818.216	26214
818.356	26256
818.497	26153
818.638	26130
818.778	26153
818.919	26046
819.06	26229
819.2	26233
819.341	26199
819.481	26282
819.622	26511
819.762	26602
819.903	26560
820.043	26431
820.184	26396
820.324	26362
820.465	26431
820.605	26389
820.746	26366
820.886	26305
821.026	26358
821.167	26298
821.307	26503
821.447	26423
821.588	26119
821.728	26027
821.868	25951
822.008	25951
822.149	25841
822.289	25677
822.429	25575
822.569	25529
822.709	25514
822.849	25441
822.99	25206
823.13	25396
823.27	25251
823.41	25148
823.55	24943
823.69	25118
823.83	25206
823.97	25137
824.11	25008
824.25	24875
824.389	24882
824.529	25015
824.669	24985
824.809	25050
824.949	24977
825.089	24897
825.228	24897
825.368	24779
825.508	24825
825.648	24768
825.787	24802
825.927	24894
826.067	24795
826.206	24776
826.346	24802
826.485	24867
826.625	24859
826.765	25046
826.904	24920
827.044	24559
827.183	24654
827.323	24433
827.462	24688
827.601	24540
827.741	24502
827.88	24517
828.02	24308
828.159	24479
828.298	24585
828.437	24669
828.577	24418
828.716	24585
828.855	24365
828.994	24163
829.134	24213
829.273	24194
829.412	24148
829.551	24117
829.69	24205
829.829	24330
829.968	24490
830.107	24277
830.246	24163
830.385	24270
830.524	24087
830.663	24110
830.802	24049
830.941	23901
831.08	23832
831.219	23999
831.357	23855
831.496	23908
831.635	23836
831.774	23882
831.913	23710
832.051	23703
832.19	23680
832.329	23714
832.467	23558
832.606	23512
832.744	23535
832.883	23581
833.022	23433
833.16	23452
833.299	23562
833.437	23512
833.576	23554
833.714	23665
833.852	23543
833.991	23691
834.129	23668
834.267	23714
834.406	23600
834.544	23619
834.682	23493
834.821	23406
834.959	23805
835.097	23619
835.235	23653
835.373	23509
835.511	23547
835.65	23379
835.788	23360
835.926	23383
836.064	23258
836.202	23341
836.34	23402
836.478	23467
836.615	23512
836.753	23398
836.891	23471
837.029	23539
837.167	23417
837.305	23395
837.443	23303
837.58	23261
837.718	23311
837.856	23376
837.993	23322
838.131	23421
838.269	23265
838.406	23235
838.544	23159
838.681	22965
838.819	22915
838.956	22828
839.094	22759
839.231	22896
839.369	22976
839.506	23128
839.643	22987
839.781	22740
839.918	22729
840.055	22774
840.193	22763
840.33	22656
840.467	22736
840.604	22763
840.742	23060
840.879	22538
841.016	22675
841.153	22584
841.29	22698
841.427	22603
841.564	22691
841.701	22622
841.838	22725
841.975	22675
842.112	22630
842.249	22603
842.385	22611
842.522	22721
842.659	22504
842.796	22523
842.933	22481
843.069	22504
843.206	22489
843.343	22565
843.479	22291
843.616	22329
843.752	22257
843.889	22272
844.025	22322
844.162	22280
844.298	22356
844.435	22158
844.571	22177
844.708	22120
844.844	22436
844.98	22417
845.117	22329
845.253	22204
845.389	22143
845.525	22128
845.661	22139
845.798	21960
845.934	21979
846.07	21895
846.206	21979
846.342	22116
846.478	21899
846.614	21739
846.75	21724
846.886	21751
847.022	21759
847.158	21850
847.294	21732
847.429	21713
847.565	21739
847.701	22002
847.837	21507
847.972	21481
848.108	21447
848.244	21507
848.379	21359
848.515	21249
848.65	21389
848.786	21195
848.921	21329
849.057	21279
849.192	21344
849.328	21268
849.463	21291
849.598	21260
849.734	21199
849.869	21123
850.004	21085
850.14	21047
850.275	21013
850.41	21055
850.545	21058
850.68	21085
850.815	21112
850.95	21062
851.085	21355
851.22	21195
851.355	20998
851.49	20967
851.625	21116
851.76	21024
851.895	21039
852.03	21036
852.165	21085
852.299	21104
852.434	21116
852.569	21089
852.703	21051
852.838	21074
852.973	21161
853.107	21131
853.242	20857
853.376	20956
853.511	20773
853.645	20853
853.78	20986
853.914	20967
854.048	20948
854.183	20853
854.317	20914
854.451	21028
854.585	20902
854.72	20830
854.854	21036
854.988	20804
855.122	20842
855.256	20765
855.39	20743
855.524	20880
855.658	20906
855.792	20887
855.926	20842
856.06	21001
856.194	20960
856.327	20872
856.461	20876
856.595	20823
856.729	20868
856.862	21039
856.996	20967
857.13	20933
857.263	21043
857.397	21096
857.53	20826
857.664	20952
857.797	20941
857.931	21017
858.064	20883
858.197	20880
858.331	20883
858.464	20902
858.597	20788
858.731	20880
858.864	20853
858.997	20956
859.13	20895
859.263	20975
859.396	20982
859.529	20883
859.662	20960
859.795	20937
859.928	20883
860.061	21135
860.194	20994
860.327	21001
860.46	20781
860.592	21131
860.725	21135
860.858	20960
860.99	20887
861.123	20811
861.256	20861
861.388	20902
861.521	21412
861.653	20705
861.786	20606
861.918	20701
862.05	20678
862.183	20830
862.315	20868
862.447	20864
862.58	20857
862.712	20617
862.844	20549
862.976	20746
863.108	20670
863.24	21017
863.372	20556
863.504	20609
863.636	20724
863.768	20583
863.9	20602
864.032	20613
864.164	20651
864.296	20716
864.428	20705
864.559	20617
864.691	20659
864.823	20587
864.954	20522
865.086	20533
865.217	20495
865.349	20309
865.48	20598
865.612	20393
865.743	20632
865.875	20541
866.006	20355
866.137	20526
866.269	20511
866.4	20370
866.531	20305
866.662	20419
866.793	20476
866.924	20415
867.055	20465
867.186	20609
867.317	20438
867.448	20396
867.579	20503
867.71	20442
867.841	20419
867.972	20492
868.103	20377
868.233	20408
868.364	20579
868.495	20484
868.625	20739
868.756	20758
868.886	20686
869.017	20693
869.147	20819
869.278	20765
869.408	20746
869.539	20716
869.669	20724
869.799	20720
869.929	20842
870.06	20720
870.19	20937
870.32	20986
870.45	20982
870.58	21093
870.71	21222
870.84	21001
870.97	21104
871.1	21173
871.23	21252
871.36	21317
871.489	21135
871.619	21241
871.749	21302
871.879	21264
872.008	21374
872.138	21294
872.267	21249
872.397	21062
872.526	21047
872.656	21047
872.785	21230
872.915	21325
873.044	21405
873.173	21260
873.303	21344
873.432	21439
873.561	21348
873.69	21462
873.819	21325
873.948	21370
874.077	21252
874.206	21351
874.335	21249
874.464	21420
874.593	21568
874.722	21481
874.851	21641
874.979	21545
875.108	21515
875.237	21557
875.365	21450
875.494	21568
875.623	21660
875.751	21614
875.88	21564
876.008	21717
876.136	21907
876.265	21953
876.393	22017
876.521	22044
876.65	21979
876.778	22044
876.906	21873
877.034	21941
877.162	21918
877.29	21846
877.418	21861
877.546	21945
877.674	21983
877.802	21846
877.93	21846
878.058	21903
878.185	21762
878.313	21823
878.441	21949
878.568	21778
878.696	21831
878.824	21907
878.951	21937
879.079	22070
879.206	22211
879.333	22002
879.461	21937
879.588	22025
879.715	22090
879.842	22169
879.97	21941
880.097	21671
880.224	21709
880.351	21888
880.478	21690
880.605	21682
880.732	21660
880.859	21956
880.986	21732
881.112	21762
881.239	21606
881.366	21458
881.493	21336
881.619	21294
881.746	21401
881.872	21340
881.999	21135
882.125	21325
882.252	21325
882.378	21283
882.505	21370
882.631	21222
882.757	21127
882.883	21055
883.01	20994
883.136	21013
883.262	20842
883.388	20758
883.514	20979
883.64	21047
883.766	20864
883.892	20743
884.018	20765
884.143	20963
884.269	21123
884.395	20800
884.52	20625
884.646	20594
884.772	20492
884.897	20670
885.023	20705
885.148	20796
885.274	20758
885.399	20667
885.524	20705
885.65	20667
885.775	20712
885.9	20686
886.025	20739
886.15	20746
886.275	20659
886.4	20514
886.525	20644
886.65	20606
886.775	20678
886.9	20883
887.025	20800
887.149	20629
887.274	20503
887.399	20476
887.523	20389
887.648	20415
887.773	20309
887.897	20461
888.021	20503
888.146	20446
888.27	20434
888.395	20583
888.519	20385
888.643	20530
888.767	20514
888.891	20385
889.015	20317
889.139	20355
889.263	20214
889.387	20339
889.511	20415
889.635	20290
889.759	20202
889.883	20282
890.006	20298
890.13	20336
890.254	20164
890.377	20221
890.501	19989
890.624	19913
890.748	20187
890.871	20035
890.995	19814
891.118	19712
891.241	19791
891.364	19799
891.488	19871
891.611	19837
891.734	19868
891.857	19803
891.98	19917
892.103	19833
892.226	19894
892.349	19803
892.471	19647
892.594	19655
892.717	19674
892.839	19791
892.962	19662
893.085	19776
893.207	19658
893.33	19559
893.452	19715
893.575	19723
893.697	19666
893.819	19727
893.941	19845
894.064	19852
894.186	19780
894.308	19742
894.43	19811
894.552	19944
894.674	19845
894.796	19677
894.918	19700
895.04	19723
895.161	19780
895.283	19776
895.405	19689
895.526	19727
895.648	19776
895.769	19833
895.891	19723
896.012	19890
896.134	19791
896.255	19788
896.376	19826
896.498	19693
896.619	19674
896.74	19624
896.861	19799
896.982	20069
897.103	20111
897.224	19890
897.345	19955
897.466	19799
897.587	19898
897.708	20065
897.828	19967
897.949	19906
898.07	19849
898.19	19837
898.311	20062
898.431	19921
898.552	19940
898.672	19959
898.792	20077
898.913	19913
899.033	19909
899.153	19738
899.273	19578
899.393	19746
899.513	19822
899.633	19685
899.753	19784
899.873	19662
899.993	19742
900.113	19738
900.232	19731
900.352	19578
900.472	19491
900.591	19453
900.711	19616
900.83	19480
900.95	19533
901.069	19578
901.189	19392
901.308	19133
901.427	19050
901.546	19038
901.665	19053
901.784	19057
901.904	18966
902.023	18867
902.141	18654
902.26	18722
902.379	18677
902.498	18566
902.617	18467
902.735	18715
902.854	18582
902.973	18566
903.091	18266
903.21	18369
903.328	18251
903.446	18182
903.565	18167
903.683	18064
903.801	17901
903.919	18038
904.038	18030
904.156	17813
904.274	17870
904.392	17786
904.51	17760
904.627	17840
904.745	17866
904.863	17843
904.981	17653
905.098	17482
905.216	17490
905.334	17551
905.451	17680
905.569	17455
905.686	17623
905.803	17402
905.921	17345
906.038	17417
906.155	17395
906.272	17265
906.389	17212
906.506	17193
906.623	17045
906.74	17033
906.857	16961
906.974	16927
907.091	17105
907.208	17170
907.324	17151
907.441	17033
907.557	16862
907.674	16843
907.79	16725
907.907	16706
908.023	16831
908.139	16778
908.256	16786
908.372	16691
908.488	16710
908.604	16485
908.72	16542
908.836	16523
908.952	16466
909.068	16447
909.184	16527
909.3	16592
909.415	16455
909.531	16447
909.647	16207
909.762	16299
909.878	16086
909.993	16215
910.108	16169
910.224	16135
910.339	16158
910.454	16131
910.57	16006
910.685	15831
910.8	16257
910.915	16272
911.03	16013
911.145	15922
911.259	15873
911.374	15865
911.489	15762
911.604	15800
911.718	15603
911.833	15603
911.947	15523
912.062	15496
912.176	15564
912.291	15663
912.405	15572
912.519	15728
912.633	15743
912.748	15656
912.862	15500
912.976	15408
913.09	15348
913.204	15260
913.318	15431
913.431	15412
913.545	15477
913.659	15553
913.772	15401
913.886	15195
914	15165
914.113	15249
914.226	15370
914.34	15207
914.453	15192
914.566	15241
914.68	15066
914.793	15097
914.906	14918
915.019	14796
915.132	14800
915.245	14765
915.358	14830
915.47	14777
915.583	14735
915.696	14921
915.809	14975
915.921	14861
916.034	14781
916.146	14727
916.259	14701
916.371	14853
916.483	14724
916.595	14697
916.708	14663
916.82	14777
916.932	14686
917.044	14518
917.156	14640
917.268	14552
917.38	14530
917.491	14385
917.603	14461
917.715	14560
917.826	14549
917.938	14377
918.049	14317
918.161	14492
918.272	14537
918.384	14579
918.495	14404
918.606	14317
918.717	14240
918.828	14317
918.939	14248
919.05	14107
919.161	14244
919.272	13982
919.383	14069
919.494	14218
919.604	14480
919.715	14176
919.826	14088
919.936	14153
920.047	14221
920.157	14229
920.267	14377
920.378	14138
920.488	14183
920.598	14351
920.708	14431
920.818	14286
920.928	14324
921.038	14488
921.148	14469
921.258	14145
921.368	14065
921.477	14062
921.587	14027
921.697	13833
921.806	13963
921.916	13788
922.025	13791
922.134	13639
922.244	13586
922.353	13674
922.462	13601
922.571	13468
922.68	13221
922.789	13263
922.898	13255
923.007	13179
923.116	13206
923.224	13244
923.333	13171
923.442	13141
923.55	13023
923.659	13050
923.767	13160
923.876	13015
923.984	13053
924.092	12970
924.201	13015
924.309	12985
924.417	13046
924.525	12966
924.633	12958
924.741	13837
924.849	12753
924.956	12787
925.064	12722
925.172	12654
925.279	12646
925.387	12623
925.494	12738
925.602	12791
925.709	12768
925.816	12612
925.924	12642
926.031	12745
926.138	12563
926.245	12677
926.352	12650
926.459	12578
926.566	12700
926.673	12551
926.779	12486
926.886	12483
926.993	12327
927.099	12224
927.206	12201
927.312	12163
927.419	12315
927.525	12239
927.631	12304
927.737	12171
927.843	12026
927.95	11969
928.056	12095
928.162	12095
928.267	12178
928.373	12776
928.479	12140
928.585	11870
928.69	12091
928.796	12034
928.901	11946
929.007	11809
929.112	11958
929.218	11893
929.323	11912
929.428	11840
929.533	11889
929.638	11767
929.743	11737
929.848	11817
929.953	11695
930.058	11688
930.163	11554
930.267	11539
930.372	11627
930.477	11417
930.581	11722
930.685	11634
930.79	11353
930.894	11452
930.998	11368
931.103	11493
931.207	11128
931.311	11147
931.415	10980
931.519	10812
931.623	10778
