Data from test_V78500241_1790.txt Node
Date: Fri Mar 25 15:22:19 CST 2022
User: usil
Spectrometer: V785-0024
Trigger mode: 0
Integration Time (sec): 4.000000E-1
Scans to average: 1
Nonlinearity correction enabled: false
Boxcar width: 0
Storing dark spectrum: false
XAxis mode: Wavelengths
Number of Pixels in Spectrum: 1024
>>>>>Begin Spectral Data<<<<<
801.071	27873
801.214	27739
801.356	27473
801.499	27336
801.641	27203
801.783	27321
801.926	27310
802.068	27230
802.211	27089
802.353	27013
802.496	26982
802.638	26792
802.78	26887
802.923	26739
803.065	26868
803.208	26906
803.35	26880
803.492	26998
803.635	27093
803.777	26963
803.919	27112
804.061	27389
804.204	27173
804.346	26994
804.488	27051
804.63	27024
804.773	27047
804.915	26986
805.057	27161
805.199	27112
805.341	27199
805.483	27203
805.626	27249
805.768	27070
805.91	27169
806.052	27184
806.194	27211
806.336	27439
806.478	27256
806.62	27264
806.762	27268
806.904	27545
807.046	27637
807.188	27580
807.33	27713
807.472	27819
807.614	27545
807.756	27458
807.898	27515
808.04	27507
808.182	27408
808.324	27469
808.465	27580
808.607	27713
808.749	27850
808.891	27857
809.033	28017
809.174	28051
809.316	27728
809.458	27793
809.6	27519
809.741	27892
809.883	27918
810.025	28025
810.166	28086
810.308	28032
810.45	27869
810.591	27930
810.733	27797
810.875	27667
811.016	27789
811.158	27682
811.299	27850
811.441	27895
811.582	27937
811.724	27770
811.865	27789
812.007	27793
812.148	27755
812.29	27819
812.431	27914
812.573	28200
812.714	28226
812.855	28421
812.997	28565
813.138	28607
813.279	28413
813.421	28470
813.562	28344
813.703	28181
813.845	28029
813.986	27774
814.127	27671
814.268	27477
814.41	27625
814.551	27488
814.692	27591
814.833	27424
814.974	27370
815.115	27523
815.256	27431
815.397	27427
815.539	27466
815.68	27321
815.821	27264
815.962	27473
816.103	27256
816.244	27093
816.385	27135
816.526	27085
816.666	26826
816.807	26769
816.948	26823
817.089	26967
817.23	26937
817.371	26792
817.512	26731
817.653	26750
817.793	26823
817.934	26765
818.075	26868
818.216	26857
818.356	26716
818.497	26743
818.638	26419
818.778	26484
818.919	26575
819.06	26609
819.2	26636
819.341	26769
819.481	26686
819.622	27043
819.762	27245
819.903	27131
820.043	26925
820.184	26826
820.324	26960
820.465	26925
820.605	27081
820.746	26777
820.886	26811
821.026	26925
821.167	26834
821.307	26895
821.447	26670
821.588	26659
821.728	26651
821.868	26358
822.008	26336
822.149	26358
822.289	26172
822.429	26096
822.569	25970
822.709	25921
822.849	25734
822.99	25769
823.13	25696
823.27	25597
823.41	25548
823.55	25449
823.69	25712
823.83	25563
823.97	25392
824.11	25491
824.25	25476
824.389	25407
824.529	25506
824.669	25426
824.809	25548
824.949	25552
825.089	25556
825.228	25514
825.368	25308
825.508	25213
825.648	25297
825.787	25362
825.927	25247
826.067	25236
826.206	25263
826.346	25301
826.485	25285
826.625	25266
826.765	25460
826.904	25278
827.044	25080
827.183	25031
827.323	25000
827.462	25103
827.601	24992
827.741	24954
827.88	24863
828.02	25023
828.159	24958
828.298	25065
828.437	24962
828.577	24954
828.716	25088
828.855	25057
828.994	24825
829.134	24703
829.273	24753
829.412	24642
829.551	24665
829.69	24711
829.829	24719
829.968	24916
830.107	24806
830.246	24867
830.385	24642
830.524	24757
830.663	24570
830.802	24414
830.941	24380
831.08	24296
831.219	24391
831.357	24426
831.496	24589
831.635	24380
831.774	24300
831.913	24273
832.051	23992
832.19	24201
832.329	24148
832.467	24034
832.606	23950
832.744	23973
832.883	23935
833.022	23958
833.16	24018
833.299	24041
833.437	24076
833.576	24045
833.714	24053
833.852	24129
833.991	24022
834.129	24235
834.267	24049
834.406	23977
834.544	24076
834.682	24174
834.821	24102
834.959	24235
835.097	24095
835.235	24144
835.373	24064
835.511	24095
835.65	23901
835.788	23950
835.926	23779
836.064	23745
836.202	23794
836.34	23973
836.478	24022
836.615	23927
836.753	23965
836.891	23927
837.029	23908
837.167	23996
837.305	23817
837.443	23733
837.58	23798
837.718	23722
837.856	23828
837.993	23733
838.131	23756
838.269	23623
838.406	23680
838.544	23596
838.681	23337
838.819	23551
838.956	23280
839.094	23273
839.231	23311
839.369	23349
839.506	23646
839.643	23562
839.781	23311
839.918	23204
840.055	23254
840.193	23250
840.33	23178
840.467	23246
840.604	23220
840.742	23467
840.879	22961
841.016	23109
841.153	22991
841.29	23337
841.427	23162
841.564	23185
841.701	23162
841.838	23083
841.975	23151
842.112	23140
842.249	22987
842.385	22953
842.522	23083
842.659	22934
842.796	22839
842.933	22885
843.069	22748
843.206	22824
843.343	22991
843.479	22881
843.616	22953
843.752	22778
843.889	22649
844.025	22740
844.162	22664
844.298	22919
844.435	22679
844.571	22660
844.708	22694
844.844	22824
844.98	22774
845.117	22778
845.253	22717
845.389	22611
845.525	22622
845.661	22588
845.798	22561
845.934	22527
846.07	22447
846.206	22481
846.342	22599
846.478	22371
846.614	22253
846.75	22090
846.886	22124
847.022	22223
847.158	22276
847.294	22226
847.429	22268
847.565	22128
847.701	22405
847.837	21991
847.972	21895
848.108	22029
848.244	21998
848.379	21808
848.515	21770
848.65	21739
848.786	21732
848.921	21759
849.057	21804
849.192	21884
849.328	21770
849.463	21686
849.598	21599
849.734	21633
849.869	21583
850.004	21523
850.14	21500
850.275	21610
850.41	21530
850.545	21530
850.68	21450
850.815	21492
850.95	21694
851.085	21637
851.22	21618
851.355	21545
851.49	21488
851.625	21473
851.76	21587
851.895	21523
852.03	21466
852.165	21515
852.299	21568
852.434	21530
852.569	21686
852.703	21386
852.838	21675
852.973	21686
853.107	21641
853.242	21496
853.376	21370
853.511	21245
853.645	21370
853.78	21477
853.914	21431
854.048	21298
854.183	21321
854.317	21443
854.451	21534
854.585	21359
854.72	21355
854.854	21431
854.988	21245
855.122	21363
855.256	21329
855.39	21344
855.524	21363
855.658	21325
855.792	21367
855.926	21405
856.06	21351
856.194	21431
856.327	21355
856.461	21302
856.595	21222
856.729	21340
856.862	21321
856.996	21500
857.13	21458
857.263	21408
857.397	21515
857.53	21237
857.664	21511
857.797	21439
857.931	21435
858.064	21450
858.197	21363
858.331	21370
858.464	21249
858.597	21260
858.731	21306
858.864	21321
858.997	21256
859.13	21344
859.263	21405
859.396	21355
859.529	21291
859.662	21256
859.795	21317
859.928	21397
860.061	21370
860.194	21633
860.327	21344
860.46	21332
860.592	21416
860.725	21401
860.858	21435
860.99	21359
861.123	21363
861.256	21256
861.388	21264
861.521	22078
861.653	21093
861.786	21184
861.918	21077
862.05	21252
862.183	21268
862.315	21199
862.447	21313
862.58	21233
862.712	21146
862.844	20971
862.976	21154
863.108	21176
863.24	21428
863.372	20941
863.504	21020
863.636	21005
863.768	21116
863.9	20952
864.032	21032
864.164	21077
864.296	21055
864.428	21195
864.559	21039
864.691	21230
864.823	21074
864.954	21024
865.086	21005
865.217	20887
865.349	20960
865.48	21024
865.612	20937
865.743	21043
865.875	20895
866.006	20956
866.137	20864
866.269	20872
866.4	20994
866.531	20834
866.662	20842
866.793	20800
866.924	20785
867.055	20960
867.186	21066
867.317	20788
867.448	20853
867.579	20891
867.71	20788
867.841	20815
867.972	20918
868.103	20811
868.233	20979
868.364	20876
868.495	21028
868.625	21146
868.756	21218
868.886	21055
869.017	21192
869.147	21291
869.278	21150
869.408	21089
869.539	21135
869.669	21359
869.799	21150
869.929	21199
870.06	21222
870.19	21477
870.32	21424
870.45	21545
870.58	21557
870.71	21679
870.84	21739
870.97	21458
871.1	21561
871.23	21698
871.36	21705
871.489	21629
871.619	21637
871.749	21675
871.879	21667
872.008	21911
872.138	21679
872.267	21652
872.397	21652
872.526	21492
872.656	21523
872.785	21603
872.915	21751
873.044	21759
873.173	21895
873.303	21861
873.432	21888
873.561	21869
873.69	21743
873.819	21747
873.948	21846
874.077	21709
874.206	21736
874.335	21884
874.464	21884
874.593	21892
874.722	21987
874.851	21964
874.979	21960
875.108	21945
875.237	21823
875.365	21930
875.494	21873
875.623	22059
875.751	22044
875.88	21949
876.008	22078
876.136	22154
876.265	22280
876.393	22538
876.521	22481
876.65	22504
876.778	22371
876.906	22306
877.034	22341
877.162	22341
877.29	22135
877.418	22322
877.546	22428
877.674	22348
877.802	22337
877.93	22268
878.058	22287
878.185	22246
878.313	22268
878.441	22322
878.568	22109
878.696	22253
878.824	22360
878.951	22519
879.079	22557
879.206	22531
879.333	22542
879.461	22375
879.588	22436
879.715	22519
879.842	22603
879.97	22485
880.097	22143
880.224	22097
880.351	22219
880.478	22086
880.605	22070
880.732	22173
880.859	22356
880.986	22238
881.112	22154
881.239	22017
881.366	21846
881.493	21778
881.619	21606
881.746	21797
881.872	21797
881.999	21816
882.125	21728
882.252	21755
882.378	21625
882.505	21823
882.631	21534
882.757	21355
882.883	21496
883.01	21542
883.136	21344
883.262	21252
883.388	21264
883.514	21450
883.64	21428
883.766	21298
883.892	21112
884.018	21272
884.143	21397
884.269	21367
884.395	21051
884.52	21085
884.646	21150
884.772	21005
884.897	21013
885.023	21077
885.148	21249
885.274	21226
885.399	21138
885.524	21104
885.65	21028
885.775	21058
885.9	21100
886.025	21173
886.15	21188
886.275	20960
886.4	20914
886.525	21051
886.65	20918
886.775	21074
886.9	21199
887.025	21138
887.149	21047
887.274	20864
887.399	20739
887.523	20777
887.648	20796
887.773	20701
887.897	20849
888.021	20937
888.146	20781
888.27	20857
888.395	20914
888.519	20876
888.643	20807
888.767	20880
888.891	20739
889.015	20629
889.139	20727
889.263	20640
889.387	20731
889.511	20777
889.635	20857
889.759	20530
889.883	20556
890.006	20644
890.13	20716
890.254	20431
890.377	20533
890.501	20385
890.624	20366
890.748	20465
890.871	20233
890.995	20233
891.118	20115
891.241	20142
891.364	20176
891.488	20336
891.611	20103
891.734	20191
891.857	20332
891.98	20092
892.103	20202
892.226	20199
892.349	20054
892.471	19879
892.594	20259
892.717	20153
892.839	20043
892.962	20115
893.085	20317
893.207	20103
893.33	20039
893.452	20024
893.575	20214
893.697	20084
893.819	20290
893.941	20396
894.064	20237
894.186	20001
894.308	20077
894.43	20069
894.552	20237
894.674	20271
894.796	19936
894.918	20092
895.04	20031
895.161	20199
895.283	20206
895.405	20050
895.526	20168
895.648	20005
895.769	20088
895.891	20100
896.012	20142
896.134	20149
896.255	20107
896.376	19955
896.498	20168
896.619	20062
896.74	20039
896.861	20111
896.982	20362
897.103	20629
897.224	20412
897.345	20351
897.466	20317
897.587	20313
897.708	20427
897.828	20305
897.949	20278
898.07	20100
898.19	20240
898.311	20415
898.431	20385
898.552	20385
898.672	20309
898.792	20343
898.913	20256
899.033	20100
899.153	20126
899.273	20058
899.393	20043
899.513	20039
899.633	19982
899.753	20157
899.873	19940
899.993	20008
900.113	19925
900.232	19997
900.352	19925
900.472	19959
900.591	19769
900.711	19826
900.83	19696
900.95	19963
901.069	19913
901.189	19666
901.308	19362
901.427	19422
901.546	19407
901.665	19483
901.784	19346
901.904	19209
902.023	19206
902.141	19031
902.26	18958
902.379	18871
902.498	18962
902.617	18795
902.735	18928
902.854	18920
902.973	18844
903.091	18627
903.21	18528
903.328	18620
903.446	18471
903.565	18486
903.683	18471
903.801	18281
903.919	18460
904.038	18270
904.156	18239
904.274	18235
904.392	18148
904.51	18106
904.627	18167
904.745	18228
904.863	18254
904.981	17893
905.098	17870
905.216	17805
905.334	17863
905.451	17904
905.569	17756
905.686	17889
905.803	17946
905.921	17528
906.038	17775
906.155	17668
906.272	17577
906.389	17604
906.506	17376
906.623	17471
906.74	17440
906.857	17307
906.974	17200
907.091	17414
907.208	17493
907.324	17414
907.441	17227
907.557	17121
907.674	17197
907.79	17048
907.907	17006
908.023	17128
908.139	17079
908.256	17048
908.372	16984
908.488	16938
908.604	16881
908.72	16831
908.836	16915
908.952	16771
909.068	16919
909.184	16744
909.3	16729
909.415	16881
909.531	16740
909.647	16500
909.762	16504
909.878	16588
909.993	16519
910.108	16478
910.224	16474
910.339	16630
910.454	16375
910.57	16405
910.685	16287
910.8	16577
910.915	16455
911.03	16261
911.145	16303
911.259	16261
911.374	16173
911.489	16067
911.604	16002
911.718	15892
911.833	15949
911.947	15713
912.062	15580
912.176	15812
912.291	15751
912.405	15964
912.519	15941
912.633	16120
912.748	15934
912.862	15861
912.976	15641
913.09	15553
913.204	15671
913.318	15656
913.431	15793
913.545	15694
913.659	15785
913.772	15587
913.886	15500
914	15481
914.113	15507
914.226	15671
914.34	15564
914.453	15443
914.566	15443
914.68	15264
914.793	15313
914.906	15169
915.019	15169
915.132	14963
915.245	15028
915.358	15047
915.47	15142
915.583	15085
915.696	15104
915.809	15195
915.921	15226
916.034	14998
916.146	14929
916.259	14845
916.371	15127
916.483	15047
916.595	14899
916.708	14921
916.82	14895
916.932	14887
917.044	14982
917.156	14781
917.268	14819
917.38	14785
917.491	14739
917.603	14724
917.715	14864
917.826	14906
917.938	14621
918.049	14590
918.161	14796
918.272	14834
918.384	14746
918.495	14682
918.606	14613
918.717	14446
918.828	14495
918.939	14625
919.05	14393
919.161	14442
919.272	14275
919.383	14317
919.494	14511
919.604	14689
919.715	14412
919.826	14423
919.936	14385
920.047	14560
920.157	14454
920.267	14598
920.378	14423
920.488	14374
920.598	14731
920.708	14750
920.818	14587
920.928	14545
921.038	14655
921.148	14708
921.258	14412
921.368	14423
921.477	14229
921.587	14206
921.697	14031
921.806	14123
921.916	14062
922.025	13902
922.134	13875
922.244	13776
922.353	13913
922.462	13731
922.571	13658
922.68	13495
922.789	13582
922.898	13540
923.007	13445
923.116	13464
923.224	13415
923.333	13453
923.442	13365
923.55	13331
923.659	13350
923.767	13297
923.876	13362
923.984	13396
924.092	13126
924.201	13343
924.309	13202
924.417	13190
924.525	13187
924.633	13099
924.741	14111
924.849	13000
924.956	13129
925.064	12962
925.172	12783
925.279	12897
925.387	12962
925.494	12878
925.602	13080
925.709	12996
925.816	12806
925.924	12840
926.031	12943
926.138	12722
926.245	12897
926.352	12722
926.459	12909
926.566	12901
926.673	12703
926.779	12696
926.886	12646
926.993	12563
927.099	12471
927.206	12456
927.312	12426
927.419	12593
927.525	12414
927.631	12521
927.737	12273
927.843	12380
927.95	12300
928.056	12235
928.162	12285
928.267	12353
928.373	12973
928.479	12228
928.585	12159
928.69	12277
928.796	12273
928.901	12213
929.007	11942
929.112	12209
929.218	12148
929.323	12049
929.428	11942
929.533	12152
929.638	11984
929.743	12007
929.848	12053
929.953	11901
930.058	11859
930.163	11585
930.267	11661
930.372	11863
930.477	11592
930.581	11935
930.685	11764
930.79	11634
930.894	11638
930.998	11570
931.103	11646
931.207	11356
931.311	11269
931.415	11113
931.519	10984
931.623	10949
