Data from test_V78500241_207.txt Node
Date: Fri Mar 25 15:11:18 CST 2022
User: usil
Spectrometer: V785-0024
Trigger mode: 0
Integration Time (sec): 4.000000E-1
Scans to average: 1
Nonlinearity correction enabled: false
Boxcar width: 0
Storing dark spectrum: false
XAxis mode: Wavelengths
Number of Pixels in Spectrum: 1024
>>>>>Begin Spectral Data<<<<<
801.071	27968
801.214	27934
801.356	27694
801.499	27610
801.641	27481
801.783	27534
801.926	27511
802.068	27481
802.211	27511
802.353	27294
802.496	27302
802.638	27146
802.78	27176
802.923	27074
803.065	26880
803.208	27096
803.35	27138
803.492	27127
803.635	27241
803.777	27131
803.919	27218
804.061	27629
804.204	27382
804.346	27226
804.488	27146
804.63	27142
804.773	27089
804.915	27135
805.057	27264
805.199	27085
805.341	27268
805.483	27150
805.626	27226
805.768	27119
805.91	27230
806.052	27306
806.194	27173
806.336	27526
806.478	27325
806.62	27348
806.762	27317
806.904	27576
807.046	27732
807.188	27686
807.33	27656
807.472	27759
807.614	27671
807.756	27553
807.898	27496
808.04	27424
808.182	27496
808.324	27466
808.465	27591
808.607	27606
808.749	27831
808.891	27907
809.033	28021
809.174	28029
809.316	27888
809.458	27850
809.6	27774
809.741	27876
809.883	28017
810.025	28234
810.166	28067
810.308	28219
810.45	27934
810.591	28044
810.733	27914
810.875	27682
811.016	27743
811.158	27770
811.299	27918
811.441	27987
811.582	27854
811.724	27747
811.865	27728
812.007	27789
812.148	27865
812.29	27835
812.431	27994
812.573	28082
812.714	28268
812.855	28337
812.997	28428
813.138	28299
813.279	28417
813.421	28398
813.562	28238
813.703	28242
813.845	27983
813.986	27686
814.127	27439
814.268	27610
814.41	27466
814.551	27534
814.692	27412
814.833	27469
814.974	27401
815.115	27397
815.256	27329
815.397	27325
815.539	27298
815.68	27218
815.821	27157
815.962	27241
816.103	27233
816.244	27104
816.385	26990
816.526	26785
816.666	26788
816.807	26598
816.948	26815
817.089	26842
817.23	26507
817.371	26560
817.512	26651
817.653	26469
817.793	26480
817.934	26689
818.075	26648
818.216	26568
818.356	26476
818.497	26473
818.638	26252
818.778	26370
818.919	26263
819.06	26408
819.2	26488
819.341	26613
819.481	26457
819.622	26625
819.762	26777
819.903	26952
820.043	26682
820.184	26762
820.324	26648
820.465	26689
820.605	26598
820.746	26648
820.886	26442
821.026	26613
821.167	26514
821.307	26689
821.447	26480
821.588	26408
821.728	26309
821.868	26122
822.008	26176
822.149	25959
822.289	26001
822.429	25655
822.569	25677
822.709	25597
822.849	25476
822.99	25384
823.13	25346
823.27	25434
823.41	25327
823.55	25023
823.69	25312
823.83	25350
823.97	25209
824.11	25057
824.25	24996
824.389	25088
824.529	25069
824.669	25008
824.809	25160
824.949	25225
825.089	25168
825.228	25103
825.368	24920
825.508	24916
825.648	24985
825.787	24924
825.927	24985
826.067	24973
826.206	24928
826.346	24954
826.485	24916
826.625	25027
826.765	25103
826.904	24901
827.044	24639
827.183	24677
827.323	24505
827.462	24593
827.601	24616
827.741	24578
827.88	24795
828.02	24437
828.159	24566
828.298	24574
828.437	24703
828.577	24509
828.716	24768
828.855	24604
828.994	24327
829.134	24251
829.273	24456
829.412	24350
829.551	24251
829.69	24140
829.829	24098
829.968	24376
830.107	24277
830.246	24281
830.385	24239
830.524	24144
830.663	24110
830.802	23878
830.941	23931
831.08	23802
831.219	23927
831.357	23988
831.496	24026
831.635	23882
831.774	23699
831.913	23794
832.051	23733
832.19	23642
832.329	23695
832.467	23459
832.606	23547
832.744	23528
832.883	23516
833.022	23516
833.16	23505
833.299	23531
833.437	23634
833.576	23630
833.714	23592
833.852	23703
833.991	23615
834.129	23600
834.267	23790
834.406	23486
834.544	23566
834.682	23482
834.821	23528
834.959	23764
835.097	23649
835.235	23573
835.373	23383
835.511	23581
835.65	23474
835.788	23455
835.926	23330
836.064	23284
836.202	23315
836.34	23482
836.478	23493
836.615	23368
836.753	23345
836.891	23440
837.029	23322
837.167	23296
837.305	23200
837.443	23220
837.58	23216
837.718	23349
837.856	23326
837.993	23185
838.131	23288
838.269	23151
838.406	23041
838.544	22968
838.681	23010
838.819	22892
838.956	22733
839.094	22744
839.231	22767
839.369	22923
839.506	23056
839.643	22854
839.781	22698
839.918	22603
840.055	22736
840.193	22725
840.33	22554
840.467	22573
840.604	22653
840.742	22885
840.879	22284
841.016	22443
841.153	22550
841.29	22675
841.427	22554
841.564	22588
841.701	22596
841.838	22455
841.975	22485
842.112	22436
842.249	22337
842.385	22249
842.522	22497
842.659	22367
842.796	22325
842.933	22436
843.069	22238
843.206	22287
843.343	22344
843.479	22257
843.616	22268
843.752	22143
843.889	22029
844.025	22204
844.162	22131
844.298	22234
844.435	21941
844.571	21975
844.708	22006
844.844	22223
844.98	22211
845.117	22162
845.253	22059
845.389	22044
845.525	21956
845.661	21854
845.798	21823
845.934	21808
846.07	21656
846.206	21823
846.342	21842
846.478	21774
846.614	21591
846.75	21477
846.886	21572
847.022	21466
847.158	21557
847.294	21515
847.429	21564
847.565	21401
847.701	21903
847.837	21340
847.972	21249
848.108	21435
848.244	21207
848.379	21112
848.515	21058
848.65	21093
848.786	21089
848.921	21142
849.057	21173
849.192	21116
849.328	21184
849.463	21207
849.598	20994
849.734	20948
849.869	20910
850.004	20891
850.14	20788
850.275	20849
850.41	20819
850.545	20861
850.68	20834
850.815	20899
850.95	20834
851.085	20876
851.22	20918
851.355	20883
851.49	20914
851.625	20750
851.76	20785
851.895	20636
852.03	20785
852.165	20701
852.299	20708
852.434	21005
852.569	20868
852.703	20773
852.838	20925
852.973	20982
853.107	20887
853.242	20739
853.376	20708
853.511	20537
853.645	20488
853.78	20819
853.914	20651
854.048	20663
854.183	20644
854.317	20708
854.451	20804
854.585	20602
854.72	20667
854.854	20743
854.988	20480
855.122	20575
855.256	20537
855.39	20727
855.524	20545
855.658	20670
855.792	20796
855.926	20724
856.06	20689
856.194	20781
856.327	20621
856.461	20537
856.595	20648
856.729	20560
856.862	20571
856.996	20598
857.13	20575
857.263	20777
857.397	20773
857.53	20632
857.664	20762
857.797	20720
857.931	20838
858.064	20594
858.197	20739
858.331	20545
858.464	20598
858.597	20362
858.731	20545
858.864	20598
858.997	20720
859.13	20594
859.263	20602
859.396	20617
859.529	20594
859.662	20488
859.795	20590
859.928	20587
860.061	20689
860.194	20811
860.327	20636
860.46	20530
860.592	20613
860.725	20788
860.858	20632
860.99	20564
861.123	20571
861.256	20625
861.388	20590
861.521	21214
861.653	20465
861.786	20355
861.918	20556
862.05	20499
862.183	20454
862.315	20617
862.447	20720
862.58	20545
862.712	20332
862.844	20336
862.976	20355
863.108	20347
863.24	20731
863.372	20324
863.504	20191
863.636	20244
863.768	20454
863.9	20370
864.032	20199
864.164	20355
864.296	20332
864.428	20355
864.559	20240
864.691	20355
864.823	20358
864.954	20183
865.086	20256
865.217	20180
865.349	20153
865.48	20153
865.612	20161
865.743	20324
865.875	20240
866.006	20282
866.137	20199
866.269	20172
866.4	20088
866.531	20100
866.662	20005
866.793	20119
866.924	20142
867.055	20138
867.186	20195
867.317	20161
867.448	20088
867.579	20271
867.71	20065
867.841	20111
867.972	20180
868.103	20138
868.233	20244
868.364	20153
868.495	20252
868.625	20301
868.756	20476
868.886	20366
869.017	20347
869.147	20499
869.278	20465
869.408	20442
869.539	20286
869.669	20457
869.799	20476
869.929	20412
870.06	20545
870.19	20708
870.32	20678
870.45	20716
870.58	20750
870.71	20861
870.84	20887
870.97	20754
871.1	20739
871.23	20906
871.36	20910
871.489	20887
871.619	20956
871.749	20906
871.879	20994
872.008	21116
872.138	20956
872.267	21020
872.397	20762
872.526	20815
872.656	20826
872.785	20842
872.915	20967
873.044	21009
873.173	20941
873.303	21112
873.432	21032
873.561	21100
873.69	20963
873.819	20986
873.948	21058
874.077	21009
874.206	20906
874.335	21013
874.464	21013
874.593	21256
874.722	21192
874.851	21325
874.979	21245
875.108	21237
875.237	21108
875.365	21207
875.494	21283
875.623	21317
875.751	21332
875.88	21348
876.008	21291
876.136	21515
876.265	21652
876.393	21580
876.521	21755
876.65	21637
876.778	21610
876.906	21549
877.034	21431
877.162	21694
877.29	21534
877.418	21591
877.546	21644
877.674	21481
877.802	21682
877.93	21599
878.058	21454
878.185	21542
878.313	21553
878.441	21591
878.568	21424
878.696	21534
878.824	21564
878.951	21641
879.079	21705
879.206	21797
879.333	21743
879.461	21591
879.588	21679
879.715	21652
879.842	21934
879.97	21660
880.097	21443
880.224	21443
880.351	21538
880.478	21420
880.605	21393
880.732	21408
880.859	21629
880.986	21447
881.112	21348
881.239	21298
881.366	21142
881.493	21093
881.619	21051
881.746	20918
881.872	20933
881.999	20902
882.125	20937
882.252	21066
882.378	20960
882.505	20998
882.631	20914
882.757	20762
882.883	20849
883.01	20826
883.136	20651
883.262	20625
883.388	20640
883.514	20682
883.64	20762
883.766	20663
883.892	20461
884.018	20476
884.143	20705
884.269	20864
884.395	20457
884.52	20347
884.646	20473
884.772	20286
884.897	20381
885.023	20393
885.148	20518
885.274	20438
885.399	20476
885.524	20282
885.65	20434
885.775	20419
885.9	20370
886.025	20454
886.15	20522
886.275	20244
886.4	20320
886.525	20313
886.65	20290
886.775	20187
886.9	20328
887.025	20564
887.149	20351
887.274	20149
887.399	20237
887.523	20126
887.648	20142
887.773	20050
887.897	20240
888.021	20134
888.146	19959
888.27	20206
888.395	20252
888.519	20202
888.643	20020
888.767	20187
888.891	20043
889.015	19906
889.139	19967
889.263	19917
889.387	19955
889.511	20153
889.635	20111
889.759	19947
889.883	19917
890.006	19814
890.13	20005
890.254	19890
890.377	19757
890.501	19685
890.624	19556
890.748	19693
890.871	19571
890.995	19388
891.118	19472
891.241	19453
891.364	19529
891.488	19609
891.611	19586
891.734	19533
891.857	19605
891.98	19586
892.103	19521
892.226	19407
892.349	19567
892.471	19384
892.594	19434
892.717	19441
892.839	19392
892.962	19487
893.085	19502
893.207	19472
893.33	19320
893.452	19350
893.575	19514
893.697	19457
893.819	19689
893.941	19715
894.064	19502
894.186	19362
894.308	19324
894.43	19525
894.552	19571
894.674	19567
894.796	19316
894.918	19472
895.04	19392
895.161	19400
895.283	19464
895.405	19301
895.526	19403
895.648	19457
895.769	19495
895.891	19354
896.012	19544
896.134	19529
896.255	19502
896.376	19331
896.498	19540
896.619	19441
896.74	19453
896.861	19460
896.982	19750
897.103	19871
897.224	19658
897.345	19594
897.466	19540
897.587	19609
897.708	19715
897.828	19533
897.949	19491
898.07	19559
898.19	19540
898.311	19738
898.431	19578
898.552	19620
898.672	19685
898.792	19818
898.913	19643
899.033	19594
899.153	19457
899.273	19194
899.393	19400
899.513	19460
899.633	19324
899.753	19453
899.873	19339
899.993	19483
900.113	19282
900.232	19373
900.352	19304
900.472	19244
900.591	19183
900.711	19187
900.83	19183
900.95	19270
901.069	19274
901.189	19183
901.308	18993
901.427	18806
901.546	18837
901.665	18703
901.784	18703
901.904	18741
902.023	18559
902.141	18410
902.26	18239
902.379	18319
902.498	18311
902.617	18205
902.735	18232
902.854	18315
902.973	18167
903.091	17977
903.21	17973
903.328	17840
903.446	17840
903.565	17821
903.683	17745
903.801	17699
903.919	17779
904.038	17779
904.156	17535
904.274	17581
904.392	17596
904.51	17562
904.627	17467
904.745	17524
904.863	17623
904.981	17330
905.098	17220
905.216	17223
905.334	17254
905.451	17155
905.569	17071
905.686	17273
905.803	17170
905.921	16949
906.038	17067
906.155	17094
906.272	16976
906.389	16976
906.506	16824
906.623	16873
906.74	16774
906.857	16641
906.974	16702
907.091	16809
907.208	16858
907.324	16752
907.441	16668
907.557	16565
907.674	16402
907.79	16360
907.907	16459
908.023	16432
908.139	16470
908.256	16371
908.372	16386
908.488	16310
908.604	16166
908.72	16090
908.836	16204
908.952	16150
909.068	16177
909.184	16173
909.3	16090
909.415	16246
909.531	16071
909.647	15892
909.762	15812
909.878	15808
909.993	15926
910.108	15819
910.224	15880
910.339	15983
910.454	15720
910.57	15747
910.685	15606
910.8	15949
910.915	15717
911.03	15759
911.145	15485
911.259	15485
911.374	15454
911.489	15439
911.604	15325
911.718	15272
911.833	15226
911.947	15062
912.062	14998
912.176	15017
912.291	15036
912.405	15173
912.519	15321
912.633	15332
912.748	15195
912.862	15127
912.976	15024
913.09	14868
913.204	14952
913.318	14967
913.431	15093
913.545	15066
913.659	15013
913.772	14952
913.886	14849
914	14781
914.113	14918
914.226	14868
914.34	14872
914.453	14800
914.566	15020
914.68	14769
914.793	14629
914.906	14537
915.019	14446
915.132	14419
915.245	14469
915.358	14434
915.47	14514
915.583	14461
915.696	14465
915.809	14594
915.921	14556
916.034	14412
916.146	14332
916.259	14400
916.371	14545
916.483	14461
916.595	14298
916.708	14320
916.82	14309
916.932	14305
917.044	14278
917.156	14244
917.268	14210
917.38	14168
917.491	14119
917.603	14073
917.715	14183
917.826	14351
917.938	14096
918.049	13974
918.161	14035
918.272	14084
918.384	14191
918.495	14107
918.606	13925
918.717	13826
918.828	13997
918.939	13974
919.05	13772
919.161	13887
919.272	13666
919.383	13704
919.494	13955
919.604	14100
919.715	13894
919.826	13795
919.936	13925
920.047	13887
920.157	13830
920.267	14046
920.378	13944
920.488	13883
920.598	14008
920.708	14123
920.818	14084
920.928	13970
921.038	14134
921.148	14081
921.258	13776
921.368	13772
921.477	13658
921.587	13559
921.697	13407
921.806	13605
921.916	13422
922.025	13369
922.134	13293
922.244	13194
922.353	13236
922.462	13171
922.571	13050
922.68	12909
922.789	12867
922.898	12973
923.007	12863
923.116	12973
923.224	12829
923.333	12909
923.442	12753
923.55	12707
923.659	12673
923.767	12776
923.876	12734
923.984	12745
924.092	12620
924.201	12757
924.309	12696
924.417	12662
924.525	12570
924.633	12662
924.741	13304
924.849	12395
924.956	12513
925.064	12422
925.172	12296
925.279	12372
925.387	12464
925.494	12361
925.602	12547
925.709	12384
925.816	12338
925.924	12262
926.031	12391
926.138	12304
926.245	12342
926.352	12182
926.459	12311
926.566	12365
926.673	12228
926.779	12015
926.886	12133
926.993	11996
927.099	11870
927.206	11935
927.312	11893
927.419	11973
927.525	11950
927.631	11836
927.737	11794
927.843	11805
927.95	11695
928.056	11775
928.162	11779
928.267	11836
928.373	12304
928.479	11904
928.585	11516
928.69	11783
928.796	11870
928.901	11581
929.007	11493
929.112	11627
929.218	11512
929.323	11528
929.428	11402
929.533	11665
929.638	11490
929.743	11421
929.848	11512
929.953	11421
930.058	11341
930.163	11197
930.267	11265
930.372	11383
930.477	11162
930.581	11452
930.685	11239
930.79	11140
930.894	11025
930.998	11079
931.103	11185
931.207	10881
931.311	10687
931.415	10710
931.519	10504
931.623	10489
