Data from test_V78500241_2075.txt Node
Date: Fri Mar 25 15:24:18 CST 2022
User: usil
Spectrometer: V785-0024
Trigger mode: 0
Integration Time (sec): 4.000000E-1
Scans to average: 1
Nonlinearity correction enabled: false
Boxcar width: 0
Storing dark spectrum: false
XAxis mode: Wavelengths
Number of Pixels in Spectrum: 1024
>>>>>Begin Spectral Data<<<<<
801.071	27781
801.214	27720
801.356	27469
801.499	27614
801.641	27530
801.783	27420
801.926	27488
802.068	27272
802.211	27256
802.353	27188
802.496	26948
802.638	26925
802.78	26963
802.923	26788
803.065	26708
803.208	26960
803.35	26998
803.492	26963
803.635	27146
803.777	26929
803.919	27176
804.061	27466
804.204	27203
804.346	27222
804.488	26994
804.63	27176
804.773	27131
804.915	27313
805.057	27283
805.199	27176
805.341	27272
805.483	27310
805.626	27230
805.768	27169
805.91	27370
806.052	27397
806.194	27283
806.336	27447
806.478	27344
806.62	27195
806.762	27393
806.904	27477
807.046	27774
807.188	27561
807.33	27778
807.472	27652
807.614	27656
807.756	27675
807.898	27416
808.04	27466
808.182	27462
808.324	27633
808.465	27671
808.607	27755
808.749	27846
808.891	28021
809.033	28177
809.174	27869
809.316	28002
809.458	27873
809.6	27838
809.741	27934
809.883	28055
810.025	28230
810.166	28097
810.308	28147
810.45	28120
810.591	28086
810.733	27998
810.875	27884
811.016	27785
811.158	27846
811.299	27907
811.441	28029
811.582	27972
811.724	27808
811.865	27800
812.007	27880
812.148	27751
812.29	27945
812.431	28112
812.573	28303
812.714	28318
812.855	28318
812.997	28489
813.138	28531
813.279	28424
813.421	28360
813.562	28371
813.703	28177
813.845	28135
813.986	27781
814.127	27759
814.268	27641
814.41	27637
814.551	27481
814.692	27667
814.833	27481
814.974	27447
815.115	27534
815.256	27363
815.397	27500
815.539	27389
815.68	27310
815.821	27287
815.962	27313
816.103	27317
816.244	27306
816.385	27203
816.526	27199
816.666	26887
816.807	26838
816.948	26948
817.089	26982
817.23	26880
817.371	26830
817.512	26857
817.653	26925
817.793	26815
817.934	26796
818.075	26906
818.216	26785
818.356	26762
818.497	26792
818.638	26568
818.778	26564
818.919	26511
819.06	26667
819.2	26807
819.341	26686
819.481	27028
819.622	26979
819.762	27211
819.903	27127
820.043	26918
820.184	26891
820.324	27093
820.465	27024
820.605	26952
820.746	26990
820.886	26819
821.026	26956
821.167	26876
821.307	27017
821.447	26792
821.588	26910
821.728	26648
821.868	26465
822.008	26412
822.149	26332
822.289	26244
822.429	26092
822.569	26024
822.709	26084
822.849	25765
822.99	25875
823.13	25875
823.27	25841
823.41	25677
823.55	25453
823.69	25674
823.83	25780
823.97	25559
824.11	25502
824.25	25369
824.389	25537
824.529	25426
824.669	25544
824.809	25632
824.949	25594
825.089	25548
825.228	25597
825.368	25384
825.508	25392
825.648	25365
825.787	25316
825.927	25407
826.067	25422
826.206	25434
826.346	25362
826.485	25297
826.625	25251
826.765	25316
826.904	25289
827.044	25065
827.183	25110
827.323	25012
827.462	25152
827.601	25072
827.741	25065
827.88	25084
828.02	24947
828.159	25095
828.298	25069
828.437	25103
828.577	24791
828.716	25008
828.855	24989
828.994	24772
829.134	24852
829.273	24741
829.412	24635
829.551	24681
829.69	24722
829.829	24646
829.968	24833
830.107	24844
830.246	24726
830.385	24745
830.524	24498
830.663	24559
830.802	24563
830.941	24372
831.08	24308
831.219	24399
831.357	24429
831.496	24483
831.635	24315
831.774	24262
831.913	24235
832.051	24114
832.19	24129
832.329	24159
832.467	24026
832.606	24057
832.744	23931
832.883	24041
833.022	24057
833.16	23931
833.299	24091
833.437	24003
833.576	24125
833.714	24144
833.852	24171
833.991	24114
834.129	24068
834.267	24079
834.406	24144
834.544	24045
834.682	23992
834.821	24098
834.959	24072
835.097	23961
835.235	24018
835.373	23969
835.511	24003
835.65	23965
835.788	23893
835.926	23836
836.064	23798
836.202	23707
836.34	23916
836.478	24083
836.615	23992
836.753	23901
836.891	23984
837.029	23889
837.167	23802
837.305	23851
837.443	23790
837.58	23824
837.718	23855
837.856	23790
837.993	23608
838.131	23745
838.269	23615
838.406	23665
838.544	23558
838.681	23406
838.819	23334
838.956	23269
839.094	23242
839.231	23265
839.369	23429
839.506	23627
839.643	23501
839.781	23280
839.918	23159
840.055	23341
840.193	23197
840.33	23086
840.467	23227
840.604	23113
840.742	23383
840.879	22927
841.016	23056
841.153	23060
841.29	23284
841.427	23140
841.564	23166
841.701	23025
841.838	22984
841.975	23052
842.112	23029
842.249	22866
842.385	22904
842.522	23071
842.659	22881
842.796	22896
842.933	22892
843.069	22965
843.206	22862
843.343	23033
843.479	22976
843.616	22881
843.752	22683
843.889	22653
844.025	22816
844.162	22546
844.298	22782
844.435	22725
844.571	22569
844.708	22542
844.844	22702
844.98	22763
845.117	22755
845.253	22691
845.389	22554
845.525	22504
845.661	22504
845.798	22405
845.934	22481
846.07	22367
846.206	22459
846.342	22432
846.478	22215
846.614	22158
846.75	22040
846.886	22185
847.022	22143
847.158	22063
847.294	22147
847.429	22261
847.565	22093
847.701	22246
847.837	21888
847.972	21808
848.108	21960
848.244	21903
848.379	21736
848.515	21747
848.65	21682
848.786	21614
848.921	21717
849.057	21808
849.192	21781
849.328	21694
849.463	21671
849.598	21739
849.734	21561
849.869	21576
850.004	21492
850.14	21515
850.275	21652
850.41	21355
850.545	21359
850.68	21450
850.815	21447
850.95	21382
851.085	21603
851.22	21542
851.355	21473
851.49	21576
851.625	21523
851.76	21325
851.895	21374
852.03	21329
852.165	21310
852.299	21603
852.434	21572
852.569	21466
852.703	21534
852.838	21420
852.973	21542
853.107	21500
853.242	21408
853.376	21294
853.511	21233
853.645	21203
853.78	21382
853.914	21336
854.048	21306
854.183	21252
854.317	21275
854.451	21504
854.585	21214
854.72	21287
854.854	21310
854.988	21237
855.122	21405
855.256	21100
855.39	21291
855.524	21310
855.658	21393
855.792	21363
855.926	21336
856.06	21291
856.194	21439
856.327	21294
856.461	21332
856.595	21329
856.729	21226
856.862	21443
856.996	21351
857.13	21359
857.263	21310
857.397	21351
857.53	21302
857.664	21363
857.797	21431
857.931	21458
858.064	21317
858.197	21477
858.331	21214
858.464	21104
858.597	21252
858.731	21237
858.864	21363
858.997	21173
859.13	21344
859.263	21473
859.396	21298
859.529	21272
859.662	21294
859.795	21283
859.928	21302
860.061	21393
860.194	21466
860.327	21408
860.46	21405
860.592	21481
860.725	21473
860.858	21485
860.99	21233
861.123	21195
861.256	21218
861.388	21306
861.521	21835
861.653	21074
861.786	21009
861.918	21146
862.05	21176
862.183	21279
862.315	21249
862.447	21268
862.58	21287
862.712	21001
862.844	21123
862.976	21100
863.108	20990
863.24	21367
863.372	20864
863.504	21100
863.636	21028
863.768	20982
863.9	20941
864.032	20960
864.164	21020
864.296	21173
864.428	21074
864.559	21161
864.691	21009
864.823	21047
864.954	20990
865.086	21032
865.217	20967
865.349	20952
865.48	20933
865.612	20861
865.743	21005
865.875	20853
866.006	20815
866.137	21039
866.269	20796
866.4	20834
866.531	20914
866.662	20811
866.793	20834
866.924	20720
867.055	20895
867.186	20948
867.317	20807
867.448	20720
867.579	20823
867.71	20701
867.841	20804
867.972	20918
868.103	20861
868.233	20849
868.364	20815
868.495	21058
868.625	21100
868.756	21199
868.886	20956
869.017	21024
869.147	21272
869.278	21226
869.408	21154
869.539	21047
869.669	21123
869.799	21066
869.929	21066
870.06	21283
870.19	21420
870.32	21332
870.45	21378
870.58	21469
870.71	21450
870.84	21530
870.97	21439
871.1	21576
871.23	21629
871.36	21762
871.489	21553
871.619	21656
871.749	21625
871.879	21690
872.008	21797
872.138	21694
872.267	21599
872.397	21564
872.526	21538
872.656	21481
872.785	21580
872.915	21656
873.044	21781
873.173	21705
873.303	21629
873.432	21854
873.561	21717
873.69	21762
873.819	21557
873.948	21774
874.077	21766
874.206	21561
874.335	21663
874.464	21766
874.593	21895
874.722	21835
874.851	21994
874.979	22021
875.108	21941
875.237	21873
875.365	21774
875.494	21911
875.623	21941
875.751	21915
875.88	22002
876.008	21930
876.136	22116
876.265	22230
876.393	22481
876.521	22341
876.65	22344
876.778	22287
876.906	22314
877.034	22230
877.162	22291
877.29	22158
877.418	22371
877.546	22306
877.674	22299
877.802	22207
877.93	22299
878.058	22253
878.185	22226
878.313	22230
878.441	22196
878.568	22025
878.696	22295
878.824	22394
878.951	22379
879.079	22417
879.206	22538
879.333	22489
879.461	22249
879.588	22375
879.715	22405
879.842	22489
879.97	22333
880.097	22147
880.224	22078
880.351	22128
880.478	22055
880.605	22032
880.732	22029
880.859	22234
880.986	22090
881.112	22128
881.239	21953
881.366	21812
881.493	21831
881.619	21686
881.746	21743
881.872	21599
881.999	21641
882.125	21511
882.252	21759
882.378	21679
882.505	21747
882.631	21447
882.757	21363
882.883	21397
883.01	21386
883.136	21294
883.262	21256
883.388	21199
883.514	21412
883.64	21279
883.766	21169
883.892	21100
884.018	21131
884.143	21268
884.269	21351
884.395	21081
884.52	21013
884.646	21051
884.772	20982
884.897	20998
885.023	21066
885.148	21127
885.274	21085
885.399	21070
885.524	20929
885.65	21039
885.775	21020
885.9	20979
886.025	21089
886.15	21032
886.275	21032
886.4	20834
886.525	20906
886.65	20861
886.775	21043
886.9	21119
887.025	21245
887.149	20925
887.274	20876
887.399	20849
887.523	20720
887.648	20750
887.773	20788
887.897	20937
888.021	20746
888.146	20781
888.27	20857
888.395	20891
888.519	20750
888.643	20838
888.767	20838
888.891	20697
889.015	20579
889.139	20602
889.263	20518
889.387	20659
889.511	20636
889.635	20682
889.759	20590
889.883	20541
890.006	20644
890.13	20655
890.254	20423
890.377	20518
890.501	20396
890.624	20317
890.748	20313
890.871	20161
890.995	20130
891.118	20142
891.241	20187
891.364	20107
891.488	20275
891.611	20252
891.734	20168
891.857	20126
891.98	20199
892.103	20202
892.226	20176
892.349	20069
892.471	19925
892.594	20039
892.717	20103
892.839	19997
892.962	20138
893.085	20161
893.207	20077
893.33	20001
893.452	19909
893.575	20073
893.697	20107
893.819	20286
893.941	20168
894.064	20233
894.186	20008
894.308	19883
894.43	20138
894.552	20096
894.674	20164
894.796	20065
894.918	20126
895.04	20054
895.161	20122
895.283	20058
895.405	19993
895.526	20031
895.648	20050
895.769	19967
895.891	19982
896.012	20168
896.134	20172
896.255	19936
896.376	20035
896.498	20031
896.619	20039
896.74	20161
896.861	20024
896.982	20438
897.103	20442
897.224	20275
897.345	20221
897.466	20161
897.587	20240
897.708	20385
897.828	20221
897.949	20343
898.07	20081
898.19	20206
898.311	20328
898.431	20153
898.552	20259
898.672	20305
898.792	20370
898.913	20126
899.033	20122
899.153	20149
899.273	19902
899.393	20039
899.513	20073
899.633	20024
899.753	19932
899.873	19928
899.993	20043
900.113	19993
900.232	20020
900.352	19913
900.472	19993
900.591	19795
900.711	19871
900.83	19769
900.95	20012
901.069	19883
901.189	19765
901.308	19400
901.427	19396
901.546	19430
901.665	19400
901.784	19373
901.904	19164
902.023	19236
902.141	18913
902.26	18996
902.379	18951
902.498	18776
902.617	18768
902.735	18970
902.854	18825
902.973	18806
903.091	18574
903.21	18578
903.328	18696
903.446	18399
903.565	18380
903.683	18346
903.801	18266
903.919	18330
904.038	18391
904.156	18114
904.274	18270
904.392	18079
904.51	18045
904.627	18159
904.745	18254
904.863	18300
904.981	17920
905.098	17889
905.216	17843
905.334	17855
905.451	17809
905.569	17745
905.686	17828
905.803	17912
905.921	17589
906.038	17687
906.155	17699
906.272	17463
906.389	17532
906.506	17383
906.623	17376
906.74	17372
906.857	17204
906.974	17105
907.091	17372
907.208	17478
907.324	17421
907.441	17284
907.557	17056
907.674	17132
907.79	17048
907.907	17098
908.023	17045
908.139	17067
908.256	17094
908.372	16850
908.488	16930
908.604	16919
908.72	16812
908.836	16797
908.952	16778
909.068	16812
909.184	16900
909.3	16725
909.415	16793
909.531	16771
909.647	16603
909.762	16474
909.878	16432
909.993	16508
910.108	16519
910.224	16413
910.339	16459
910.454	16371
910.57	16318
910.685	16147
910.8	16508
910.915	16478
911.03	16379
911.145	16188
911.259	16128
911.374	16128
911.489	15945
911.604	15930
911.718	15846
911.833	15759
911.947	15603
912.062	15705
912.176	15800
912.291	15854
912.405	15816
912.519	15983
912.633	16006
912.748	15842
912.862	15876
912.976	15709
913.09	15526
913.204	15530
913.318	15732
913.431	15770
913.545	15770
913.659	15774
913.772	15618
913.886	15462
914	15450
914.113	15496
914.226	15606
914.34	15443
914.453	15348
914.566	15538
914.68	15310
914.793	15260
914.906	15131
915.019	15093
915.132	14925
915.245	15036
915.358	15062
915.47	15108
915.583	15066
915.696	15077
915.809	15157
915.921	15161
916.034	14998
916.146	14861
916.259	14975
916.371	15032
916.483	15093
916.595	14857
916.708	14952
916.82	14845
916.932	14838
917.044	14849
917.156	14823
917.268	14674
917.38	14705
917.491	14697
917.603	14670
917.715	14830
917.826	14701
917.938	14670
918.049	14526
918.161	14769
918.272	14754
918.384	14910
918.495	14583
918.606	14507
918.717	14454
918.828	14484
918.939	14522
919.05	14366
919.161	14461
919.272	14240
919.383	14332
919.494	14476
919.604	14663
919.715	14518
919.826	14381
919.936	14389
920.047	14457
920.157	14431
920.267	14530
920.378	14484
920.488	14473
920.598	14579
920.708	14686
920.818	14492
920.928	14556
921.038	14739
921.148	14651
921.258	14526
921.368	14332
921.477	14229
921.587	14054
921.697	14123
921.806	14229
921.916	13951
922.025	13894
922.134	13814
922.244	13693
922.353	13871
922.462	13776
922.571	13643
922.68	13392
922.789	13468
922.898	13445
923.007	13339
923.116	13548
923.224	13495
923.333	13438
923.442	13331
923.55	13206
923.659	13232
923.767	13270
923.876	13217
923.984	13304
924.092	13255
924.201	13247
924.309	13259
924.417	13171
924.525	13152
924.633	13114
924.741	13913
924.849	12939
924.956	13050
925.064	12932
925.172	12817
925.279	12894
925.387	12920
925.494	12913
925.602	12913
925.709	12935
925.816	12806
925.924	12817
926.031	12909
926.138	12890
926.245	12962
926.352	12715
926.459	12821
926.566	12905
926.673	12681
926.779	12623
926.886	12578
926.993	12502
927.099	12479
927.206	12372
927.312	12399
927.419	12448
927.525	12372
927.631	12414
927.737	12300
927.843	12289
927.95	12163
928.056	12254
928.162	12330
928.267	12365
928.373	12897
928.479	12403
928.585	12057
928.69	12254
928.796	12273
928.901	12155
929.007	12064
929.112	12106
929.218	12117
929.323	11942
929.428	11984
929.533	12136
929.638	11954
929.743	11965
929.848	11961
929.953	11908
930.058	11870
930.163	11615
930.267	11676
930.372	11821
930.477	11566
930.581	11946
930.685	11729
930.79	11554
930.894	11570
930.998	11455
931.103	11703
931.207	11254
931.311	11223
931.415	11166
931.519	11052
931.623	10885
