Data from test_V78500241_1395.txt Node
Date: Fri Mar 25 15:19:34 CST 2022
User: usil
Spectrometer: V785-0024
Trigger mode: 0
Integration Time (sec): 4.000000E-1
Scans to average: 1
Nonlinearity correction enabled: false
Boxcar width: 0
Storing dark spectrum: false
XAxis mode: Wavelengths
Number of Pixels in Spectrum: 1024
>>>>>Begin Spectral Data<<<<<
801.071	28147
801.214	28097
801.356	27747
801.499	27895
801.641	27557
801.783	27591
801.926	27701
802.068	27675
802.211	27641
802.353	27553
802.496	27416
802.638	27329
802.78	27348
802.923	27397
803.065	27359
803.208	27310
803.35	27298
803.492	27393
803.635	27447
803.777	27332
803.919	27534
804.061	27816
804.204	27599
804.346	27469
804.488	27454
804.63	27336
804.773	27420
804.915	27557
805.057	27682
805.199	27603
805.341	27557
805.483	27739
805.626	27625
805.768	27629
805.91	27701
806.052	27736
806.194	27492
806.336	27804
806.478	27633
806.62	27804
806.762	27774
806.904	27991
807.046	28169
807.188	27991
807.33	28086
807.472	28246
807.614	27991
807.756	27987
807.898	27945
808.04	27831
808.182	28013
808.324	27937
808.465	27972
808.607	28162
808.749	28322
808.891	28421
809.033	28554
809.174	28386
809.316	28322
809.458	28542
809.6	28287
809.741	28322
809.883	28478
810.025	28611
810.166	28729
810.308	28580
810.45	28618
810.591	28417
810.733	28470
810.875	28322
811.016	28131
811.158	28261
811.299	28489
811.441	28523
811.582	28542
811.724	28196
811.865	28405
812.007	28287
812.148	28211
812.29	28455
812.431	28401
812.573	28656
812.714	28809
812.855	28911
812.997	28934
813.138	29033
813.279	29136
813.421	28854
813.562	28915
813.703	28725
813.845	28660
813.986	28356
814.127	28082
814.268	27972
814.41	28017
814.551	28036
814.692	28059
814.833	27998
814.974	28021
815.115	28048
815.256	27934
815.397	28086
815.539	27797
815.68	27812
815.821	27759
815.962	27793
816.103	27895
816.244	27743
816.385	27660
816.526	27614
816.666	27469
816.807	27325
816.948	27492
817.089	27416
817.23	27306
817.371	27416
817.512	27260
817.653	27214
817.793	27317
817.934	27272
818.075	27195
818.216	27374
818.356	27340
818.497	27093
818.638	27096
818.778	27184
818.919	27150
819.06	27138
819.2	27146
819.341	27291
819.481	27317
819.622	27386
819.762	27629
819.903	27553
820.043	27534
820.184	27393
820.324	27485
820.465	27408
820.605	27557
820.746	27610
820.886	27359
821.026	27504
821.167	27519
821.307	27542
821.447	27355
821.588	27199
821.728	27127
821.868	26910
822.008	26948
822.149	26720
822.289	26705
822.429	26537
822.569	26412
822.709	26537
822.849	26267
822.99	26351
823.13	26237
823.27	26317
823.41	26065
823.55	26027
823.69	26225
823.83	26157
823.97	25997
824.11	25970
824.25	25887
824.389	26016
824.529	25997
824.669	25986
824.809	26126
824.949	26031
825.089	26050
825.228	25993
825.368	25894
825.508	25753
825.648	25830
825.787	25898
825.927	25906
826.067	25772
826.206	25742
826.346	25928
826.485	25913
826.625	25784
826.765	25906
826.904	25917
827.044	25556
827.183	25704
827.323	25499
827.462	25624
827.601	25502
827.741	25537
827.88	25537
828.02	25479
828.159	25559
828.298	25632
828.437	25666
828.577	25563
828.716	25556
828.855	25392
828.994	25236
829.134	25255
829.273	25289
829.412	25236
829.551	25118
829.69	25129
829.829	25263
829.968	25358
830.107	25247
830.246	25247
830.385	25168
830.524	25190
830.663	24977
830.802	24966
830.941	24791
831.08	24856
831.219	24882
831.357	25023
831.496	25156
831.635	24890
831.774	24890
831.913	24749
832.051	24703
832.19	24669
832.329	24601
832.467	24658
832.606	24692
832.744	24429
832.883	24623
833.022	24547
833.16	24585
833.299	24749
833.437	24547
833.576	24555
833.714	24616
833.852	24528
833.991	24597
834.129	24730
834.267	24665
834.406	24597
834.544	24654
834.682	24760
834.821	24654
834.959	24863
835.097	24399
835.235	24593
835.373	24703
835.511	24547
835.65	24433
835.788	24456
835.926	24254
836.064	24270
836.202	24266
836.34	24429
836.478	24509
836.615	24376
836.753	24357
836.891	24441
837.029	24441
837.167	24327
837.305	24342
837.443	24224
837.58	24182
837.718	24243
837.856	24266
837.993	24167
838.131	24235
838.269	24064
838.406	24140
838.544	24057
838.681	24015
838.819	24049
838.956	23691
839.094	23722
839.231	23604
839.369	23931
839.506	24091
839.643	23927
839.781	23786
839.918	23657
840.055	23680
840.193	23741
840.33	23539
840.467	23722
840.604	23615
840.742	23847
840.879	23566
841.016	23577
841.153	23589
841.29	23745
841.427	23779
841.564	23665
841.701	23665
841.838	23528
841.975	23573
842.112	23433
842.249	23493
842.385	23383
842.522	23657
842.659	23406
842.796	23387
842.933	23444
843.069	23299
843.206	23402
843.343	23436
843.479	23391
843.616	23391
843.752	23216
843.889	23113
844.025	23246
844.162	23261
844.298	23151
844.435	23174
844.571	23170
844.708	23200
844.844	23117
844.98	23303
845.117	23174
845.253	23086
845.389	22965
845.525	22976
845.661	23105
845.798	22847
845.934	22900
846.07	22854
846.206	22881
846.342	23022
846.478	22854
846.614	22656
846.75	22542
846.886	22451
847.022	22611
847.158	22622
847.294	22637
847.429	22706
847.565	22698
847.701	22850
847.837	22382
847.972	22375
848.108	22527
848.244	22432
848.379	22219
848.515	22211
848.65	22196
848.786	22177
848.921	22207
849.057	22299
849.192	22356
849.328	22325
849.463	22215
849.598	22181
849.734	22070
849.869	22070
850.004	22006
850.14	22044
850.275	21968
850.41	21903
850.545	21846
850.68	21930
850.815	21998
850.95	21907
851.085	22150
851.22	22051
851.355	21949
851.49	21926
851.625	22013
851.76	21899
851.895	21789
852.03	21911
852.165	21956
852.299	21934
852.434	22101
852.569	22006
852.703	22048
852.838	21964
852.973	22097
853.107	22078
853.242	21953
853.376	21827
853.511	21553
853.645	21789
853.78	21850
853.914	21835
854.048	21656
854.183	21755
854.317	21804
854.451	21869
854.585	21690
854.72	21846
854.854	21850
854.988	21698
855.122	21816
855.256	21656
855.39	21743
855.524	21819
855.658	21800
855.792	21907
855.926	21774
856.06	21888
856.194	21918
856.327	21751
856.461	21759
856.595	21770
856.729	21823
856.862	21861
856.996	21770
857.13	21850
857.263	21903
857.397	21892
857.53	21686
857.664	21899
857.797	21755
857.931	21918
858.064	21850
858.197	21953
858.331	21812
858.464	21690
858.597	21709
858.731	21739
858.864	21648
858.997	21694
859.13	21705
859.263	21762
859.396	21899
859.529	21675
859.662	21698
859.795	21663
859.928	21819
860.061	21895
860.194	21937
860.327	21850
860.46	21800
860.592	21869
860.725	21903
860.858	21899
860.99	21793
861.123	21717
861.256	21633
861.388	21759
861.521	22371
861.653	21728
861.786	21557
861.918	21625
862.05	21667
862.183	21759
862.315	21644
862.447	21846
862.58	21618
862.712	21557
862.844	21443
862.976	21587
863.108	21553
863.24	21781
863.372	21393
863.504	21447
863.636	21412
863.768	21595
863.9	21469
864.032	21431
864.164	21473
864.296	21519
864.428	21576
864.559	21462
864.691	21519
864.823	21462
864.954	21549
865.086	21519
865.217	21332
865.349	21382
865.48	21363
865.612	21283
865.743	21397
865.875	21488
866.006	21321
866.137	21389
866.269	21370
866.4	21378
866.531	21298
866.662	21348
866.793	21397
866.924	21214
867.055	21275
867.186	21195
867.317	21233
867.448	21237
867.579	21230
867.71	21211
867.841	21093
867.972	21313
868.103	21351
868.233	21351
868.364	21408
868.495	21367
868.625	21583
868.756	21622
868.886	21568
869.017	21374
869.147	21587
869.278	21629
869.408	21572
869.539	21641
869.669	21572
869.799	21595
869.929	21686
870.06	21610
870.19	21880
870.32	21770
870.45	21800
870.58	21941
870.71	22086
870.84	22055
870.97	21899
871.1	21956
871.23	22032
871.36	22147
871.489	22036
871.619	22051
871.749	22067
871.879	22200
872.008	22181
872.138	22188
872.267	22124
872.397	22074
872.526	22017
872.656	22070
872.785	21937
872.915	22135
873.044	22120
873.173	22150
873.303	22204
873.432	22207
873.561	22485
873.69	22230
873.819	22124
873.948	22272
874.077	22169
874.206	22116
874.335	22044
874.464	22192
874.593	22280
874.722	22341
874.851	22436
874.979	22478
875.108	22424
875.237	22291
875.365	22131
875.494	22322
875.623	22356
875.751	22329
875.88	22356
876.008	22413
876.136	22626
876.265	22660
876.393	22896
876.521	22835
876.65	22759
876.778	22748
876.906	22740
877.034	22664
877.162	22763
877.29	22637
877.418	22740
877.546	22668
877.674	22717
877.802	22641
877.93	22679
878.058	22717
878.185	22596
878.313	22740
878.441	22675
878.568	22580
878.696	22744
878.824	22736
878.951	22778
879.079	22873
879.206	23041
879.333	22850
879.461	22729
879.588	22672
879.715	22885
879.842	22949
879.97	22717
880.097	22554
880.224	22508
880.351	22618
880.478	22649
880.605	22478
880.732	22577
880.859	22755
880.986	22668
881.112	22577
881.239	22348
881.366	22265
881.493	22242
881.619	22185
881.746	22093
881.872	22147
881.999	22112
882.125	22139
882.252	22150
882.378	22086
882.505	22249
882.631	22025
882.757	21739
882.883	21808
883.01	21774
883.136	21766
883.262	21648
883.388	21561
883.514	21770
883.64	21903
883.766	21694
883.892	21477
884.018	21561
884.143	21705
884.269	21812
884.395	21523
884.52	21348
884.646	21485
884.772	21310
884.897	21424
885.023	21435
885.148	21435
885.274	21534
885.399	21545
885.524	21294
885.65	21526
885.775	21397
885.9	21317
886.025	21485
886.15	21587
886.275	21378
886.4	21416
886.525	21332
886.65	21321
886.775	21283
886.9	21435
887.025	21720
887.149	21260
887.274	21192
887.399	21344
887.523	21268
887.648	21070
887.773	21119
887.897	21260
888.021	21283
888.146	21195
888.27	21268
888.395	21218
888.519	21230
888.643	21214
888.767	21252
888.891	21207
889.015	20906
889.139	20998
889.263	20914
889.387	21066
889.511	21241
889.635	21150
889.759	21013
889.883	21051
890.006	20918
890.13	21089
890.254	20819
890.377	20918
890.501	20796
890.624	20785
890.748	20777
890.871	20655
890.995	20609
891.118	20442
891.241	20461
891.364	20530
891.488	20590
891.611	20590
891.734	20537
891.857	20659
891.98	20663
892.103	20651
892.226	20549
892.349	20492
892.471	20385
892.594	20431
892.717	20370
892.839	20393
892.962	20415
893.085	20446
893.207	20446
893.33	20450
893.452	20282
893.575	20484
893.697	20450
893.819	20571
893.941	20587
894.064	20609
894.186	20366
894.308	20347
894.43	20575
894.552	20602
894.674	20560
894.796	20240
894.918	20404
895.04	20404
895.161	20389
895.283	20446
895.405	20415
895.526	20400
895.648	20396
895.769	20571
895.891	20374
896.012	20530
896.134	20423
896.255	20393
896.376	20389
896.498	20381
896.619	20358
896.74	20412
896.861	20511
896.982	20785
897.103	20838
897.224	20552
897.345	20693
897.466	20499
897.587	20575
897.708	20811
897.828	20670
897.949	20602
898.07	20469
898.19	20556
898.311	20693
898.431	20598
898.552	20556
898.672	20762
898.792	20705
898.913	20602
899.033	20511
899.153	20442
899.273	20358
899.393	20362
899.513	20370
899.633	20450
899.753	20507
899.873	20362
899.993	20389
900.113	20252
900.232	20370
900.352	20256
900.472	20233
900.591	20210
900.711	20138
900.83	20073
900.95	20202
901.069	20324
901.189	20092
901.308	19772
901.427	19757
901.546	19693
901.665	19738
901.784	19837
901.904	19556
902.023	19506
902.141	19320
902.26	19324
902.379	19354
902.498	19373
902.617	19209
902.735	19327
902.854	19266
902.973	19084
903.091	19012
903.21	18916
903.328	18878
903.446	18791
903.565	18741
903.683	18707
903.801	18669
903.919	18654
904.038	18620
904.156	18483
904.274	18616
904.392	18357
904.51	18513
904.627	18479
904.745	18486
904.863	18426
904.981	18235
905.098	18201
905.216	18136
905.334	18140
905.451	18129
905.569	18182
905.686	18186
905.803	18034
905.921	17840
906.038	17851
906.155	17935
906.272	17882
906.389	17843
906.506	17893
906.623	17600
906.74	17676
906.857	17623
906.974	17630
907.091	17684
907.208	17828
907.324	17786
907.441	17608
907.557	17452
907.674	17284
907.79	17341
907.907	17387
908.023	17406
908.139	17372
908.256	17341
908.372	17273
908.488	17197
908.604	17079
908.72	17086
908.836	17079
908.952	17064
909.068	17060
909.184	17231
909.3	17098
909.415	17083
909.531	17056
909.647	16896
909.762	16847
909.878	16790
909.993	16801
910.108	16869
910.224	16721
910.339	16801
910.454	16622
910.57	16668
910.685	16440
910.8	16809
910.915	16778
911.03	16561
911.145	16523
911.259	16394
911.374	16481
911.489	16329
911.604	16337
911.718	16116
911.833	16154
911.947	16029
912.062	15998
912.176	16154
912.291	16169
912.405	16116
912.519	16299
912.633	16242
912.748	16226
912.862	16166
912.976	15945
913.09	15903
913.204	15918
913.318	16048
913.431	16120
913.545	16002
913.659	16063
913.772	16002
913.886	15739
914	15759
914.113	15778
914.226	15755
914.34	15918
914.453	15580
914.566	15812
914.68	15568
914.793	15637
914.906	15447
915.019	15370
915.132	15393
915.245	15218
915.358	15435
915.47	15386
915.583	15272
915.696	15435
915.809	15466
915.921	15519
916.034	15138
916.146	15268
916.259	15237
916.371	15332
916.483	15302
916.595	15100
916.708	15161
916.82	15252
916.932	15131
917.044	15150
917.156	15119
917.268	15013
917.38	15066
917.491	15119
917.603	15036
917.715	15032
917.826	15020
917.938	15028
918.049	14868
918.161	14895
918.272	15028
918.384	14925
918.495	14956
918.606	14777
918.717	14682
918.828	14811
918.939	14769
919.05	14720
919.161	14674
919.272	14564
919.383	14632
919.494	14777
919.604	14880
919.715	14762
919.826	14651
919.936	14689
920.047	14792
920.157	14663
920.267	14845
920.378	14765
920.488	14549
920.598	14887
920.708	14986
920.818	14880
920.928	14864
921.038	14937
921.148	14902
921.258	14716
921.368	14526
921.477	14465
921.587	14431
921.697	14320
921.806	14408
921.916	14355
922.025	14092
922.134	14092
922.244	14062
922.353	14100
922.462	14016
922.571	13932
922.68	13727
922.789	13681
922.898	13723
923.007	13674
923.116	13803
923.224	13734
923.333	13597
923.442	13578
923.55	13590
923.659	13643
923.767	13605
923.876	13521
923.984	13567
924.092	13430
924.201	13468
924.309	13438
924.417	13559
924.525	13312
924.633	13388
924.741	14046
924.849	13175
924.956	13335
925.064	13149
925.172	13091
925.279	13118
925.387	13137
925.494	13137
925.602	13221
925.709	13103
925.816	13023
925.924	13118
926.031	13213
926.138	13133
926.245	13076
926.352	13004
926.459	13042
926.566	13110
926.673	12985
926.779	12764
926.886	12817
926.993	12684
927.099	12753
927.206	12692
927.312	12654
927.419	12776
927.525	12646
927.631	12681
927.737	12612
927.843	12517
927.95	12327
928.056	12483
928.162	12467
928.267	12467
928.373	13076
928.479	12471
928.585	12467
928.69	12490
928.796	12544
928.901	12323
929.007	12216
929.112	12460
929.218	12315
929.323	12304
929.428	12175
929.533	12376
929.638	12148
929.743	12178
929.848	12224
929.953	12163
930.058	12110
930.163	11977
930.267	11923
930.372	11973
930.477	11897
930.581	12091
930.685	11954
930.79	11794
930.894	11859
930.998	11809
931.103	11954
931.207	11562
931.311	11433
931.415	11417
931.519	11159
931.623	11212
