Data from test_V78500241_1651.txt Node
Date: Fri Mar 25 15:21:21 CST 2022
User: usil
Spectrometer: V785-0024
Trigger mode: 0
Integration Time (sec): 4.000000E-1
Scans to average: 1
Nonlinearity correction enabled: false
Boxcar width: 0
Storing dark spectrum: false
XAxis mode: Wavelengths
Number of Pixels in Spectrum: 1024
>>>>>Begin Spectral Data<<<<<
801.071	27857
801.214	27842
801.356	27686
801.499	27576
801.641	27329
801.783	27420
801.926	27447
802.068	27435
802.211	27386
802.353	27382
802.496	27131
802.638	27058
802.78	27157
802.923	26910
803.065	26956
803.208	27009
803.35	27157
803.492	27199
803.635	27325
803.777	27135
803.919	27199
804.061	27488
804.204	27355
804.346	27192
804.488	27104
804.63	27302
804.773	27123
804.915	27340
805.057	27439
805.199	27287
805.341	27553
805.483	27249
805.626	27458
805.768	27256
805.91	27382
806.052	27397
806.194	27275
806.336	27633
806.478	27481
806.62	27427
806.762	27553
806.904	27747
807.046	27895
807.188	27819
807.33	27724
807.472	27812
807.614	27728
807.756	27808
807.898	27644
808.04	27736
808.182	27732
808.324	27686
808.465	27774
808.607	27987
808.749	27972
808.891	28093
809.033	28280
809.174	28059
809.316	27979
809.458	28025
809.6	27979
809.741	28116
809.883	28147
810.025	28363
810.166	28268
810.308	28287
810.45	28272
810.591	28166
810.733	28078
810.875	28223
811.016	27888
811.158	27892
811.299	28074
811.441	28109
811.582	28181
811.724	28196
811.865	27991
812.007	28044
812.148	28021
812.29	27975
812.431	28249
812.573	28299
812.714	28344
812.855	28618
812.997	28687
813.138	28782
813.279	28733
813.421	28641
813.562	28512
813.703	28382
813.845	28310
813.986	28135
814.127	27812
814.268	27660
814.41	27785
814.551	27580
814.692	27812
814.833	27549
814.974	27622
815.115	27641
815.256	27606
815.397	27625
815.539	27591
815.68	27553
815.821	27538
815.962	27511
816.103	27485
816.244	27374
816.385	27268
816.526	27287
816.666	27207
816.807	26971
816.948	26952
817.089	26979
817.23	27058
817.371	27043
817.512	26975
817.653	26960
817.793	27039
817.934	27039
818.075	27024
818.216	26963
818.356	26944
818.497	26853
818.638	26792
818.778	26785
818.919	26883
819.06	26925
819.2	26887
819.341	26857
819.481	27024
819.622	27173
819.762	27321
819.903	27283
820.043	27279
820.184	27116
820.324	27127
820.465	27184
820.605	27146
820.746	27138
820.886	26872
821.026	27127
821.167	27032
821.307	27256
821.447	27017
821.588	26967
821.728	26804
821.868	26769
822.008	26453
822.149	26514
822.289	26461
822.429	26275
822.569	26263
822.709	26233
822.849	26043
822.99	26039
823.13	26016
823.27	25906
823.41	25757
823.55	25776
823.69	25841
823.83	25818
823.97	25761
824.11	25537
824.25	25601
824.389	25624
824.529	25685
824.669	25700
824.809	25727
824.949	25769
825.089	25696
825.228	25639
825.368	25544
825.508	25415
825.648	25525
825.787	25628
825.927	25655
826.067	25476
826.206	25590
826.346	25510
826.485	25518
826.625	25464
826.765	25521
826.904	25529
827.044	25209
827.183	25335
827.323	25225
827.462	25225
827.601	25225
827.741	25141
827.88	25232
828.02	25110
828.159	25183
828.298	25240
828.437	25072
828.577	25175
828.716	25282
828.855	25008
828.994	24935
829.134	24905
829.273	25038
829.412	24985
829.551	24920
829.69	24973
829.829	24962
829.968	24920
830.107	25095
830.246	25031
830.385	24856
830.524	24726
830.663	24642
830.802	24658
830.941	24582
831.08	24414
831.219	24677
831.357	24635
831.496	24753
831.635	24593
831.774	24570
831.913	24471
832.051	24289
832.19	24292
832.329	24365
832.467	24174
832.606	24281
832.744	24201
832.883	24140
833.022	24167
833.16	24121
833.299	24216
833.437	24220
833.576	24388
833.714	24186
833.852	24232
833.991	24346
834.129	24315
834.267	24266
834.406	24289
834.544	24277
834.682	24376
834.821	24262
834.959	24426
835.097	24201
835.235	24304
835.373	24213
835.511	24266
835.65	24026
835.788	24087
835.926	24057
836.064	23916
836.202	23927
836.34	24121
836.478	24121
836.615	24030
836.753	24182
836.891	24197
837.029	24251
837.167	23977
837.305	24030
837.443	24018
837.58	23870
837.718	24148
837.856	23984
837.993	23923
838.131	23980
838.269	23767
838.406	23824
838.544	23729
838.681	23649
838.819	23429
838.956	23414
839.094	23497
839.231	23554
839.369	23665
839.506	23874
839.643	23551
839.781	23543
839.918	23360
840.055	23520
840.193	23258
840.33	23227
840.467	23387
840.604	23318
840.742	23562
840.879	23197
841.016	23235
841.153	23261
841.29	23379
841.427	23341
841.564	23341
841.701	23356
841.838	23269
841.975	23258
842.112	23235
842.249	23109
842.385	23136
842.522	23246
842.659	23128
842.796	23136
842.933	23056
843.069	23048
843.206	23102
843.343	23162
843.479	23037
843.616	23022
843.752	22809
843.889	22934
844.025	23029
844.162	22866
844.298	22892
844.435	22828
844.571	22812
844.708	22946
844.844	23044
844.98	23086
845.117	22930
845.253	22786
845.389	22805
845.525	22752
845.661	22740
845.798	22497
845.934	22580
846.07	22649
846.206	22618
846.342	22672
846.478	22519
846.614	22428
846.75	22356
846.886	22295
847.022	22386
847.158	22322
847.294	22333
847.429	22390
847.565	22360
847.701	22630
847.837	22067
847.972	21991
848.108	22112
848.244	22093
848.379	22048
848.515	21895
848.65	21991
848.786	21964
848.921	21998
849.057	22090
849.192	22010
849.328	21934
849.463	21922
849.598	21876
849.734	21781
849.869	21759
850.004	21663
850.14	21766
850.275	21667
850.41	21629
850.545	21542
850.68	21705
850.815	21660
850.95	21701
851.085	21873
851.22	21713
851.355	21835
851.49	21591
851.625	21633
851.76	21583
851.895	21545
852.03	21549
852.165	21705
852.299	21545
852.434	21751
852.569	21785
852.703	21709
852.838	21781
852.973	21739
853.107	21842
853.242	21698
853.376	21583
853.511	21370
853.645	21511
853.78	21671
853.914	21393
854.048	21504
854.183	21481
854.317	21507
854.451	21694
854.585	21542
854.72	21511
854.854	21576
854.988	21450
855.122	21561
855.256	21424
855.39	21572
855.524	21568
855.658	21481
855.792	21549
855.926	21473
856.06	21614
856.194	21686
856.327	21462
856.461	21397
856.595	21614
856.729	21454
856.862	21557
856.996	21606
857.13	21614
857.263	21568
857.397	21580
857.53	21622
857.664	21561
857.797	21614
857.931	21564
858.064	21515
858.197	21583
858.331	21488
858.464	21302
858.597	21249
858.731	21515
858.864	21412
858.997	21469
859.13	21583
859.263	21420
859.396	21599
859.529	21485
859.662	21568
859.795	21397
859.928	21488
860.061	21667
860.194	21625
860.327	21466
860.46	21469
860.592	21587
860.725	21603
860.858	21625
860.99	21549
861.123	21420
861.256	21511
861.388	21523
861.521	22188
861.653	21435
861.786	21252
861.918	21401
862.05	21412
862.183	21473
862.315	21351
862.447	21488
862.58	21507
862.712	21173
862.844	21230
862.976	21329
863.108	21393
863.24	21416
863.372	21222
863.504	21146
863.636	21199
863.768	21176
863.9	21268
864.032	21161
864.164	21241
864.296	21165
864.428	21310
864.559	21275
864.691	21272
864.823	21264
864.954	21176
865.086	21180
865.217	21226
865.349	20952
865.48	21218
865.612	21150
865.743	21154
865.875	21005
866.006	21028
866.137	21195
866.269	21112
866.4	21176
866.531	21070
866.662	20960
866.793	21028
866.924	21036
867.055	21096
867.186	21058
867.317	21017
867.448	20956
867.579	20948
867.71	21020
867.841	21074
867.972	20982
868.103	21028
868.233	21123
868.364	21066
868.495	21127
868.625	21127
868.756	21431
868.886	21195
869.017	21252
869.147	21443
869.278	21466
869.408	21283
869.539	21214
869.669	21382
869.799	21340
869.929	21367
870.06	21302
870.19	21526
870.32	21580
870.45	21599
870.58	21641
870.71	21751
870.84	21823
870.97	21713
871.1	21679
871.23	21770
871.36	21819
871.489	21762
871.619	21869
871.749	21850
871.879	21857
872.008	21960
872.138	21922
872.267	21953
872.397	21774
872.526	21739
872.656	21709
872.785	21663
872.915	21842
873.044	21960
873.173	21857
873.303	21884
873.432	21850
873.561	21876
873.69	21968
873.819	21812
873.948	22059
874.077	21907
874.206	21724
874.335	21895
874.464	22013
874.593	22112
874.722	22166
874.851	22192
874.979	22112
875.108	22055
875.237	22055
875.365	22017
875.494	22067
875.623	22124
875.751	22192
875.88	22093
876.008	22185
876.136	22291
876.265	22440
876.393	22588
876.521	22573
876.65	22527
876.778	22523
876.906	22455
877.034	22440
877.162	22459
877.29	22333
877.418	22459
877.546	22379
877.674	22402
877.802	22542
877.93	22440
878.058	22405
878.185	22325
878.313	22363
878.441	22485
878.568	22246
878.696	22386
878.824	22459
878.951	22569
879.079	22519
879.206	22668
879.333	22637
879.461	22512
879.588	22565
879.715	22656
879.842	22721
879.97	22432
880.097	22303
880.224	22409
880.351	22375
880.478	22215
880.605	22200
880.732	22287
880.859	22500
880.986	22238
881.112	22226
881.239	22097
881.366	22124
881.493	21899
881.619	21827
881.746	22017
881.872	21876
881.999	21816
882.125	21778
882.252	21789
882.378	21884
882.505	22002
882.631	21793
882.757	21591
882.883	21698
883.01	21656
883.136	21633
883.262	21530
883.388	21329
883.514	21561
883.64	21542
883.766	21564
883.892	21321
884.018	21378
884.143	21466
884.269	21572
884.395	21260
884.52	21127
884.646	21233
884.772	21131
884.897	21047
885.023	21222
885.148	21378
885.274	21313
885.399	21348
885.524	21173
885.65	21233
885.775	21203
885.9	21131
886.025	21207
886.15	21237
886.275	21218
886.4	21089
886.525	21138
886.65	21116
886.775	21150
886.9	21249
887.025	21370
887.149	21192
887.274	20990
887.399	21036
887.523	21058
887.648	20800
887.773	20807
887.897	21036
888.021	20956
888.146	20853
888.27	21070
888.395	21024
888.519	21066
888.643	21017
888.767	21043
888.891	20800
889.015	20701
889.139	20781
889.263	20705
889.387	20834
889.511	20921
889.635	20910
889.759	20739
889.883	20705
890.006	20849
890.13	20918
890.254	20682
890.377	20754
890.501	20625
890.624	20552
890.748	20613
890.871	20408
890.995	20336
891.118	20415
891.241	20320
891.364	20442
891.488	20457
891.611	20332
891.734	20294
891.857	20294
891.98	20400
892.103	20393
892.226	20393
892.349	20381
892.471	20164
892.594	20290
892.717	20339
892.839	20225
892.962	20210
893.085	20336
893.207	20267
893.33	20145
893.452	20119
893.575	20267
893.697	20172
893.819	20275
893.941	20457
894.064	20298
894.186	20202
894.308	20103
894.43	20374
894.552	20332
894.674	20408
894.796	20271
894.918	20191
895.04	20263
895.161	20290
895.283	20324
895.405	20244
895.526	20301
895.648	20218
895.769	20122
895.891	20290
896.012	20301
896.134	20210
896.255	20191
896.376	20126
896.498	20377
896.619	20351
896.74	20237
896.861	20343
896.982	20594
897.103	20632
897.224	20606
897.345	20393
897.466	20412
897.587	20431
897.708	20648
897.828	20476
897.949	20431
898.07	20271
898.19	20309
898.311	20499
898.431	20393
898.552	20457
898.672	20465
898.792	20533
898.913	20465
899.033	20412
899.153	20286
899.273	20237
899.393	20275
899.513	20240
899.633	20195
899.753	20286
899.873	20294
899.993	20176
900.113	20100
900.232	20210
900.352	20145
900.472	19986
900.591	19875
900.711	19928
900.83	19814
900.95	20096
901.069	20100
901.189	19902
901.308	19681
901.427	19548
901.546	19544
901.665	19563
901.784	19552
901.904	19377
902.023	19392
902.141	19225
902.26	19118
902.379	19183
902.498	19080
902.617	18951
902.735	19091
902.854	19061
902.973	18890
903.091	18871
903.21	18783
903.328	18779
903.446	18700
903.565	18525
903.683	18578
903.801	18422
903.919	18445
904.038	18498
904.156	18258
904.274	18414
904.392	18380
904.51	18243
904.627	18277
904.745	18308
904.863	18384
904.981	18171
905.098	17958
905.216	17923
905.334	18030
905.451	18060
905.569	18038
905.686	17988
905.803	18019
905.921	17745
906.038	17843
906.155	17726
906.272	17554
906.389	17783
906.506	17471
906.623	17589
906.74	17562
906.857	17410
906.974	17459
907.091	17554
907.208	17680
907.324	17463
907.441	17353
907.557	17235
907.674	17258
907.79	17216
907.907	17166
908.023	17269
908.139	17299
908.256	17181
908.372	17136
908.488	17067
908.604	16915
908.72	16938
908.836	16892
908.952	16927
909.068	16843
909.184	17090
909.3	17003
909.415	16828
909.531	17006
909.647	16752
909.762	16694
909.878	16637
909.993	16637
910.108	16660
910.224	16607
910.339	16664
910.454	16611
910.57	16508
910.685	16409
910.8	16694
910.915	16459
911.03	16360
911.145	16207
911.259	16291
911.374	16314
911.489	16204
911.604	16090
911.718	16021
911.833	15998
911.947	15880
912.062	15785
912.176	15979
912.291	15953
912.405	15899
912.519	16234
912.633	16128
912.748	16063
912.862	16013
912.976	15876
913.09	15728
913.204	15816
913.318	15808
913.431	15892
913.545	15895
913.659	15797
913.772	15774
913.886	15557
914	15641
914.113	15694
914.226	15724
914.34	15717
914.453	15500
914.566	15656
914.68	15549
914.793	15374
914.906	15275
915.019	15226
915.132	15123
915.245	15150
915.358	15241
915.47	15275
915.583	15207
915.696	15230
915.809	15313
915.921	15348
916.034	15100
916.146	15047
916.259	15093
916.371	15203
916.483	15138
916.595	15077
916.708	15024
916.82	15024
916.932	15097
917.044	14994
917.156	14925
917.268	14887
917.38	14785
917.491	14826
917.603	14861
917.715	14929
917.826	14921
917.938	14800
918.049	14648
918.161	14826
918.272	14880
918.384	14910
918.495	14887
918.606	14655
918.717	14579
918.828	14693
918.939	14552
919.05	14514
919.161	14587
919.272	14381
919.383	14469
919.494	14583
919.604	14842
919.715	14583
919.826	14446
919.936	14518
920.047	14621
920.157	14537
920.267	14708
920.378	14583
920.488	14507
920.598	14785
920.708	14918
920.818	14644
920.928	14727
921.038	14785
921.148	14773
921.258	14522
921.368	14419
921.477	14263
921.587	14309
921.697	14218
921.806	14317
921.916	14221
922.025	13982
922.134	13967
922.244	14005
922.353	14081
922.462	13799
922.571	13803
922.68	13689
922.789	13605
922.898	13559
923.007	13533
923.116	13636
923.224	13529
923.333	13510
923.442	13468
923.55	13388
923.659	13449
923.767	13487
923.876	13430
923.984	13514
924.092	13274
924.201	13384
924.309	13316
924.417	13339
924.525	13293
924.633	13301
924.741	14180
924.849	13031
924.956	13232
925.064	13084
925.172	12962
925.279	13015
925.387	13118
925.494	13110
925.602	13156
925.709	13057
925.816	12920
925.924	12928
926.031	13072
926.138	12871
926.245	12958
926.352	12833
926.459	12932
926.566	13000
926.673	12875
926.779	12772
926.886	12829
926.993	12623
927.099	12665
927.206	12574
927.312	12521
927.419	12631
927.525	12597
927.631	12616
927.737	12410
927.843	12346
927.95	12273
928.056	12448
928.162	12361
928.267	12479
928.373	13057
928.479	12517
928.585	12205
928.69	12350
928.796	12433
928.901	12266
929.007	12144
929.112	12270
929.218	12220
929.323	12114
929.428	12136
929.533	12270
929.638	12041
929.743	12038
929.848	12068
929.953	12114
930.058	11973
930.163	11870
930.267	11798
930.372	11863
930.477	11699
930.581	11954
930.685	11885
930.79	11676
930.894	11737
930.998	11741
931.103	11798
931.207	11436
931.311	11334
931.415	11296
931.519	11052
931.623	10999
