Data from test_V78500241_3385.txt Node
Date: Fri Mar 25 15:33:25 CST 2022
User: usil
Spectrometer: V785-0024
Trigger mode: 0
Integration Time (sec): 4.000000E-1
Scans to average: 1
Nonlinearity correction enabled: false
Boxcar width: 0
Storing dark spectrum: false
XAxis mode: Wavelengths
Number of Pixels in Spectrum: 1024
>>>>>Begin Spectral Data<<<<<
801.071	27340
801.214	27154
801.356	26940
801.499	26887
801.641	26708
801.783	26887
801.926	26830
802.068	26701
802.211	26629
802.353	26788
802.496	26556
802.638	26465
802.78	26450
802.923	26336
803.065	26218
803.208	26374
803.35	26461
803.492	26556
803.635	26587
803.777	26545
803.919	26579
804.061	26937
804.204	26674
804.346	26457
804.488	26469
804.63	26587
804.773	26385
804.915	26720
805.057	26575
805.199	26556
805.341	26655
805.483	26762
805.626	26663
805.768	26511
805.91	26777
806.052	26682
806.194	26480
806.336	26800
806.478	26670
806.62	26537
806.762	26758
806.904	26960
807.046	27188
807.188	27039
807.33	27081
807.472	27211
807.614	26948
807.756	27074
807.898	27036
808.04	26853
808.182	26891
808.324	26940
808.465	26918
808.607	27112
808.749	27336
808.891	27378
809.033	27469
809.174	27241
809.316	27291
809.458	27245
809.6	27116
809.741	27370
809.883	27363
810.025	27515
810.166	27583
810.308	27542
810.45	27355
810.591	27500
810.733	27378
810.875	27245
811.016	27142
811.158	27127
811.299	27252
811.441	27355
811.582	27405
811.724	27431
811.865	27161
812.007	27268
812.148	27203
812.29	27329
812.431	27526
812.573	27542
812.714	27682
812.855	27766
812.997	27812
813.138	27926
813.279	27808
813.421	27728
813.562	27663
813.703	27492
813.845	27500
813.986	27070
814.127	27058
814.268	26940
814.41	26986
814.551	26925
814.692	26910
814.833	26857
814.974	26899
815.115	26838
815.256	26674
815.397	26769
815.539	26777
815.68	26640
815.821	26762
815.962	26773
816.103	26598
816.244	26575
816.385	26389
816.526	26415
816.666	26301
816.807	26157
816.948	26191
817.089	26328
817.23	26187
817.371	26130
817.512	26183
817.653	26119
817.793	26161
817.934	26153
818.075	26252
818.216	26168
818.356	26157
818.497	26035
818.638	25890
818.778	25936
818.919	25814
819.06	26016
819.2	26065
819.341	26134
819.481	26130
819.622	26221
819.762	26575
819.903	26438
820.043	26301
820.184	26400
820.324	26343
820.465	26404
820.605	26347
820.746	26267
820.886	26096
821.026	26244
821.167	26081
821.307	26286
821.447	26191
821.588	26039
821.728	25841
821.868	25731
822.008	25715
822.149	25658
822.289	25662
822.429	25358
822.569	25251
822.709	25297
822.849	25247
822.99	25031
823.13	25171
823.27	24992
823.41	25015
823.55	24840
823.69	24981
823.83	24905
823.97	24867
824.11	24837
824.25	24719
824.389	24798
824.529	24856
824.669	24859
824.809	24749
824.949	24875
825.089	24943
825.228	24749
825.368	24597
825.508	24768
825.648	24768
825.787	24593
825.927	24707
826.067	24669
826.206	24574
826.346	24646
826.485	24627
826.625	24749
826.765	24654
826.904	24681
827.044	24509
827.183	24410
827.323	24285
827.462	24418
827.601	24422
827.741	24319
827.88	24445
828.02	24167
828.159	24448
828.298	24437
828.437	24357
828.577	24292
828.716	24445
828.855	24270
828.994	24060
829.134	24057
829.273	24060
829.412	24079
829.551	24076
829.69	24091
829.829	23961
829.968	24167
830.107	24194
830.246	24091
830.385	24079
830.524	23958
830.663	23882
830.802	23680
830.941	23676
831.08	23672
831.219	23687
831.357	23722
831.496	23969
831.635	23596
831.774	23543
831.913	23600
832.051	23512
832.19	23459
832.329	23379
832.467	23452
832.606	23334
832.744	23296
832.883	23452
833.022	23296
833.16	23395
833.299	23280
833.437	23372
833.576	23425
833.714	23452
833.852	23436
833.991	23433
834.129	23619
834.267	23490
834.406	23524
834.544	23368
834.682	23497
834.821	23391
834.959	23455
835.097	23349
835.235	23531
835.373	23505
835.511	23379
835.65	23368
835.788	23261
835.926	23166
836.064	23162
836.202	23136
836.34	23406
836.478	23444
836.615	23220
836.753	23311
836.891	23376
837.029	23292
837.167	23315
837.305	23189
837.443	23052
837.58	23231
837.718	23197
837.856	23071
837.993	23128
838.131	23128
838.269	23022
838.406	23025
838.544	22850
838.681	22866
838.819	22816
838.956	22736
839.094	22637
839.231	22660
839.369	22831
839.506	23124
839.643	22946
839.781	22641
839.918	22493
840.055	22706
840.193	22615
840.33	22561
840.467	22531
840.604	22542
840.742	22866
840.879	22413
841.016	22504
841.153	22569
841.29	22733
841.427	22599
841.564	22683
841.701	22641
841.838	22451
841.975	22337
842.112	22481
842.249	22295
842.385	22306
842.522	22519
842.659	22379
842.796	22322
842.933	22295
843.069	22200
843.206	22257
843.343	22462
843.479	22360
843.616	22322
843.752	22128
843.889	22150
844.025	22291
844.162	22097
844.298	22135
844.435	22002
844.571	22101
844.708	22109
844.844	22139
844.98	22261
845.117	22219
845.253	21979
845.389	22025
845.525	22040
845.661	21873
845.798	21892
845.934	21987
846.07	21850
846.206	21831
846.342	21975
846.478	21800
846.614	21610
846.75	21603
846.886	21656
847.022	21762
847.158	21660
847.294	21747
847.429	21622
847.565	21637
847.701	21781
847.837	21363
847.972	21173
848.108	21466
848.244	21241
848.379	21135
848.515	21127
848.65	21104
848.786	21062
848.921	21131
849.057	21184
849.192	21268
849.328	21279
849.463	21062
849.598	21127
849.734	20979
849.869	21077
850.004	20918
850.14	20937
850.275	20929
850.41	20853
850.545	20883
850.68	20807
850.815	20994
850.95	20956
851.085	21184
851.22	20998
851.355	20902
851.49	20823
851.625	20880
851.76	20800
851.895	20804
852.03	20773
852.165	20876
852.299	20990
852.434	21043
852.569	20807
852.703	20952
852.838	20967
852.973	21062
853.107	21135
853.242	20845
853.376	20804
853.511	20617
853.645	20682
853.78	20925
853.914	20743
854.048	20705
854.183	20819
854.317	20781
854.451	20929
854.585	20788
854.72	20811
854.854	20804
854.988	20629
855.122	20746
855.256	20701
855.39	20712
855.524	20788
855.658	20796
855.792	20727
855.926	20880
856.06	20788
856.194	20842
856.327	20705
856.461	20655
856.595	20689
856.729	20765
856.862	20815
856.996	20792
857.13	20765
857.263	20838
857.397	20883
857.53	20708
857.664	20754
857.797	20754
857.931	20918
858.064	20845
858.197	20963
858.331	20743
858.464	20727
858.597	20571
858.731	20689
858.864	20807
858.997	20826
859.13	20864
859.263	20762
859.396	20796
859.529	20823
859.662	20697
859.795	20705
859.928	20788
860.061	20868
860.194	20967
860.327	20853
860.46	20754
860.592	20849
860.725	20883
860.858	20868
860.99	20743
861.123	20613
861.256	20773
861.388	20815
861.521	21500
861.653	20716
861.786	20499
861.918	20514
862.05	20682
862.183	20674
862.315	20773
862.447	20765
862.58	20697
862.712	20579
862.844	20396
862.976	20533
863.108	20518
863.24	20910
863.372	20476
863.504	20415
863.636	20408
863.768	20499
863.9	20560
864.032	20556
864.164	20431
864.296	20438
864.428	20492
864.559	20484
864.691	20503
864.823	20552
864.954	20431
865.086	20442
865.217	20438
865.349	20259
865.48	20362
865.612	20298
865.743	20446
865.875	20358
866.006	20332
866.137	20423
866.269	20450
866.4	20442
866.531	20385
866.662	20256
866.793	20229
866.924	20294
867.055	20339
867.186	20442
867.317	20244
867.448	20202
867.579	20244
867.71	20240
867.841	20271
867.972	20286
868.103	20358
868.233	20438
868.364	20336
868.495	20457
868.625	20511
868.756	20746
868.886	20556
869.017	20530
869.147	20686
869.278	20727
869.408	20625
869.539	20556
869.669	20648
869.799	20533
869.929	20727
870.06	20705
870.19	20796
870.32	20849
870.45	20880
870.58	20800
870.71	21032
870.84	21074
870.97	20891
871.1	21005
871.23	21123
871.36	21233
871.489	21085
871.619	21093
871.749	21093
871.879	21199
872.008	21207
872.138	21119
872.267	21173
872.397	21108
872.526	20986
872.656	21043
872.785	21001
872.915	21203
873.044	21199
873.173	21195
873.303	21230
873.432	21268
873.561	21317
873.69	21165
873.819	21199
873.948	21214
874.077	21222
874.206	21154
874.335	21188
874.464	21241
874.593	21447
874.722	21321
874.851	21386
874.979	21431
875.108	21488
875.237	21454
875.365	21370
875.494	21412
875.623	21473
875.751	21378
875.88	21545
876.008	21454
876.136	21667
876.265	21774
876.393	21823
876.521	21903
876.65	21880
876.778	21907
876.906	21682
877.034	21804
877.162	21675
877.29	21690
877.418	21838
877.546	21766
877.674	21854
877.802	21728
877.93	21778
878.058	21751
878.185	21637
878.313	21648
878.441	21686
878.568	21610
878.696	21690
878.824	21800
878.951	21793
879.079	22002
879.206	22135
879.333	21918
879.461	21751
879.588	21819
879.715	21831
879.842	21998
879.97	21945
880.097	21705
880.224	21652
880.351	21713
880.478	21705
880.605	21587
880.732	21553
880.859	21808
880.986	21561
881.112	21595
881.239	21424
881.366	21469
881.493	21207
881.619	21230
881.746	21233
881.872	21165
881.999	21313
882.125	21146
882.252	21249
882.378	21142
882.505	21268
882.631	21135
882.757	20906
882.883	21009
883.01	20944
883.136	20914
883.262	20762
883.388	20819
883.514	20941
883.64	20906
883.766	20880
883.892	20705
884.018	20724
884.143	20750
884.269	20883
884.395	20549
884.52	20560
884.646	20598
884.772	20381
884.897	20415
885.023	20431
885.148	20697
885.274	20697
885.399	20648
885.524	20537
885.65	20446
885.775	20480
885.9	20446
886.025	20674
886.15	20640
886.275	20457
886.4	20518
886.525	20629
886.65	20419
886.775	20549
886.9	20689
887.025	20746
887.149	20598
887.274	20324
887.399	20339
887.523	20130
887.648	20320
887.773	20237
887.897	20385
888.021	20263
888.146	20267
888.27	20450
888.395	20385
888.519	20343
888.643	20412
888.767	20233
888.891	20225
889.015	20115
889.139	20183
889.263	20096
889.387	20286
889.511	20248
889.635	20210
889.759	20058
889.883	20107
890.006	20077
890.13	20202
890.254	20012
890.377	20237
890.501	19765
890.624	19864
890.748	19898
890.871	19830
890.995	19746
891.118	19609
891.241	19803
891.364	19742
891.488	19860
891.611	19670
891.734	19742
891.857	19712
891.98	19620
892.103	19799
892.226	19651
892.349	19586
892.471	19491
892.594	19571
892.717	19753
892.839	19567
892.962	19639
893.085	19643
893.207	19616
893.33	19540
893.452	19521
893.575	19700
893.697	19624
893.819	19913
893.941	19852
894.064	19723
894.186	19510
894.308	19529
894.43	19586
894.552	19803
894.674	19750
894.796	19563
894.918	19643
895.04	19506
895.161	19567
895.283	19708
895.405	19487
895.526	19662
895.648	19529
895.769	19613
895.891	19624
896.012	19685
896.134	19712
896.255	19651
896.376	19613
896.498	19605
896.619	19616
896.74	19537
896.861	19651
896.982	20054
897.103	20111
897.224	19936
897.345	19887
897.466	19830
897.587	19780
897.708	19986
897.828	19871
897.949	19708
898.07	19731
898.19	19746
898.311	19898
898.431	19833
898.552	19811
898.672	19959
898.792	19696
898.913	19864
899.033	19750
899.153	19537
899.273	19613
899.393	19807
899.513	19655
899.633	19677
899.753	19582
899.873	19571
899.993	19616
900.113	19525
900.232	19506
900.352	19438
900.472	19343
900.591	19400
900.711	19362
900.83	19403
900.95	19480
901.069	19525
901.189	19251
901.308	19126
901.427	19004
901.546	19027
901.665	19053
901.784	18954
901.904	18821
902.023	18707
902.141	18532
902.26	18604
902.379	18593
902.498	18448
902.617	18376
902.735	18464
902.854	18494
902.973	18429
903.091	18224
903.21	18163
903.328	18174
903.446	18098
903.565	18053
903.683	17939
903.801	17824
903.919	17927
904.038	18045
904.156	17779
904.274	17745
904.392	17714
904.51	17764
904.627	17687
904.745	17809
904.863	17847
904.981	17463
905.098	17402
905.216	17486
905.334	17532
905.451	17452
905.569	17299
905.686	17398
905.803	17379
905.921	17284
906.038	17349
906.155	17296
906.272	17098
906.389	17166
906.506	16991
906.623	17052
906.74	16923
906.857	16896
906.974	16873
907.091	17006
907.208	17132
907.324	17010
907.441	16790
907.557	16759
907.674	16710
907.79	16596
907.907	16656
908.023	16687
908.139	16717
908.256	16675
908.372	16569
908.488	16565
908.604	16462
908.72	16398
908.836	16413
908.952	16344
909.068	16363
909.184	16519
909.3	16375
909.415	16386
909.531	16344
909.647	16192
909.762	16169
909.878	16082
909.993	16188
910.108	16021
910.224	16071
910.339	16105
910.454	15975
910.57	15907
910.685	15945
910.8	16109
910.915	16154
911.03	15964
911.145	15781
911.259	15701
911.374	15713
911.489	15728
911.604	15622
911.718	15481
911.833	15534
911.947	15408
912.062	15336
912.176	15401
912.291	15595
912.405	15389
912.519	15644
912.633	15618
912.748	15530
912.862	15462
912.976	15355
913.09	15146
913.204	15329
913.318	15363
913.431	15408
913.545	15340
913.659	15405
913.772	15241
913.886	15131
914	15028
914.113	15135
914.226	15161
914.34	15161
914.453	15005
914.566	15169
914.68	14971
914.793	14986
914.906	14796
915.019	14750
915.132	14678
915.245	14712
915.358	14792
915.47	14678
915.583	14682
915.696	14796
915.809	14895
915.921	14929
916.034	14804
916.146	14693
916.259	14674
916.371	14845
916.483	14610
916.595	14530
916.708	14571
916.82	14663
916.932	14602
917.044	14568
917.156	14549
917.268	14431
917.38	14434
917.491	14454
917.603	14396
917.715	14484
917.826	14503
917.938	14385
918.049	14248
918.161	14404
918.272	14526
918.384	14434
918.495	14332
918.606	14149
918.717	14149
918.828	14183
918.939	14237
919.05	14115
919.161	14149
919.272	14027
919.383	14050
919.494	14221
919.604	14423
919.715	14126
919.826	14107
919.936	14092
920.047	14305
920.157	14161
920.267	14343
920.378	14111
920.488	14130
920.598	14282
920.708	14492
920.818	14294
920.928	14259
921.038	14469
921.148	14461
921.258	14092
921.368	14142
921.477	13989
921.587	13928
921.697	13830
921.806	13921
921.916	13719
922.025	13597
922.134	13559
922.244	13491
922.353	13559
922.462	13422
922.571	13308
922.68	13228
922.789	13225
922.898	13225
923.007	13091
923.116	13350
923.224	13133
923.333	13072
923.442	13057
923.55	13126
923.659	13129
923.767	13061
923.876	12935
923.984	13023
924.092	12981
924.201	12989
924.309	12970
924.417	12954
924.525	12821
924.633	12909
924.741	13784
924.849	12665
924.956	12764
925.064	12620
925.172	12525
925.279	12673
925.387	12726
925.494	12620
925.602	12764
925.709	12665
925.816	12574
925.924	12551
926.031	12722
926.138	12589
926.245	12681
926.352	12403
926.459	12703
926.566	12642
926.673	12574
926.779	12483
926.886	12376
926.993	12311
927.099	12190
927.206	12129
927.312	12232
927.419	12254
927.525	12243
927.631	12319
927.737	12106
927.843	12068
927.95	11965
928.056	12087
928.162	12060
928.267	12079
928.373	12604
928.479	12167
928.585	11874
928.69	12034
928.796	12015
928.901	11950
929.007	11813
929.112	11897
929.218	11821
929.323	11809
929.428	11703
929.533	11866
929.638	11756
929.743	11745
929.848	11741
929.953	11718
930.058	11646
930.163	11440
930.267	11497
930.372	11630
930.477	11444
930.581	11623
930.685	11486
930.79	11265
930.894	11391
930.998	11383
931.103	11395
931.207	11102
931.311	11003
931.415	10953
931.519	10721
931.623	10641
