Data from test_V78500241_1733.txt Node
Date: Fri Mar 25 15:21:55 CST 2022
User: usil
Spectrometer: V785-0024
Trigger mode: 0
Integration Time (sec): 4.000000E-1
Scans to average: 1
Nonlinearity correction enabled: false
Boxcar width: 0
Storing dark spectrum: false
XAxis mode: Wavelengths
Number of Pixels in Spectrum: 1024
>>>>>Begin Spectral Data<<<<<
801.071	27914
801.214	27720
801.356	27534
801.499	27545
801.641	27447
801.783	27424
801.926	27405
802.068	27427
802.211	27329
802.353	27279
802.496	27089
802.638	27051
802.78	27089
802.923	27001
803.065	26960
803.208	26960
803.35	27150
803.492	27188
803.635	27252
803.777	27173
803.919	27340
804.061	27507
804.204	27291
804.346	27203
804.488	27135
804.63	27332
804.773	27230
804.915	27298
805.057	27348
805.199	27298
805.341	27329
805.483	27431
805.626	27321
805.768	27260
805.91	27332
806.052	27458
806.194	27241
806.336	27469
806.478	27374
806.62	27408
806.762	27507
806.904	27774
807.046	28029
807.188	27937
807.33	27945
807.472	27873
807.614	27823
807.756	27835
807.898	27812
808.04	27816
808.182	27599
808.324	27705
808.465	27736
808.607	28074
808.749	27998
808.891	28040
809.033	28124
809.174	28017
809.316	27934
809.458	27892
809.6	27956
809.741	28147
809.883	28154
810.025	28337
810.166	28352
810.308	28329
810.45	28169
810.591	28185
810.733	28063
810.875	27983
811.016	27911
811.158	27949
811.299	28036
811.441	28192
811.582	28314
811.724	27930
811.865	28006
812.007	27991
812.148	28002
812.29	28204
812.431	28310
812.573	28299
812.714	28424
812.855	28485
812.997	28641
813.138	28797
813.279	28603
813.421	28603
813.562	28470
813.703	28436
813.845	28234
813.986	27979
814.127	27994
814.268	27781
814.41	27770
814.551	27717
814.692	27717
814.833	27720
814.974	27641
815.115	27701
815.256	27633
815.397	27431
815.539	27595
815.68	27572
815.821	27481
815.962	27652
816.103	27431
816.244	27291
816.385	27386
816.526	27142
816.666	27135
816.807	27001
816.948	27116
817.089	27070
817.23	27077
817.371	27081
817.512	26933
817.653	26940
817.793	26948
817.934	27089
818.075	26948
818.216	27074
818.356	27116
818.497	26842
818.638	26777
818.778	26727
818.919	26727
819.06	26902
819.2	26967
819.341	27062
819.481	26982
819.622	27127
819.762	27245
819.903	27252
820.043	27135
820.184	27142
820.324	27131
820.465	27108
820.605	27165
820.746	27249
820.886	27005
821.026	27165
821.167	27058
821.307	27112
821.447	27116
821.588	26971
821.728	26777
821.868	26651
822.008	26431
822.149	26480
822.289	26400
822.429	26183
822.569	26100
822.709	26233
822.849	26035
822.99	25921
823.13	25902
823.27	25845
823.41	25826
823.55	25670
823.69	25757
823.83	25814
823.97	25696
824.11	25540
824.25	25685
824.389	25590
824.529	25628
824.669	25521
824.809	25788
824.949	25750
825.089	25704
825.228	25518
825.368	25582
825.508	25460
825.648	25422
825.787	25499
825.927	25449
826.067	25487
826.206	25483
826.346	25567
826.485	25449
826.625	25381
826.765	25601
826.904	25597
827.044	25419
827.183	25259
827.323	25129
827.462	25266
827.601	25228
827.741	25110
827.88	25190
828.02	25194
828.159	25213
828.298	25164
828.437	25232
828.577	25232
828.716	25285
828.855	25137
828.994	24863
829.134	24837
829.273	24981
829.412	24916
829.551	24882
829.69	24954
829.829	24924
829.968	25027
830.107	24916
830.246	24977
830.385	24916
830.524	24875
830.663	24852
830.802	24627
830.941	24494
831.08	24544
831.219	24612
831.357	24597
831.496	24665
831.635	24509
831.774	24407
831.913	24437
832.051	24429
832.19	24251
832.329	24342
832.467	24300
832.606	24220
832.744	24220
832.883	24121
833.022	24114
833.16	24152
833.299	24209
833.437	24186
833.576	24216
833.714	24144
833.852	24323
833.991	24403
834.129	24410
834.267	24353
834.406	24281
834.544	24338
834.682	24300
834.821	24178
834.959	24422
835.097	24277
835.235	24334
835.373	24361
835.511	24327
835.65	24197
835.788	24114
835.926	23942
836.064	23939
836.202	23908
836.34	24083
836.478	24152
836.615	24083
836.753	24034
836.891	24228
837.029	24247
837.167	24011
837.305	24178
837.443	24197
837.58	24117
837.718	24102
837.856	23942
837.993	23855
838.131	24095
838.269	23756
838.406	23893
838.544	23718
838.681	23699
838.819	23585
838.956	23573
839.094	23531
839.231	23497
839.369	23604
839.506	23840
839.643	23745
839.781	23486
839.918	23414
840.055	23353
840.193	23337
840.33	23315
840.467	23303
840.604	23337
840.742	23714
840.879	23223
841.016	23235
841.153	23288
841.29	23417
841.427	23250
841.564	23410
841.701	23277
841.838	23379
841.975	23273
842.112	23337
842.249	23200
842.385	23029
842.522	23307
842.659	23212
842.796	23083
842.933	23102
843.069	23060
843.206	22953
843.343	23151
843.479	23128
843.616	23235
843.752	22908
843.889	22911
844.025	22892
844.162	22835
844.298	22908
844.435	22877
844.571	22858
844.708	22911
844.844	23037
844.98	23064
845.117	22980
845.253	22816
845.389	22809
845.525	22812
845.661	22698
845.798	22713
845.934	22626
846.07	22546
846.206	22634
846.342	22805
846.478	22626
846.614	22424
846.75	22352
846.886	22375
847.022	22234
847.158	22527
847.294	22287
847.429	22497
847.565	22382
847.701	22557
847.837	22154
847.972	22032
848.108	22162
848.244	22116
848.379	22021
848.515	21850
848.65	22013
848.786	21949
848.921	21846
849.057	22032
849.192	21907
849.328	21975
849.463	21953
849.598	21838
849.734	21846
849.869	21854
850.004	21690
850.14	21739
850.275	21720
850.41	21637
850.545	21622
850.68	21564
850.815	21739
850.95	21698
851.085	21880
851.22	21785
851.355	21736
851.49	21648
851.625	21778
851.76	21682
851.895	21610
852.03	21610
852.165	21774
852.299	21747
852.434	21831
852.569	21713
852.703	21679
852.838	21865
852.973	21975
853.107	21846
853.242	21705
853.376	21534
853.511	21492
853.645	21477
853.78	21618
853.914	21424
854.048	21477
854.183	21564
854.317	21488
854.451	21781
854.585	21724
854.72	21530
854.854	21728
854.988	21424
855.122	21606
855.256	21306
855.39	21530
855.524	21667
855.658	21507
855.792	21454
855.926	21641
856.06	21572
856.194	21591
856.327	21603
856.461	21389
856.595	21481
856.729	21443
856.862	21595
856.996	21557
857.13	21644
857.263	21720
857.397	21682
857.53	21488
857.664	21542
857.797	21526
857.931	21667
858.064	21545
858.197	21488
858.331	21492
858.464	21492
858.597	21405
858.731	21431
858.864	21412
858.997	21481
859.13	21614
859.263	21519
859.396	21618
859.529	21431
859.662	21420
859.795	21355
859.928	21485
860.061	21762
860.194	21812
860.327	21603
860.46	21614
860.592	21618
860.725	21717
860.858	21637
860.99	21568
861.123	21401
861.256	21542
861.388	21622
861.521	22173
861.653	21473
861.786	21298
861.918	21374
862.05	21348
862.183	21447
862.315	21473
862.447	21428
862.58	21439
862.712	21268
862.844	21154
862.976	21359
863.108	21283
863.24	21618
863.372	21093
863.504	21237
863.636	21154
863.768	21291
863.9	21188
864.032	21165
864.164	21173
864.296	21306
864.428	21367
864.559	21195
864.691	21340
864.823	21302
864.954	21203
865.086	21245
865.217	21169
865.349	21036
865.48	21165
865.612	21119
865.743	21291
865.875	21131
866.006	21119
866.137	21074
866.269	21131
866.4	21051
866.531	20960
866.662	20982
866.793	20979
866.924	21192
867.055	21096
867.186	21020
867.317	21020
867.448	20941
867.579	21028
867.71	21009
867.841	20902
867.972	21051
868.103	21093
868.233	21089
868.364	21108
868.495	21081
868.625	21294
868.756	21291
868.886	21173
869.017	21332
869.147	21275
869.278	21310
869.408	21363
869.539	21275
869.669	21332
869.799	21294
869.929	21496
870.06	21416
870.19	21557
870.32	21625
870.45	21701
870.58	21713
870.71	21968
870.84	21770
870.97	21728
871.1	21633
871.23	21884
871.36	21838
871.489	21720
871.619	21903
871.749	21823
871.879	21850
872.008	22067
872.138	21899
872.267	21972
872.397	21736
872.526	21663
872.656	21701
872.785	21591
872.915	21899
873.044	22006
873.173	21972
873.303	21926
873.432	21915
873.561	22070
873.69	21956
873.819	21876
873.948	21865
874.077	21880
874.206	21915
874.335	21956
874.464	21945
874.593	22162
874.722	22036
874.851	22150
874.979	22120
875.108	22154
875.237	22086
875.365	21987
875.494	22090
875.623	22204
875.751	21915
875.88	22207
876.008	22204
876.136	22272
876.265	22481
876.393	22702
876.521	22577
876.65	22641
876.778	22656
876.906	22569
877.034	22538
877.162	22504
877.29	22436
877.418	22470
877.546	22440
877.674	22542
877.802	22421
877.93	22462
878.058	22428
878.185	22379
878.313	22329
878.441	22527
878.568	22325
878.696	22310
878.824	22500
878.951	22512
879.079	22611
879.206	22710
879.333	22740
879.461	22417
879.588	22508
879.715	22679
879.842	22778
879.97	22580
880.097	22318
880.224	22322
880.351	22265
880.478	22246
880.605	22173
880.732	22333
880.859	22508
880.986	22272
881.112	22299
881.239	22166
881.366	22025
881.493	21941
881.619	21895
881.746	21983
881.872	21797
881.999	21800
882.125	21865
882.252	21831
882.378	21854
882.505	21918
882.631	21679
882.757	21625
882.883	21599
883.01	21576
883.136	21561
883.262	21401
883.388	21317
883.514	21481
883.64	21656
883.766	21405
883.892	21416
884.018	21359
884.143	21428
884.269	21629
884.395	21382
884.52	21127
884.646	21218
884.772	21146
884.897	21245
885.023	21184
885.148	21237
885.274	21321
885.399	21332
885.524	21344
885.65	21260
885.775	21275
885.9	21287
886.025	21294
886.15	21298
886.275	21081
886.4	21077
886.525	21142
886.65	21176
886.775	21116
886.9	21291
887.025	21473
887.149	21161
887.274	20975
887.399	20971
887.523	21051
887.648	20921
887.773	20956
887.897	21066
888.021	20937
888.146	21001
888.27	20990
888.395	21119
888.519	20880
888.643	21127
888.767	20998
888.891	20944
889.015	20746
889.139	20975
889.263	20735
889.387	20948
889.511	20876
889.635	20880
889.759	20549
889.883	20716
890.006	20785
890.13	20792
890.254	20705
890.377	20746
890.501	20571
890.624	20343
890.748	20571
890.871	20488
890.995	20320
891.118	20142
891.241	20385
891.364	20290
891.488	20454
891.611	20438
891.734	20389
891.857	20408
891.98	20408
892.103	20503
892.226	20343
892.349	20267
892.471	20130
892.594	20298
892.717	20271
892.839	20237
892.962	20271
893.085	20358
893.207	20324
893.33	20058
893.452	20210
893.575	20286
893.697	20161
893.819	20320
893.941	20480
894.064	20389
894.186	20267
894.308	20062
894.43	20324
894.552	20488
894.674	20256
894.796	20157
894.918	20263
895.04	20153
895.161	20164
895.283	20275
895.405	20050
895.526	20172
895.648	20088
895.769	20244
895.891	20256
896.012	20317
896.134	20298
896.255	20282
896.376	20126
896.498	20244
896.619	20206
896.74	20161
896.861	20309
896.982	20511
897.103	20701
897.224	20473
897.345	20419
897.466	20450
897.587	20503
897.708	20511
897.828	20415
897.949	20381
898.07	20320
898.19	20370
898.311	20594
898.431	20370
898.552	20412
898.672	20419
898.792	20537
898.913	20396
899.033	20309
899.153	20214
899.273	20020
899.393	20126
899.513	20088
899.633	20103
899.753	20168
899.873	20119
899.993	20267
900.113	20210
900.232	20183
900.352	20126
900.472	19982
900.591	19875
900.711	19955
900.83	19913
900.95	19997
901.069	19997
901.189	19913
901.308	19658
901.427	19525
901.546	19540
901.665	19578
901.784	19521
901.904	19396
902.023	19453
902.141	19133
902.26	19080
902.379	19228
902.498	19038
902.617	18993
902.735	19080
902.854	19023
902.973	18932
903.091	18795
903.21	18787
903.328	18658
903.446	18597
903.565	18597
903.683	18582
903.801	18471
903.919	18464
904.038	18479
904.156	18391
904.274	18270
904.392	18308
904.51	18292
904.627	18304
904.745	18365
904.863	18281
904.981	18140
905.098	17874
905.216	18057
905.334	17984
905.451	17946
905.569	17897
905.686	18049
905.803	17980
905.921	17726
906.038	17878
906.155	17912
906.272	17634
906.389	17714
906.506	17558
906.623	17459
906.74	17486
906.857	17368
906.974	17364
907.091	17585
907.208	17566
907.324	17486
907.441	17364
907.557	17296
907.674	17284
907.79	17117
907.907	17227
908.023	17246
908.139	17197
908.256	17208
908.372	17029
908.488	17162
908.604	16938
908.72	16953
908.836	17010
908.952	16881
909.068	17014
909.184	17006
909.3	17048
909.415	16854
909.531	16908
909.647	16702
909.762	16630
909.878	16523
909.993	16656
910.108	16603
910.224	16630
910.339	16649
910.454	16584
910.57	16436
910.685	16325
910.8	16611
910.915	16641
911.03	16500
911.145	16249
911.259	16272
911.374	16295
911.489	16242
911.604	15983
911.718	15888
911.833	15892
911.947	15876
912.062	15835
912.176	15930
912.291	15911
912.405	15918
912.519	16143
912.633	16211
912.748	15956
912.862	15907
912.976	15793
913.09	15762
913.204	15705
913.318	15797
913.431	15899
913.545	15827
913.659	15884
913.772	15728
913.886	15698
914	15614
914.113	15671
914.226	15694
914.34	15663
914.453	15519
914.566	15641
914.68	15420
914.793	15428
914.906	15405
915.019	15112
915.132	15192
915.245	15119
915.358	15310
915.47	15176
915.583	15070
915.696	15241
915.809	15313
915.921	15272
916.034	15108
916.146	15077
916.259	15032
916.371	15222
916.483	15161
916.595	15138
916.708	15024
916.82	15066
916.932	14982
917.044	15009
917.156	14906
917.268	14819
917.38	14864
917.491	14830
917.603	14830
917.715	14948
917.826	14960
917.938	14826
918.049	14686
918.161	14720
918.272	14861
918.384	14899
918.495	14830
918.606	14712
918.717	14564
918.828	14606
918.939	14594
919.05	14537
919.161	14461
919.272	14412
919.383	14507
919.494	14598
919.604	14746
919.715	14632
919.826	14427
919.936	14606
920.047	14648
920.157	14598
920.267	14785
920.378	14530
920.488	14442
920.598	14712
920.708	14834
920.818	14594
920.928	14693
921.038	14891
921.148	14777
921.258	14571
921.368	14370
921.477	14381
921.587	14313
921.697	14145
921.806	14298
921.916	14180
922.025	13944
922.134	13856
922.244	13887
922.353	13997
922.462	13826
922.571	13670
922.68	13632
922.789	13552
922.898	13594
923.007	13487
923.116	13605
923.224	13582
923.333	13521
923.442	13392
923.55	13422
923.659	13438
923.767	13457
923.876	13434
923.984	13373
924.092	13316
924.201	13373
924.309	13293
924.417	13282
924.525	13274
924.633	13240
924.741	14046
924.849	13076
924.956	13221
925.064	13152
925.172	12947
925.279	13008
925.387	12977
925.494	13038
925.602	13126
925.709	13031
925.816	12878
925.924	12935
926.031	12985
926.138	12871
926.245	13042
926.352	12779
926.459	12932
926.566	13012
926.673	12890
926.779	12791
926.886	12623
926.993	12566
927.099	12506
927.206	12494
927.312	12521
927.419	12620
927.525	12566
927.631	12566
927.737	12525
927.843	12407
927.95	12315
928.056	12395
928.162	12517
928.267	12486
928.373	13046
928.479	12433
928.585	12232
928.69	12311
928.796	12437
928.901	12254
929.007	12125
929.112	12270
929.218	12175
929.323	12114
929.428	12076
929.533	12224
929.638	12125
929.743	12079
929.848	12102
929.953	12007
930.058	11969
930.163	11786
930.267	11786
930.372	11999
930.477	11726
930.581	11984
930.685	11851
930.79	11649
930.894	11710
930.998	11634
931.103	11775
931.207	11501
931.311	11265
931.415	11246
931.519	11029
931.623	11071
