Data from test_V78500241_1956.txt Node
Date: Fri Mar 25 15:23:28 CST 2022
User: usil
Spectrometer: V785-0024
Trigger mode: 0
Integration Time (sec): 4.000000E-1
Scans to average: 1
Nonlinearity correction enabled: false
Boxcar width: 0
Storing dark spectrum: false
XAxis mode: Wavelengths
Number of Pixels in Spectrum: 1024
>>>>>Begin Spectral Data<<<<<
801.071	27523
801.214	27473
801.356	27192
801.499	27207
801.641	27077
801.783	27116
801.926	27085
802.068	26967
802.211	27036
802.353	26861
802.496	26895
802.638	26796
802.78	26609
802.923	26636
803.065	26629
803.208	26583
803.35	26590
803.492	26716
803.635	26834
803.777	26880
803.919	27066
804.061	27146
804.204	26998
804.346	26781
804.488	26712
804.63	26819
804.773	26876
804.915	26937
805.057	26872
805.199	26823
805.341	26925
805.483	26902
805.626	26940
805.768	26819
805.91	27017
806.052	27036
806.194	26929
806.336	27051
806.478	27154
806.62	27085
806.762	27093
806.904	27214
807.046	27405
807.188	27389
807.33	27382
807.472	27310
807.614	27310
807.756	27332
807.898	27199
808.04	27233
808.182	27188
808.324	27211
808.465	27336
808.607	27420
808.749	27637
808.891	27660
809.033	27663
809.174	27618
809.316	27530
809.458	27625
809.6	27671
809.741	27564
809.883	27766
810.025	27743
810.166	27781
810.308	27911
810.45	27953
810.591	27827
810.733	27667
810.875	27416
811.016	27466
811.158	27447
811.299	27622
811.441	27850
811.582	27728
811.724	27667
811.865	27492
812.007	27618
812.148	27671
812.29	27511
812.431	27720
812.573	27827
812.714	27926
812.855	28200
812.997	28215
813.138	28337
813.279	28215
813.421	27987
813.562	27850
813.703	27949
813.845	27762
813.986	27526
814.127	27382
814.268	27367
814.41	27157
814.551	27317
814.692	27325
814.833	27249
814.974	27260
815.115	27313
815.256	27203
815.397	27249
815.539	27203
815.68	26952
815.821	27066
815.962	27013
816.103	27017
816.244	26861
816.385	26838
816.526	26853
816.666	26606
816.807	26594
816.948	26689
817.089	26636
817.23	26667
817.371	26549
817.512	26412
817.653	26697
817.793	26488
817.934	26438
818.075	26609
818.216	26549
818.356	26412
818.497	26412
818.638	26191
818.778	26233
818.919	26317
819.06	26336
819.2	26469
819.341	26434
819.481	26598
819.622	26632
819.762	26781
819.903	26735
820.043	26655
820.184	26727
820.324	26552
820.465	26670
820.605	26678
820.746	26655
820.886	26564
821.026	26507
821.167	26579
821.307	26613
821.447	26705
821.588	26415
821.728	26313
821.868	26214
822.008	26027
822.149	25887
822.289	25902
822.429	25833
822.569	25750
822.709	25689
822.849	25514
822.99	25559
823.13	25377
823.27	25525
823.41	25362
823.55	25236
823.69	25301
823.83	25384
823.97	25232
824.11	25084
824.25	25145
824.389	25217
824.529	25217
824.669	25122
824.809	25365
824.949	25171
825.089	25194
825.228	25244
825.368	24973
825.508	25019
825.648	25053
825.787	25050
825.927	25042
826.067	24901
826.206	24939
826.346	25004
826.485	25057
826.625	24886
826.765	25122
826.904	25156
827.044	24760
827.183	24802
827.323	24601
827.462	24684
827.601	24848
827.741	24715
827.88	24631
828.02	24578
828.159	24677
828.298	24711
828.437	24825
828.577	24658
828.716	24837
828.855	24673
828.994	24403
829.134	24365
829.273	24490
829.412	24380
829.551	24224
829.69	24437
829.829	24479
829.968	24525
830.107	24460
830.246	24319
830.385	24410
830.524	24327
830.663	24258
830.802	24060
830.941	24026
831.08	23977
831.219	24117
831.357	24091
831.496	24304
831.635	24018
831.774	23992
831.913	24015
832.051	23840
832.19	23790
832.329	23961
832.467	23695
832.606	23718
832.744	23649
832.883	23775
833.022	23737
833.16	23760
833.299	23821
833.437	23710
833.576	23771
833.714	23779
833.852	23824
833.991	23817
834.129	23901
834.267	23950
834.406	23961
834.544	23790
834.682	23752
834.821	23756
834.959	23969
835.097	23680
835.235	23737
835.373	23794
835.511	23775
835.65	23634
835.788	23657
835.926	23558
836.064	23509
836.202	23570
836.34	23531
836.478	23817
836.615	23524
836.753	23653
836.891	23646
837.029	23547
837.167	23471
837.305	23551
837.443	23376
837.58	23398
837.718	23592
837.856	23455
837.993	23379
838.131	23395
838.269	23311
838.406	23372
838.544	23356
838.681	23140
838.819	23102
838.956	22991
839.094	22839
839.231	22980
839.369	23242
839.506	23360
839.643	23159
839.781	22934
839.918	22923
840.055	22968
840.193	22820
840.33	22847
840.467	22782
840.604	22930
840.742	23132
840.879	22736
841.016	22801
841.153	22668
841.29	22995
841.427	22904
841.564	22896
841.701	22820
841.838	22771
841.975	22843
842.112	22786
842.249	22485
842.385	22694
842.522	22771
842.659	22634
842.796	22489
842.933	22565
843.069	22561
843.206	22508
843.343	22721
843.479	22782
843.616	22653
843.752	22481
843.889	22561
844.025	22557
844.162	22466
844.298	22481
844.435	22447
844.571	22299
844.708	22421
844.844	22459
844.98	22577
845.117	22531
845.253	22299
845.389	22325
845.525	22344
845.661	22226
845.798	22082
845.934	22291
846.07	22048
846.206	22188
846.342	22333
846.478	22158
846.614	21899
846.75	21778
846.886	21838
847.022	21975
847.158	21873
847.294	22029
847.429	21941
847.565	21953
847.701	22048
847.837	21739
847.972	21610
848.108	21724
848.244	21648
848.379	21416
848.515	21458
848.65	21351
848.786	21545
848.921	21435
849.057	21519
849.192	21564
849.328	21416
849.463	21393
849.598	21351
849.734	21405
849.869	21382
850.004	21211
850.14	21340
850.275	21329
850.41	21207
850.545	21241
850.68	21039
850.815	21367
850.95	21230
851.085	21519
851.22	21256
851.355	21233
851.49	21237
851.625	21260
851.76	21165
851.895	21135
852.03	21104
852.165	21157
852.299	21370
852.434	21302
852.569	21332
852.703	21195
852.838	21260
852.973	21469
853.107	21313
853.242	21188
853.376	21013
853.511	21001
853.645	20971
853.78	21135
853.914	21173
854.048	21039
854.183	20929
854.317	21009
854.451	21363
854.585	20960
854.72	21135
854.854	21032
854.988	21017
855.122	21024
855.256	20906
855.39	21001
855.524	21108
855.658	21154
855.792	21043
855.926	21074
856.06	21074
856.194	21176
856.327	20990
856.461	21032
856.595	20986
856.729	21070
856.862	21226
856.996	20975
857.13	21116
857.263	21169
857.397	21146
857.53	21085
857.664	21051
857.797	21070
857.931	21127
858.064	21047
858.197	21123
858.331	21001
858.464	21100
858.597	20982
858.731	20941
858.864	21077
858.997	20914
859.13	21051
859.263	21066
859.396	21112
859.529	21047
859.662	20933
859.795	20891
859.928	21089
860.061	21222
860.194	21260
860.327	21180
860.46	21009
860.592	21211
860.725	21195
860.858	21184
860.99	21051
861.123	20895
861.256	20990
861.388	21119
861.521	21717
861.653	20891
861.786	20899
861.918	20887
862.05	20971
862.183	21005
862.315	20937
862.447	21070
862.58	20857
862.712	20697
862.844	20716
862.976	20788
863.108	20853
863.24	21173
863.372	20701
863.504	20792
863.636	20804
863.768	20807
863.9	20705
864.032	20746
864.164	20731
864.296	20712
864.428	20998
864.559	20853
864.691	20941
864.823	20781
864.954	20743
865.086	20800
865.217	20701
865.349	20499
865.48	20667
865.612	20598
865.743	20746
865.875	20674
866.006	20632
866.137	20625
866.269	20640
866.4	20598
866.531	20549
866.662	20514
866.793	20720
866.924	20499
867.055	20655
867.186	20689
867.317	20617
867.448	20518
867.579	20492
867.71	20556
867.841	20549
867.972	20446
868.103	20609
868.233	20621
868.364	20522
868.495	20769
868.625	20960
868.756	20975
868.886	20762
869.017	20804
869.147	20937
869.278	20952
869.408	20823
869.539	20838
869.669	20975
869.799	20842
869.929	20960
870.06	20937
870.19	21116
870.32	21062
870.45	21150
870.58	21260
870.71	21264
870.84	21241
870.97	21264
871.1	21287
871.23	21462
871.36	21477
871.489	21291
871.619	21378
871.749	21492
871.879	21462
872.008	21504
872.138	21477
872.267	21367
872.397	21298
872.526	21214
872.656	21306
872.785	21294
872.915	21511
873.044	21443
873.173	21405
873.303	21587
873.432	21504
873.561	21610
873.69	21496
873.819	21500
873.948	21542
874.077	21568
874.206	21466
874.335	21401
874.464	21545
874.593	21686
874.722	21561
874.851	21747
874.979	21747
875.108	21774
875.237	21595
875.365	21717
875.494	21599
875.623	21827
875.751	21663
875.88	21739
876.008	21774
876.136	21926
876.265	22059
876.393	22109
876.521	22048
876.65	22063
876.778	22135
876.906	22131
877.034	21918
877.162	22112
877.29	21998
877.418	22059
877.546	22067
877.674	22010
877.802	21918
877.93	21987
878.058	21911
878.185	21873
878.313	21953
878.441	21983
878.568	21937
878.696	21945
878.824	22048
878.951	22112
879.079	22303
879.206	22413
879.333	22215
879.461	22032
879.588	22093
879.715	22188
879.842	22177
879.97	22257
880.097	21926
880.224	21827
880.351	21956
880.478	21842
880.605	21865
880.732	21816
880.859	22040
880.986	21899
881.112	21865
881.239	21739
881.366	21618
881.493	21618
881.619	21538
881.746	21431
881.872	21450
881.999	21424
882.125	21473
882.252	21401
882.378	21424
882.505	21606
882.631	21317
882.757	21218
882.883	21306
883.01	21211
883.136	21169
883.262	21070
883.388	20883
883.514	21127
883.64	21199
883.766	21100
883.892	21036
884.018	20971
884.143	21146
884.269	21165
884.395	20804
884.52	20777
884.646	20731
884.772	20640
884.897	20674
885.023	20804
885.148	20823
885.274	20914
885.399	20944
885.524	20880
885.65	20842
885.775	20788
885.9	20853
886.025	20902
886.15	20781
886.275	20625
886.4	20667
886.525	20796
886.65	20667
886.775	20648
886.9	20921
887.025	20986
887.149	20891
887.274	20499
887.399	20571
887.523	20533
887.648	20514
887.773	20381
887.897	20518
888.021	20651
888.146	20625
888.27	20613
888.395	20594
888.519	20705
888.643	20522
888.767	20667
888.891	20389
889.015	20317
889.139	20427
889.263	20301
889.387	20393
889.511	20621
889.635	20492
889.759	20324
889.883	20320
890.006	20240
890.13	20389
890.254	20271
890.377	20332
890.501	20084
890.624	20100
890.748	20229
890.871	20016
890.995	19868
891.118	19818
891.241	19917
891.364	19944
891.488	20073
891.611	20058
891.734	19993
891.857	19932
891.98	19932
892.103	19993
892.226	19932
892.349	19936
892.471	19788
892.594	19822
892.717	19887
892.839	19883
892.962	19959
893.085	19856
893.207	19921
893.33	19814
893.452	19822
893.575	19864
893.697	19803
893.819	20012
893.941	20183
894.064	19932
894.186	19715
894.308	19788
894.43	19864
894.552	20046
894.674	19936
894.796	19830
894.918	19723
895.04	19784
895.161	19879
895.283	19845
895.405	19761
895.526	19837
895.648	19753
895.769	19833
895.891	19883
896.012	19970
896.134	19833
896.255	19890
896.376	19742
896.498	19940
896.619	19902
896.74	19822
896.861	19826
896.982	20290
897.103	20233
897.224	20119
897.345	20020
897.466	19974
897.587	20058
897.708	20244
897.828	20122
897.949	20031
898.07	19989
898.19	19894
898.311	20134
898.431	20020
898.552	20039
898.672	20096
898.792	20157
898.913	20065
899.033	19932
899.153	19791
899.273	19814
899.393	19879
899.513	19879
899.633	19772
899.753	19814
899.873	19917
899.993	19780
900.113	19784
900.232	19795
900.352	19700
900.472	19567
900.591	19685
900.711	19670
900.83	19480
900.95	19757
901.069	19670
901.189	19422
901.308	19373
901.427	19160
901.546	19190
901.665	19244
901.784	19133
901.904	19114
902.023	18897
902.141	18829
902.26	18726
902.379	18768
902.498	18787
902.617	18642
902.735	18696
902.854	18642
902.973	18650
903.091	18418
903.21	18460
903.328	18486
903.446	18277
903.565	18216
903.683	18163
903.801	18102
903.919	18174
904.038	18117
904.156	17984
904.274	18098
904.392	17866
904.51	17935
904.627	17958
904.745	17996
904.863	18019
904.981	17817
905.098	17630
905.216	17668
905.334	17710
905.451	17703
905.569	17600
905.686	17653
905.803	17562
905.921	17482
906.038	17539
906.155	17337
906.272	17410
906.389	17330
906.506	17197
906.623	17200
906.74	17174
906.857	17022
906.974	17071
907.091	17212
907.208	17318
907.324	17216
907.441	17064
907.557	16908
907.674	16805
907.79	16923
907.907	16976
908.023	16942
908.139	16911
908.256	16778
908.372	16713
908.488	16740
908.604	16710
908.72	16603
908.836	16664
908.952	16527
909.068	16599
909.184	16774
909.3	16736
909.415	16668
909.531	16660
909.647	16348
909.762	16284
909.878	16329
909.993	16341
910.108	16291
910.224	16303
910.339	16295
910.454	16143
910.57	15994
910.685	16093
910.8	16287
910.915	16299
911.03	16067
911.145	15975
911.259	15827
911.374	15884
911.489	15755
911.604	15736
911.718	15622
911.833	15690
911.947	15511
912.062	15500
912.176	15561
912.291	15572
912.405	15614
912.519	15892
912.633	15778
912.748	15644
912.862	15644
912.976	15496
913.09	15435
913.204	15439
913.318	15401
913.431	15553
913.545	15538
913.659	15561
913.772	15488
913.886	15317
914	15249
914.113	15397
914.226	15321
914.34	15420
914.453	15131
914.566	15180
914.68	15112
914.793	15233
914.906	14910
915.019	14937
915.132	14868
915.245	14872
915.358	14960
915.47	14941
915.583	14819
915.696	14861
915.809	15009
915.921	15013
916.034	14872
916.146	14807
916.259	14899
916.371	14880
916.483	14788
916.595	14701
916.708	14762
916.82	14830
916.932	14788
917.044	14670
917.156	14613
917.268	14549
917.38	14629
917.491	14465
917.603	14579
917.715	14629
917.826	14651
917.938	14457
918.049	14446
918.161	14583
918.272	14655
918.384	14640
918.495	14556
918.606	14408
918.717	14305
918.828	14294
918.939	14351
919.05	14267
919.161	14305
919.272	14054
919.383	14176
919.494	14355
919.604	14632
919.715	14313
919.826	14237
919.936	14199
920.047	14351
920.157	14210
920.267	14507
920.378	14275
920.488	14187
920.598	14469
920.708	14476
920.818	14366
920.928	14415
921.038	14495
921.148	14556
921.258	14278
921.368	14149
921.477	14054
921.587	14031
921.697	13909
921.806	13963
921.916	13887
922.025	13712
922.134	13723
922.244	13700
922.353	13677
922.462	13613
922.571	13434
922.68	13400
922.789	13438
922.898	13312
923.007	13301
923.116	13327
923.224	13362
923.333	13274
923.442	13202
923.55	13061
923.659	13141
923.767	13164
923.876	13088
923.984	13202
924.092	13042
924.201	13076
924.309	13080
924.417	13050
924.525	12939
924.633	13053
924.741	13685
924.849	12738
924.956	12966
925.064	12882
925.172	12768
925.279	12639
925.387	12817
925.494	12764
925.602	12852
925.709	12692
925.816	12639
925.924	12639
926.031	12730
926.138	12711
926.245	12779
926.352	12597
926.459	12741
926.566	12741
926.673	12635
926.779	12578
926.886	12486
926.993	12395
927.099	12452
927.206	12281
927.312	12266
927.419	12418
927.525	12357
927.631	12262
927.737	12270
927.843	12171
927.95	12038
928.056	12163
928.162	12125
928.267	12205
928.373	12654
928.479	12213
928.585	11980
928.69	12102
928.796	12102
928.901	11984
929.007	11843
929.112	12053
929.218	11946
929.323	11904
929.428	11920
929.533	12022
929.638	11843
929.743	11805
929.848	11904
929.953	11821
930.058	11703
930.163	11551
930.267	11623
930.372	11699
930.477	11551
930.581	11802
930.685	11615
930.79	11417
930.894	11524
930.998	11429
931.103	11532
931.207	11246
931.311	11128
931.415	11056
931.519	10934
931.623	10862
