Data from test_V78500241_2928.txt Node
Date: Fri Mar 25 15:30:14 CST 2022
User: usil
Spectrometer: V785-0024
Trigger mode: 0
Integration Time (sec): 4.000000E-1
Scans to average: 1
Nonlinearity correction enabled: false
Boxcar width: 0
Storing dark spectrum: false
XAxis mode: Wavelengths
Number of Pixels in Spectrum: 1024
>>>>>Begin Spectral Data<<<<<
801.071	27359
801.214	27279
801.356	26940
801.499	26998
801.641	26743
801.783	26853
801.926	26937
802.068	26853
802.211	26602
802.353	26720
802.496	26587
802.638	26469
802.78	26549
802.923	26492
803.065	26206
803.208	26305
803.35	26415
803.492	26431
803.635	26602
803.777	26488
803.919	26594
804.061	26880
804.204	26606
804.346	26602
804.488	26396
804.63	26682
804.773	26298
804.915	26590
805.057	26651
805.199	26575
805.341	26743
805.483	26769
805.626	26792
805.768	26731
805.91	26739
806.052	26788
806.194	26708
806.336	26758
806.478	26579
806.62	26693
806.762	26693
806.904	27001
807.046	27123
807.188	27096
807.33	27218
807.472	27184
807.614	27096
807.756	27180
807.898	26990
808.04	26914
808.182	26891
808.324	27062
808.465	27058
808.607	27203
808.749	27351
808.891	27348
809.033	27408
809.174	27348
809.316	27287
809.458	27435
809.6	27264
809.741	27378
809.883	27462
810.025	27515
810.166	27549
810.308	27709
810.45	27603
810.591	27515
810.733	27344
810.875	27344
811.016	27298
811.158	27161
811.299	27473
811.441	27469
811.582	27526
811.724	27363
811.865	27348
812.007	27298
812.148	27230
812.29	27485
812.431	27485
812.573	27500
812.714	27739
812.855	27705
812.997	27991
813.138	27994
813.279	27922
813.421	27846
813.562	27724
813.703	27595
813.845	27553
813.986	27287
814.127	27096
814.268	27039
814.41	26929
814.551	26937
814.692	27195
814.833	27020
814.974	26963
815.115	26967
815.256	26792
815.397	26872
815.539	26845
815.68	26705
815.821	26644
815.962	26785
816.103	26727
816.244	26720
816.385	26640
816.526	26438
816.666	26438
816.807	26240
816.948	26389
817.089	26313
817.23	26248
817.371	26199
817.512	26267
817.653	26088
817.793	26240
817.934	26233
818.075	26419
818.216	26415
818.356	26081
818.497	26191
818.638	25902
818.778	25974
818.919	25879
819.06	26149
819.2	26134
819.341	26259
819.481	26187
819.622	26256
819.762	26556
819.903	26495
820.043	26358
820.184	26328
820.324	26446
820.465	26412
820.605	26332
820.746	26290
820.886	26130
821.026	26286
821.167	26248
821.307	26267
821.447	26240
821.588	26081
821.728	25978
821.868	25871
822.008	25738
822.149	25674
822.289	25689
822.429	25491
822.569	25392
822.709	25350
822.849	25198
822.99	25209
823.13	25168
823.27	25015
823.41	25023
823.55	24970
823.69	25042
823.83	25034
823.97	25042
824.11	24734
824.25	24734
824.389	24810
824.529	24856
824.669	24890
824.809	24954
824.949	24894
825.089	24886
825.228	24943
825.368	24700
825.508	24631
825.648	24631
825.787	24612
825.927	24886
826.067	24738
826.206	24658
826.346	24719
826.485	24593
826.625	24684
826.765	24833
826.904	24673
827.044	24445
827.183	24471
827.323	24304
827.462	24437
827.601	24391
827.741	24281
827.88	24536
828.02	24376
828.159	24270
828.298	24300
828.437	24494
828.577	24277
828.716	24460
828.855	24285
828.994	24057
829.134	23939
829.273	24144
829.412	24060
829.551	24140
829.69	24251
829.829	23931
829.968	24254
830.107	24076
830.246	24140
830.385	24053
830.524	23939
830.663	23889
830.802	23745
830.941	23672
831.08	23714
831.219	23726
831.357	23748
831.496	23764
831.635	23657
831.774	23592
831.913	23429
832.051	23398
832.19	23482
832.329	23455
832.467	23562
832.606	23345
832.744	23425
832.883	23345
833.022	23318
833.16	23265
833.299	23356
833.437	23337
833.576	23318
833.714	23387
833.852	23512
833.991	23433
834.129	23425
834.267	23531
834.406	23455
834.544	23444
834.682	23379
834.821	23353
834.959	23653
835.097	23417
835.235	23349
835.373	23410
835.511	23486
835.65	23280
835.788	23136
835.926	23109
836.064	23022
836.202	23014
836.34	23151
836.478	23288
836.615	23254
836.753	23391
836.891	23258
837.029	23212
837.167	23136
837.305	23124
837.443	23159
837.58	22980
837.718	23208
837.856	23136
837.993	23083
838.131	22991
838.269	22938
838.406	23052
838.544	22862
838.681	22687
838.819	22679
838.956	22592
839.094	22459
839.231	22622
839.369	22755
839.506	22892
839.643	22698
839.781	22542
839.918	22474
840.055	22519
840.193	22546
840.33	22455
840.467	22584
840.604	22645
840.742	22710
840.879	22356
841.016	22428
841.153	22390
841.29	22554
841.427	22432
841.564	22550
841.701	22459
841.838	22542
841.975	22432
842.112	22409
842.249	22287
842.385	22295
842.522	22592
842.659	22253
842.796	22257
842.933	22287
843.069	22230
843.206	22177
843.343	22310
843.479	22219
843.616	22154
843.752	22032
843.889	22017
844.025	22177
844.162	22021
844.298	22242
844.435	22048
844.571	21968
844.708	22120
844.844	22143
844.98	22086
845.117	22097
845.253	21994
845.389	21918
845.525	21926
845.661	21808
845.798	21686
845.934	21789
846.07	21873
846.206	21808
846.342	21816
846.478	21797
846.614	21580
846.75	21329
846.886	21473
847.022	21485
847.158	21538
847.294	21485
847.429	21473
847.565	21488
847.701	21717
847.837	21112
847.972	21241
848.108	21310
848.244	21336
848.379	21093
848.515	21192
848.65	21055
848.786	21051
848.921	21104
849.057	21131
849.192	21165
849.328	21062
849.463	21043
849.598	21036
849.734	20986
849.869	20845
850.004	20937
850.14	20937
850.275	20883
850.41	20773
850.545	20785
850.68	20830
850.815	20971
850.95	20781
851.085	20986
851.22	20914
851.355	20807
851.49	20864
851.625	20845
851.76	20834
851.895	20948
852.03	20819
852.165	20906
852.299	20868
852.434	20880
852.569	20826
852.703	20853
852.838	20861
852.973	21013
853.107	20918
853.242	20883
853.376	20644
853.511	20575
853.645	20670
853.78	20762
853.914	20530
854.048	20758
854.183	20651
854.317	20727
854.451	20853
854.585	20796
854.72	20632
854.854	20727
854.988	20495
855.122	20701
855.256	20602
855.39	20693
855.524	20769
855.658	20689
855.792	20716
855.926	20621
856.06	20659
856.194	20731
856.327	20568
856.461	20701
856.595	20629
856.729	20552
856.862	20849
856.996	20724
857.13	20727
857.263	20804
857.397	20834
857.53	20533
857.664	20625
857.797	20735
857.931	20724
858.064	20640
858.197	20819
858.331	20632
858.464	20640
858.597	20590
858.731	20503
858.864	20663
858.997	20587
859.13	20648
859.263	20655
859.396	20807
859.529	20583
859.662	20526
859.795	20522
859.928	20804
860.061	20792
860.194	20815
860.327	20758
860.46	20564
860.592	20777
860.725	20842
860.858	20769
860.99	20804
861.123	20629
861.256	20541
861.388	20613
861.521	21226
861.653	20549
861.786	20522
861.918	20469
862.05	20625
862.183	20541
862.315	20537
862.447	20701
862.58	20526
862.712	20351
862.844	20298
862.976	20385
863.108	20473
863.24	20807
863.372	20423
863.504	20240
863.636	20358
863.768	20412
863.9	20362
864.032	20290
864.164	20358
864.296	20465
864.428	20427
864.559	20438
864.691	20404
864.823	20385
864.954	20336
865.086	20389
865.217	20328
865.349	20263
865.48	20271
865.612	20180
865.743	20393
865.875	20305
866.006	20183
866.137	20332
866.269	20351
866.4	20256
866.531	20328
866.662	20214
866.793	20267
866.924	20164
867.055	20153
867.186	20214
867.317	20305
867.448	20065
867.579	20138
867.71	20122
867.841	20134
867.972	20111
868.103	20244
868.233	20210
868.364	20195
868.495	20408
868.625	20484
868.756	20568
868.886	20358
869.017	20473
869.147	20446
869.278	20514
869.408	20438
869.539	20324
869.669	20560
869.799	20537
869.929	20640
870.06	20663
870.19	20750
870.32	20727
870.45	20743
870.58	20781
870.71	20811
870.84	20990
870.97	20918
871.1	20777
871.23	21043
871.36	21089
871.489	20921
871.619	21024
871.749	21058
871.879	21116
872.008	21165
872.138	21001
872.267	21062
872.397	20937
872.526	20895
872.656	20952
872.785	20880
872.915	21062
873.044	21157
873.173	21165
873.303	21131
873.432	21108
873.561	21298
873.69	21093
873.819	21131
873.948	21260
874.077	21005
874.206	21108
874.335	21112
874.464	21131
874.593	21420
874.722	21313
874.851	21291
874.979	21386
875.108	21431
875.237	21203
875.365	21264
875.494	21249
875.623	21302
875.751	21241
875.88	21447
876.008	21374
876.136	21515
876.265	21713
876.393	21823
876.521	21865
876.65	21903
876.778	21743
876.906	21690
877.034	21610
877.162	21686
877.29	21759
877.418	21580
877.546	21652
877.674	21652
877.802	21568
877.93	21667
878.058	21644
878.185	21519
878.313	21587
878.441	21671
878.568	21424
878.696	21637
878.824	21648
878.951	21816
879.079	21975
879.206	21930
879.333	21861
879.461	21732
879.588	21724
879.715	21797
879.842	21987
879.97	21724
880.097	21561
880.224	21576
880.351	21545
880.478	21545
880.605	21496
880.732	21481
880.859	21732
880.986	21412
881.112	21504
881.239	21351
881.366	21214
881.493	21119
881.619	21096
881.746	21135
881.872	21047
881.999	21051
882.125	21032
882.252	20956
882.378	20990
882.505	21100
882.631	20990
882.757	20872
882.883	20845
883.01	20781
883.136	20674
883.262	20788
883.388	20571
883.514	20731
883.64	20788
883.766	20705
883.892	20583
884.018	20651
884.143	20785
884.269	20682
884.395	20606
884.52	20408
884.646	20457
884.772	20446
884.897	20332
885.023	20423
885.148	20503
885.274	20564
885.399	20522
885.524	20366
885.65	20503
885.775	20495
885.9	20404
886.025	20484
886.15	20461
886.275	20412
886.4	20256
886.525	20400
886.65	20427
886.775	20366
886.9	20514
887.025	20739
887.149	20336
887.274	20191
887.399	20199
887.523	20191
887.648	20130
887.773	20206
887.897	20271
888.021	20263
888.146	20111
888.27	20305
888.395	20233
888.519	20328
888.643	20252
888.767	20199
888.891	20145
889.015	19974
889.139	20138
889.263	19951
889.387	20122
889.511	20145
889.635	20039
889.759	20012
889.883	19989
890.006	20039
890.13	20103
890.254	19906
890.377	19944
890.501	19753
890.624	19776
890.748	19780
890.871	19719
890.995	19529
891.118	19719
891.241	19559
891.364	19609
891.488	19696
891.611	19666
891.734	19658
891.857	19647
891.98	19635
892.103	19620
892.226	19696
892.349	19362
892.471	19491
892.594	19441
892.717	19556
892.839	19529
892.962	19518
893.085	19548
893.207	19518
893.33	19400
893.452	19434
893.575	19586
893.697	19597
893.819	19613
893.941	19719
894.064	19742
894.186	19487
894.308	19407
894.43	19567
894.552	19666
894.674	19643
894.796	19457
894.918	19651
895.04	19575
895.161	19582
895.283	19571
895.405	19491
895.526	19578
895.648	19605
895.769	19556
895.891	19548
896.012	19567
896.134	19468
896.255	19491
896.376	19499
896.498	19422
896.619	19597
896.74	19544
896.861	19586
896.982	19871
897.103	19997
897.224	19776
897.345	19875
897.466	19616
897.587	19731
897.708	19799
897.828	19765
897.949	19738
898.07	19567
898.19	19784
898.311	19871
898.431	19704
898.552	19776
898.672	19822
898.792	19841
898.913	19689
899.033	19685
899.153	19563
899.273	19438
899.393	19651
899.513	19594
899.633	19533
899.753	19609
899.873	19464
899.993	19578
900.113	19499
900.232	19480
900.352	19449
900.472	19316
900.591	19293
900.711	19289
900.83	19354
900.95	19388
901.069	19480
901.189	19148
901.308	19015
901.427	18939
901.546	18745
901.665	18863
901.784	18951
901.904	18791
902.023	18665
902.141	18441
902.26	18559
902.379	18540
902.498	18433
902.617	18433
902.735	18475
902.854	18365
902.973	18300
903.091	18209
903.21	18125
903.328	18076
903.446	17999
903.565	17942
903.683	17973
903.801	17779
903.919	17870
904.038	17889
904.156	17748
904.274	17703
904.392	17775
904.51	17623
904.627	17619
904.745	17668
904.863	17783
904.981	17414
905.098	17376
905.216	17296
905.334	17440
905.451	17391
905.569	17349
905.686	17387
905.803	17345
905.921	17128
906.038	17143
906.155	17185
906.272	17064
906.389	17052
906.506	16991
906.623	16881
906.74	16942
906.857	16698
906.974	16763
907.091	16831
907.208	17090
907.324	16862
907.441	16885
907.557	16603
907.674	16717
907.79	16497
907.907	16611
908.023	16611
908.139	16622
908.256	16405
908.372	16512
908.488	16436
908.604	16432
908.72	16405
908.836	16375
908.952	16272
909.068	16329
909.184	16489
909.3	16348
909.415	16360
909.531	16436
909.647	16101
909.762	16093
909.878	15945
909.993	16128
910.108	16059
910.224	15953
910.339	15941
910.454	15934
910.57	15926
910.685	15880
910.8	15987
910.915	16048
911.03	15793
911.145	15785
911.259	15603
911.374	15679
911.489	15534
911.604	15526
911.718	15344
911.833	15530
911.947	15431
912.062	15233
912.176	15412
912.291	15458
912.405	15447
912.519	15660
912.633	15561
912.748	15443
912.862	15435
912.976	15131
913.09	15085
913.204	15207
913.318	15169
913.431	15317
913.545	15329
913.659	15298
913.772	15199
913.886	15043
914	15100
914.113	15135
914.226	15074
914.34	14994
914.453	14857
914.566	14979
914.68	14857
914.793	14868
914.906	14705
915.019	14636
915.132	14602
915.245	14537
915.358	14815
915.47	14746
915.583	14594
915.696	14777
915.809	14716
915.921	14796
916.034	14629
916.146	14552
916.259	14552
916.371	14720
916.483	14629
916.595	14442
916.708	14568
916.82	14412
916.932	14465
917.044	14423
917.156	14412
917.268	14305
917.38	14454
917.491	14313
917.603	14317
917.715	14324
917.826	14393
917.938	14244
918.049	14199
918.161	14309
918.272	14358
918.384	14450
918.495	14256
918.606	14164
918.717	14054
918.828	14187
918.939	14149
919.05	13963
919.161	14069
919.272	13898
919.383	13955
919.494	14077
919.604	14282
919.715	14069
919.826	13982
919.936	14065
920.047	14168
920.157	14050
920.267	14240
920.378	14081
920.488	14031
920.598	14180
920.708	14267
920.818	14149
920.928	14199
921.038	14423
921.148	14259
921.258	13993
921.368	13887
921.477	13849
921.587	13772
921.697	13658
921.806	13871
921.916	13700
922.025	13552
922.134	13529
922.244	13411
922.353	13358
922.462	13396
922.571	13213
922.68	13137
922.789	13019
922.898	13225
923.007	12973
923.116	13183
923.224	13065
923.333	13091
923.442	13023
923.55	12901
923.659	12962
923.767	13034
923.876	12913
923.984	13027
924.092	12901
924.201	12867
924.309	12890
924.417	12935
924.525	12806
924.633	12787
924.741	13712
924.849	12555
924.956	12810
925.064	12509
925.172	12452
925.279	12570
925.387	12566
925.494	12479
925.602	12650
925.709	12578
925.816	12429
925.924	12490
926.031	12528
926.138	12502
926.245	12426
926.352	12372
926.459	12578
926.566	12547
926.673	12429
926.779	12365
926.886	12285
926.993	12182
927.099	12091
927.206	12057
927.312	12079
927.419	12205
927.525	12152
927.631	12178
927.737	11965
927.843	11980
927.95	11939
928.056	11984
928.162	12019
928.267	11996
928.373	12703
928.479	12049
928.585	11756
928.69	11851
928.796	11885
928.901	11821
929.007	11748
929.112	11821
929.218	11737
929.323	11752
929.428	11729
929.533	11752
929.638	11676
929.743	11642
929.848	11608
929.953	11600
930.058	11608
930.163	11448
930.267	11391
930.372	11554
930.477	11231
930.581	11627
930.685	11478
930.79	11349
930.894	11292
930.998	11280
931.103	11421
931.207	11060
931.311	10995
931.415	10866
931.519	10694
931.623	10649
