Data from test_V78500241_629.txt Node
Date: Fri Mar 25 15:14:14 CST 2022
User: usil
Spectrometer: V785-0024
Trigger mode: 0
Integration Time (sec): 4.000000E-1
Scans to average: 1
Nonlinearity correction enabled: false
Boxcar width: 0
Storing dark spectrum: false
XAxis mode: Wavelengths
Number of Pixels in Spectrum: 1024
>>>>>Begin Spectral Data<<<<<
801.071	27709
801.214	27450
801.356	27401
801.499	27386
801.641	27157
801.783	27169
801.926	27298
802.068	27142
802.211	27116
802.353	27036
802.496	26925
802.638	26807
802.78	26845
802.923	26788
803.065	26785
803.208	26735
803.35	26727
803.492	26804
803.635	27100
803.777	26781
803.919	27074
804.061	27256
804.204	26921
804.346	26773
804.488	26834
804.63	26891
804.773	26861
804.915	27020
805.057	27028
805.199	27001
805.341	27123
805.483	27157
805.626	27051
805.768	26986
805.91	27047
806.052	27157
806.194	26975
806.336	27344
806.478	27150
806.62	27176
806.762	27237
806.904	27367
807.046	27717
807.188	27572
807.33	27629
807.472	27606
807.614	27523
807.756	27488
807.898	27332
808.04	27310
808.182	27291
808.324	27386
808.465	27447
808.607	27568
808.749	27641
808.891	27793
809.033	27816
809.174	27842
809.316	27892
809.458	27835
809.6	27778
809.741	27899
809.883	27926
810.025	28029
810.166	28169
810.308	28074
810.45	28017
810.591	27979
810.733	27949
810.875	27854
811.016	27599
811.158	27595
811.299	27823
811.441	28063
811.582	28017
811.724	27705
811.865	27671
812.007	27804
812.148	27736
812.29	27808
812.431	27930
812.573	27991
812.714	28200
812.855	28226
812.997	28394
813.138	28516
813.279	28523
813.421	28375
813.562	28257
813.703	28128
813.845	28078
813.986	27682
814.127	27545
814.268	27481
814.41	27511
814.551	27526
814.692	27568
814.833	27317
814.974	27397
815.115	27450
815.256	27336
815.397	27313
815.539	27351
815.68	27408
815.821	27138
815.962	27332
816.103	27169
816.244	27146
816.385	27112
816.526	26921
816.666	26834
816.807	26781
816.948	26758
817.089	26758
817.23	26758
817.371	26629
817.512	26754
817.653	26705
817.793	26731
817.934	26762
818.075	26830
818.216	26667
818.356	26769
818.497	26568
818.638	26488
818.778	26549
818.919	26415
819.06	26587
819.2	26655
819.341	26750
819.481	26788
819.622	26971
819.762	27058
819.903	27058
820.043	26895
820.184	26902
820.324	26796
820.465	26979
820.605	26986
820.746	26861
820.886	26739
821.026	27017
821.167	26845
821.307	26887
821.447	26762
821.588	26514
821.728	26453
821.868	26332
822.008	26271
822.149	26214
822.289	26130
822.429	25993
822.569	26012
822.709	25925
822.849	25856
822.99	25742
823.13	25803
823.27	25776
823.41	25552
823.55	25449
823.69	25506
823.83	25495
823.97	25434
824.11	25293
824.25	25377
824.389	25346
824.529	25472
824.669	25251
824.809	25419
824.949	25521
825.089	25365
825.228	25510
825.368	25289
825.508	25160
825.648	25179
825.787	25301
825.927	25187
826.067	25198
826.206	25236
826.346	25278
826.485	25251
826.625	25164
826.765	25324
826.904	25274
827.044	24954
827.183	25114
827.323	25031
827.462	24954
827.601	25031
827.741	24890
827.88	24890
828.02	24909
828.159	24977
828.298	24878
828.437	24954
828.577	24791
828.716	24951
828.855	24749
828.994	24654
829.134	24604
829.273	24650
829.412	24738
829.551	24707
829.69	24566
829.829	24684
829.968	24635
830.107	24551
830.246	24498
830.385	24559
830.524	24521
830.663	24467
830.802	24372
830.941	24308
831.08	24350
831.219	24365
831.357	24330
831.496	24547
831.635	24213
831.774	24060
831.913	24121
832.051	23984
832.19	24018
832.329	24163
832.467	23916
832.606	23863
832.744	23946
832.883	23882
833.022	23878
833.16	23923
833.299	24064
833.437	23965
833.576	24155
833.714	24038
833.852	24091
833.991	23992
834.129	24076
834.267	24060
834.406	23992
834.544	24083
834.682	23984
834.821	23885
834.959	24152
835.097	23840
835.235	24079
835.373	24076
835.511	23961
835.65	23977
835.788	23878
835.926	23726
836.064	23707
836.202	23638
836.34	23783
836.478	23897
836.615	23824
836.753	23866
836.891	23882
837.029	23805
837.167	23996
837.305	23779
837.443	23798
837.58	23710
837.718	23741
837.856	23646
837.993	23619
838.131	23604
838.269	23467
838.406	23509
838.544	23493
838.681	23395
838.819	23326
838.956	23235
839.094	23086
839.231	23235
839.369	23292
839.506	23524
839.643	23482
839.781	23067
839.918	23048
840.055	23212
840.193	23079
840.33	22976
840.467	23029
840.604	23178
840.742	23258
840.879	22987
841.016	23003
841.153	23064
841.29	23090
841.427	22965
841.564	23014
841.701	23029
841.838	22930
841.975	23014
842.112	23003
842.249	22908
842.385	22854
842.522	23006
842.659	22949
842.796	22790
842.933	22645
843.069	22763
843.206	22790
843.343	22892
843.479	22904
843.616	22793
843.752	22565
843.889	22706
844.025	22691
844.162	22626
844.298	22668
844.435	22626
844.571	22516
844.708	22691
844.844	22835
844.98	22679
845.117	22683
845.253	22516
845.389	22504
845.525	22493
845.661	22500
845.798	22382
845.934	22447
846.07	22303
846.206	22253
846.342	22447
846.478	22295
846.614	22143
846.75	22124
846.886	22173
847.022	22067
847.158	22116
847.294	22040
847.429	22116
847.565	22029
847.701	22268
847.837	21884
847.972	21857
848.108	21930
848.244	22029
848.379	21743
848.515	21591
848.65	21766
848.786	21701
848.921	21766
849.057	21762
849.192	21770
849.328	21576
849.463	21644
849.598	21652
849.734	21500
849.869	21523
850.004	21614
850.14	21405
850.275	21507
850.41	21454
850.545	21412
850.68	21344
850.815	21530
850.95	21526
851.085	21564
851.22	21496
851.355	21397
851.49	21370
851.625	21393
851.76	21302
851.895	21408
852.03	21355
852.165	21443
852.299	21488
852.434	21500
852.569	21580
852.703	21412
852.838	21576
852.973	21507
853.107	21549
853.242	21351
853.376	21279
853.511	21192
853.645	21222
853.78	21363
853.914	21298
854.048	21272
854.183	21233
854.317	21283
854.451	21488
854.585	21241
854.72	21154
854.854	21325
854.988	21096
855.122	21294
855.256	21146
855.39	21275
855.524	21157
855.658	21203
855.792	21199
855.926	21272
856.06	21173
856.194	21332
856.327	21195
856.461	21142
856.595	21176
856.729	21245
856.862	21370
856.996	21317
857.13	21287
857.263	21382
857.397	21226
857.53	21222
857.664	21287
857.797	21378
857.931	21389
858.064	21287
858.197	21313
858.331	21116
858.464	21241
858.597	21013
858.731	21089
858.864	21077
858.997	21157
859.13	21241
859.263	21211
859.396	21412
859.529	21321
859.662	21249
859.795	21135
859.928	21329
860.061	21431
860.194	21462
860.327	21325
860.46	21237
860.592	21249
860.725	21431
860.858	21393
860.99	21294
861.123	21252
861.256	21173
861.388	21214
861.521	22006
861.653	21279
861.786	21093
861.918	21104
862.05	21245
862.183	21195
862.315	21195
862.447	21272
862.58	21062
862.712	20918
862.844	20948
862.976	21024
863.108	21074
863.24	21401
863.372	21009
863.504	20861
863.636	20944
863.768	20929
863.9	20952
864.032	20864
864.164	20864
864.296	20899
864.428	21100
864.559	20963
864.691	21074
864.823	20975
864.954	20971
865.086	20842
865.217	20868
865.349	20773
865.48	20845
865.612	20887
865.743	20944
865.875	20883
866.006	20857
866.137	20864
866.269	20716
866.4	20948
866.531	20765
866.662	20530
866.793	20731
866.924	20864
867.055	20868
867.186	20849
867.317	20872
867.448	20731
867.579	20777
867.71	20678
867.841	20727
867.972	20861
868.103	20788
868.233	20777
868.364	20868
868.495	20792
868.625	21024
868.756	21123
868.886	20929
869.017	21039
869.147	21119
869.278	21161
869.408	20990
869.539	21100
869.669	21157
869.799	21165
869.929	21180
870.06	21116
870.19	21294
870.32	21237
870.45	21332
870.58	21431
870.71	21519
870.84	21416
870.97	21367
871.1	21389
871.23	21561
871.36	21523
871.489	21450
871.619	21652
871.749	21599
871.879	21751
872.008	21747
872.138	21656
872.267	21663
872.397	21466
872.526	21466
872.656	21378
872.785	21458
872.915	21709
873.044	21743
873.173	21690
873.303	21652
873.432	21770
873.561	21633
873.69	21622
873.819	21667
873.948	21663
874.077	21641
874.206	21545
874.335	21542
874.464	21789
874.593	21873
874.722	21819
874.851	21926
874.979	21831
875.108	22097
875.237	21827
875.365	21892
875.494	21812
875.623	22029
875.751	21857
875.88	21903
876.008	22025
876.136	21991
876.265	22333
876.393	22375
876.521	22291
876.65	22329
876.778	22265
876.906	22219
877.034	22325
877.162	22226
877.29	22234
877.418	22143
877.546	22242
877.674	22124
877.802	22257
877.93	22166
878.058	22226
878.185	22150
878.313	22173
878.441	22082
878.568	21983
878.696	22135
878.824	22204
878.951	22272
879.079	22413
879.206	22607
879.333	22462
879.461	22234
879.588	22356
879.715	22409
879.842	22508
879.97	22272
880.097	22013
880.224	22044
880.351	22059
880.478	22006
880.605	22010
880.732	21964
880.859	22272
880.986	22051
881.112	22036
881.239	21926
881.366	21736
881.493	21614
881.619	21625
881.746	21603
881.872	21625
881.999	21568
882.125	21500
882.252	21648
882.378	21644
882.505	21732
882.631	21488
882.757	21329
882.883	21454
883.01	21283
883.136	21195
883.262	21157
883.388	21195
883.514	21291
883.64	21351
883.766	21252
883.892	21017
884.018	21173
884.143	21370
884.269	21199
884.395	21024
884.52	20933
884.646	20944
884.772	20975
884.897	20876
885.023	20918
885.148	21089
885.274	21096
885.399	21017
885.524	21028
885.65	20998
885.775	20944
885.9	20944
886.025	21096
886.15	21043
886.275	20929
886.4	20956
886.525	20952
886.65	20731
886.775	20914
886.9	21005
887.025	21051
887.149	20967
887.274	20788
887.399	20804
887.523	20746
887.648	20617
887.773	20648
887.897	20724
888.021	20762
888.146	20708
888.27	20902
888.395	20845
888.519	20811
888.643	20804
888.767	20796
888.891	20678
889.015	20545
889.139	20552
889.263	20549
889.387	20667
889.511	20678
889.635	20651
889.759	20488
889.883	20499
890.006	20492
890.13	20663
890.254	20488
890.377	20457
890.501	20294
890.624	20248
890.748	20237
890.871	20202
890.995	20172
891.118	20126
891.241	20199
891.364	20157
891.488	20168
891.611	20001
891.734	20073
891.857	20229
891.98	20187
892.103	20126
892.226	20024
892.349	20077
892.471	19868
892.594	20065
892.717	20073
892.839	19898
892.962	20081
893.085	20077
893.207	20005
893.33	20012
893.452	20024
893.575	20050
893.697	19932
893.819	20122
893.941	20237
894.064	20084
894.186	19944
894.308	19906
894.43	20103
894.552	20229
894.674	20039
894.796	19845
894.918	20088
895.04	19921
895.161	20157
895.283	20008
895.405	20001
895.526	19974
895.648	19864
895.769	19936
895.891	20084
896.012	20024
896.134	19947
896.255	19967
896.376	20016
896.498	20058
896.619	19986
896.74	20012
896.861	20103
896.982	20393
897.103	20423
897.224	20313
897.345	20229
897.466	20168
897.587	20145
897.708	20301
897.828	20290
897.949	20305
898.07	20024
898.19	20180
898.311	20263
898.431	20138
898.552	20138
898.672	20263
898.792	20301
898.913	20271
899.033	20115
899.153	20050
899.273	19841
899.393	19989
899.513	19963
899.633	20005
899.753	19906
899.873	19864
899.993	20001
900.113	19928
900.232	19947
900.352	19925
900.472	19822
900.591	19731
900.711	19700
900.83	19719
900.95	19811
901.069	19753
901.189	19575
901.308	19407
901.427	19384
901.546	19346
901.665	19369
901.784	19426
901.904	19152
902.023	19160
902.141	18966
902.26	18897
902.379	19000
902.498	18871
902.617	18859
902.735	18867
902.854	18844
902.973	18779
903.091	18547
903.21	18540
903.328	18494
903.446	18422
903.565	18281
903.683	18308
903.801	18152
903.919	18342
904.038	18239
904.156	18178
904.274	18178
904.392	18057
904.51	17996
904.627	18076
904.745	18194
904.863	18076
904.981	17920
905.098	17836
905.216	17885
905.334	17805
905.451	17828
905.569	17714
905.686	17817
905.803	17866
905.921	17562
906.038	17722
906.155	17573
906.272	17505
906.389	17417
906.506	17414
906.623	17364
906.74	17345
906.857	17269
906.974	17239
907.091	17337
907.208	17395
907.324	17334
907.441	17204
907.557	17090
907.674	17090
907.79	16984
907.907	17022
908.023	17121
908.139	17128
908.256	16965
908.372	16892
908.488	16869
908.604	16809
908.72	16809
908.836	16740
908.952	16687
909.068	16767
909.184	16858
909.3	16733
909.415	16782
909.531	16687
909.647	16485
909.762	16455
909.878	16421
909.993	16497
910.108	16421
910.224	16398
910.339	16409
910.454	16325
910.57	16223
910.685	16265
910.8	16481
910.915	16478
911.03	16230
911.145	16051
911.259	16040
911.374	16036
911.489	16040
911.604	15873
911.718	15766
911.833	15789
911.947	15633
912.062	15606
912.176	15747
912.291	15785
912.405	15819
912.519	15907
912.633	15934
912.748	15823
912.862	15888
912.976	15709
913.09	15545
913.204	15572
913.318	15523
913.431	15675
913.545	15713
913.659	15652
913.772	15656
913.886	15496
914	15439
914.113	15519
914.226	15526
914.34	15545
914.453	15272
914.566	15473
914.68	15370
914.793	15211
914.906	15135
915.019	14979
915.132	14941
915.245	15081
915.358	15051
915.47	15043
915.583	15020
915.696	15017
915.809	15131
915.921	15154
916.034	14994
916.146	14804
916.259	14891
916.371	15043
916.483	15001
916.595	14815
916.708	14845
916.82	14834
916.932	14834
917.044	14788
917.156	14853
917.268	14762
917.38	14693
917.491	14697
917.603	14701
917.715	14724
917.826	14773
917.938	14644
918.049	14625
918.161	14613
918.272	14823
918.384	14800
918.495	14571
918.606	14438
918.717	14408
918.828	14503
918.939	14480
919.05	14396
919.161	14518
919.272	14271
919.383	14290
919.494	14465
919.604	14587
919.715	14389
919.826	14343
919.936	14370
920.047	14438
920.157	14351
920.267	14507
920.378	14434
920.488	14415
920.598	14454
920.708	14617
920.818	14530
920.928	14598
921.038	14678
921.148	14636
921.258	14328
921.368	14301
921.477	14278
921.587	14153
921.697	13913
921.806	14221
921.916	14062
922.025	13894
922.134	13822
922.244	13685
922.353	13879
922.462	13639
922.571	13533
922.68	13468
922.789	13499
922.898	13445
923.007	13430
923.116	13480
923.224	13331
923.333	13544
923.442	13270
923.55	13266
923.659	13255
923.767	13251
923.876	13171
923.984	13270
924.092	13164
924.201	13194
924.309	13190
924.417	13156
924.525	13179
924.633	13141
924.741	13864
924.849	12970
924.956	13042
925.064	12848
925.172	12852
925.279	12833
925.387	12939
925.494	12810
925.602	12977
925.709	12954
925.816	12791
925.924	12810
926.031	12920
926.138	12749
926.245	12863
926.352	12745
926.459	12772
926.566	12882
926.673	12726
926.779	12589
926.886	12616
926.993	12445
927.099	12426
927.206	12388
927.312	12410
927.419	12456
927.525	12452
927.631	12483
927.737	12327
927.843	12243
927.95	12175
928.056	12277
928.162	12251
928.267	12243
928.373	12848
928.479	12342
928.585	12079
928.69	12167
928.796	12285
928.901	12159
929.007	11939
929.112	12133
929.218	12057
929.323	11965
929.428	11980
929.533	12045
929.638	11897
929.743	11931
929.848	11980
929.953	11988
930.058	11779
930.163	11729
930.267	11760
930.372	11809
930.477	11608
930.581	11828
930.685	11745
930.79	11512
930.894	11570
930.998	11558
931.103	11570
931.207	11288
931.311	11170
931.415	11124
931.519	11018
931.623	10896
