Data from test_V78500241_343.txt Node
Date: Fri Mar 25 15:12:14 CST 2022
User: usil
Spectrometer: V785-0024
Trigger mode: 0
Integration Time (sec): 4.000000E-1
Scans to average: 1
Nonlinearity correction enabled: false
Boxcar width: 0
Storing dark spectrum: false
XAxis mode: Wavelengths
Number of Pixels in Spectrum: 1024
>>>>>Begin Spectral Data<<<<<
801.071	27184
801.214	26979
801.356	26800
801.499	26697
801.641	26648
801.783	26674
801.926	26716
802.068	26781
802.211	26583
802.353	26465
802.496	26339
802.638	26412
802.78	26309
802.923	26195
803.065	26229
803.208	26278
803.35	26282
803.492	26404
803.635	26473
803.777	26191
803.919	26427
804.061	26651
804.204	26396
804.346	26332
804.488	26320
804.63	26347
804.773	26324
804.915	26252
805.057	26556
805.199	26412
805.341	26507
805.483	26450
805.626	26537
805.768	26393
805.91	26571
806.052	26549
806.194	26507
806.336	26815
806.478	26495
806.62	26438
806.762	26613
806.904	26720
807.046	26921
807.188	26990
807.33	26906
807.472	27001
807.614	26842
807.756	26701
807.898	26739
808.04	26727
808.182	26731
808.324	26792
808.465	26811
808.607	26921
808.749	26986
808.891	27184
809.033	27268
809.174	27017
809.316	27051
809.458	27108
809.6	27165
809.741	27135
809.883	27211
810.025	27424
810.166	27412
810.308	27325
810.45	27450
810.591	27294
810.733	27142
810.875	27176
811.016	27017
811.158	26933
811.299	27066
811.441	27195
811.582	27199
811.724	27024
811.865	26990
812.007	27131
812.148	27074
812.29	27131
812.431	27096
812.573	27378
812.714	27344
812.855	27614
812.997	27679
813.138	27831
813.279	27888
813.421	27728
813.562	27450
813.703	27405
813.845	27351
813.986	27017
814.127	26845
814.268	26746
814.41	26804
814.551	26781
814.692	26842
814.833	26727
814.974	26735
815.115	26739
815.256	26659
815.397	26701
815.539	26720
815.68	26560
815.821	26537
815.962	26492
816.103	26461
816.244	26415
816.385	26263
816.526	26256
816.666	26130
816.807	25917
816.948	26176
817.089	26065
817.23	26111
817.371	26058
817.512	26031
817.653	26035
817.793	25833
817.934	26088
818.075	25947
818.216	26027
818.356	26008
818.497	25875
818.638	25647
818.778	25746
818.919	25856
819.06	25731
819.2	25875
819.341	26012
819.481	25925
819.622	25993
819.762	26377
819.903	26244
820.043	26115
820.184	26122
820.324	26138
820.465	26237
820.605	26115
820.746	26084
820.886	25955
821.026	26069
821.167	25978
821.307	26126
821.447	25982
821.588	25890
821.728	25765
821.868	25658
822.008	25559
822.149	25430
822.289	25384
822.429	25198
822.569	25061
822.709	25103
822.849	24909
822.99	24977
823.13	24924
823.27	24951
823.41	24749
823.55	24715
823.69	24806
823.83	24715
823.97	24654
824.11	24525
824.25	24650
824.389	24700
824.529	24658
824.669	24536
824.809	24700
824.949	24722
825.089	24741
825.228	24661
825.368	24525
825.508	24399
825.648	24452
825.787	24445
825.927	24490
826.067	24433
826.206	24471
826.346	24399
826.485	24517
826.625	24437
826.765	24589
826.904	24456
827.044	24277
827.183	24171
827.323	24209
827.462	24136
827.601	24247
827.741	24152
827.88	24053
828.02	23977
828.159	24106
828.298	24216
828.437	24182
828.577	24095
828.716	24330
828.855	24121
828.994	23897
829.134	23969
829.273	23893
829.412	24026
829.551	23855
829.69	23942
829.829	23878
829.968	23992
830.107	23927
830.246	23935
830.385	23764
830.524	23760
830.663	23680
830.802	23638
830.941	23493
831.08	23471
831.219	23634
831.357	23490
831.496	23783
831.635	23570
831.774	23570
831.913	23364
832.051	23288
832.19	23337
832.329	23360
832.467	23204
832.606	23109
832.744	23128
832.883	23299
833.022	23197
833.16	23124
833.299	23227
833.437	23299
833.576	23261
833.714	23402
833.852	23296
833.991	23284
834.129	23376
834.267	23296
834.406	23200
834.544	23337
834.682	23246
834.821	23162
834.959	23528
835.097	23296
835.235	23178
835.373	23208
835.511	23334
835.65	23121
835.788	23048
835.926	22949
836.064	22980
836.202	22976
836.34	23037
836.478	23162
836.615	23113
836.753	23162
836.891	23231
837.029	23121
837.167	23117
837.305	23124
837.443	23113
837.58	22942
837.718	22972
837.856	23010
837.993	22961
838.131	22938
838.269	22896
838.406	22828
838.544	22748
838.681	22618
838.819	22596
838.956	22352
839.094	22523
839.231	22462
839.369	22550
839.506	22774
839.643	22645
839.781	22424
839.918	22402
840.055	22497
840.193	22470
840.33	22386
840.467	22394
840.604	22386
840.742	22557
840.879	22185
841.016	22356
841.153	22215
841.29	22569
841.427	22421
841.564	22504
841.701	22413
841.838	22295
841.975	22333
842.112	22230
842.249	22265
842.385	22109
842.522	22344
842.659	22128
842.796	22093
842.933	22173
843.069	21968
843.206	22036
843.343	22169
843.479	22177
843.616	22105
843.752	21945
843.889	21945
844.025	22010
844.162	21956
844.298	21960
844.435	21949
844.571	21846
844.708	21953
844.844	22082
844.98	22029
845.117	22078
845.253	21865
845.389	21698
845.525	21842
845.661	21766
845.798	21625
845.934	21591
846.07	21603
846.206	21629
846.342	21785
846.478	21603
846.614	21416
846.75	21302
846.886	21287
847.022	21469
847.158	21466
847.294	21378
847.429	21405
847.565	21298
847.701	21526
847.837	21047
847.972	21116
848.108	21207
848.244	21233
848.379	20952
848.515	21066
848.65	20960
848.786	21100
848.921	21024
849.057	21085
849.192	21096
849.328	20956
849.463	21058
849.598	20918
849.734	20971
849.869	20727
850.004	20708
850.14	20826
850.275	20777
850.41	20697
850.545	20568
850.68	20632
850.815	20735
850.95	20708
851.085	20948
851.22	20880
851.355	20804
851.49	20842
851.625	20785
851.76	20830
851.895	20663
852.03	20640
852.165	20648
852.299	20746
852.434	20765
852.569	20720
852.703	20678
852.838	20758
852.973	20933
853.107	20811
853.242	20701
853.376	20514
853.511	20377
853.645	20575
853.78	20636
853.914	20583
854.048	20556
854.183	20560
854.317	20689
854.451	20727
854.585	20579
854.72	20499
854.854	20617
854.988	20514
855.122	20541
855.256	20294
855.39	20541
855.524	20549
855.658	20511
855.792	20499
855.926	20609
856.06	20659
856.194	20644
856.327	20571
856.461	20476
856.595	20499
856.729	20648
856.862	20587
856.996	20659
857.13	20583
857.263	20648
857.397	20651
857.53	20514
857.664	20560
857.797	20625
857.931	20697
858.064	20560
858.197	20659
858.331	20598
858.464	20568
858.597	20476
858.731	20469
858.864	20545
858.997	20511
859.13	20625
859.263	20602
859.396	20598
859.529	20461
859.662	20473
859.795	20492
859.928	20644
860.061	20629
860.194	20785
860.327	20655
860.46	20511
860.592	20625
860.725	20777
860.858	20693
860.99	20568
861.123	20427
861.256	20541
861.388	20511
861.521	21157
861.653	20400
861.786	20412
861.918	20423
862.05	20446
862.183	20530
862.315	20549
862.447	20503
862.58	20465
862.712	20328
862.844	20358
862.976	20351
863.108	20351
863.24	20830
863.372	20248
863.504	20259
863.636	20294
863.768	20385
863.9	20351
864.032	20206
864.164	20210
864.296	20320
864.428	20495
864.559	20415
864.691	20324
864.823	20355
864.954	20374
865.086	20298
865.217	20138
865.349	20027
865.48	20298
865.612	20237
865.743	20252
865.875	20225
866.006	20050
866.137	20077
866.269	20149
866.4	20305
866.531	20195
866.662	20210
866.793	20115
866.924	20134
867.055	20134
867.186	20119
867.317	20084
867.448	19993
867.579	20039
867.71	20039
867.841	20062
867.972	20096
868.103	20233
868.233	20176
868.364	20161
868.495	20294
868.625	20431
868.756	20507
868.886	20343
869.017	20461
869.147	20564
869.278	20530
869.408	20404
869.539	20358
869.669	20518
869.799	20366
869.929	20545
870.06	20480
870.19	20670
870.32	20762
870.45	20769
870.58	20819
870.71	20891
870.84	20918
870.97	20838
871.1	20788
871.23	20937
871.36	20925
871.489	20842
871.619	20990
871.749	21013
871.879	21096
872.008	21104
872.138	20868
872.267	20929
872.397	20834
872.526	20769
872.656	20785
872.785	20777
872.915	20971
873.044	21047
873.173	20937
873.303	20994
873.432	20899
873.561	21093
873.69	21104
873.819	20975
873.948	21096
874.077	20982
874.206	21024
874.335	21074
874.464	21135
874.593	21237
874.722	21207
874.851	21382
874.979	21275
875.108	21302
875.237	21165
875.365	21180
875.494	21192
875.623	21344
875.751	21233
875.88	21313
876.008	21291
876.136	21382
876.265	21656
876.393	21667
876.521	21694
876.65	21686
876.778	21698
876.906	21618
877.034	21549
877.162	21633
877.29	21534
877.418	21557
877.546	21587
877.674	21587
877.802	21500
877.93	21538
878.058	21580
878.185	21534
878.313	21568
878.441	21614
878.568	21447
878.696	21591
878.824	21583
878.951	21675
879.079	21686
879.206	21861
879.333	21857
879.461	21614
879.588	21694
879.715	21774
879.842	21873
879.97	21660
880.097	21428
880.224	21382
880.351	21492
880.478	21447
880.605	21389
880.732	21306
880.859	21690
880.986	21405
881.112	21416
881.239	21169
881.366	21127
881.493	21176
881.619	21013
881.746	21108
881.872	21032
881.999	20941
882.125	20921
882.252	21032
882.378	21043
882.505	21127
882.631	20796
882.757	20708
882.883	20739
883.01	20636
883.136	20758
883.262	20556
883.388	20617
883.514	20678
883.64	20708
883.766	20613
883.892	20438
884.018	20617
884.143	20655
884.269	20651
884.395	20492
884.52	20305
884.646	20294
884.772	20298
884.897	20263
885.023	20351
885.148	20415
885.274	20492
885.399	20393
885.524	20469
885.65	20385
885.775	20473
885.9	20336
886.025	20530
886.15	20503
886.275	20240
886.4	20305
886.525	20457
886.65	20286
886.775	20282
886.9	20438
887.025	20629
887.149	20240
887.274	20084
887.399	20058
887.523	20267
887.648	20054
887.773	20024
887.897	20161
888.021	20305
888.146	20096
888.27	20180
888.395	20301
888.519	20176
888.643	20244
888.767	20145
888.891	20073
889.015	19986
889.139	20119
889.263	19917
889.387	20031
889.511	20199
889.635	20058
889.759	19864
889.883	19883
890.006	19997
890.13	19947
890.254	19841
890.377	19963
890.501	19769
890.624	19674
890.748	19856
890.871	19544
890.995	19563
891.118	19502
891.241	19693
891.364	19521
891.488	19582
891.611	19518
891.734	19510
891.857	19609
891.98	19529
892.103	19578
892.226	19658
892.349	19537
892.471	19483
892.594	19563
892.717	19518
892.839	19331
892.962	19460
893.085	19544
893.207	19438
893.33	19354
893.452	19388
893.575	19510
893.697	19441
893.819	19616
893.941	19567
894.064	19582
894.186	19354
894.308	19403
894.43	19487
894.552	19681
894.674	19514
894.796	19381
894.918	19369
895.04	19384
895.161	19460
895.283	19464
895.405	19369
895.526	19457
895.648	19468
895.769	19419
895.891	19354
896.012	19483
896.134	19582
896.255	19559
896.376	19415
896.498	19483
896.619	19586
896.74	19369
896.861	19521
896.982	19811
897.103	19902
897.224	19700
897.345	19738
897.466	19609
897.587	19746
897.708	19967
897.828	19700
897.949	19677
898.07	19563
898.19	19518
898.311	19803
898.431	19632
898.552	19700
898.672	19856
898.792	19772
898.913	19597
899.033	19674
899.153	19487
899.273	19422
899.393	19396
899.513	19464
899.633	19521
899.753	19514
899.873	19514
899.993	19514
900.113	19373
900.232	19381
900.352	19422
900.472	19388
900.591	19206
900.711	19255
900.83	19259
900.95	19259
901.069	19346
901.189	19084
901.308	18928
901.427	18768
901.546	18913
901.665	18901
901.784	18905
901.904	18700
902.023	18684
902.141	18414
902.26	18422
902.379	18509
902.498	18350
902.617	18319
902.735	18361
902.854	18395
902.973	18289
903.091	18076
903.21	17958
903.328	18076
903.446	17859
903.565	17855
903.683	17882
903.801	17748
903.919	17889
904.038	17748
904.156	17596
904.274	17733
904.392	17558
904.51	17562
904.627	17543
904.745	17653
904.863	17649
904.981	17478
905.098	17318
905.216	17364
905.334	17239
905.451	17334
905.569	17277
905.686	17337
905.803	17334
905.921	17075
906.038	17303
906.155	17159
906.272	17037
906.389	17010
906.506	16835
906.623	16911
906.74	16965
906.857	16778
906.974	16767
907.091	16873
907.208	16968
907.324	16801
907.441	16839
907.557	16546
907.674	16698
907.79	16531
907.907	16436
908.023	16645
908.139	16596
908.256	16523
908.372	16417
908.488	16512
908.604	16314
908.72	16287
908.836	16352
908.952	16295
909.068	16333
909.184	16322
909.3	16169
909.415	16219
909.531	16280
909.647	16109
909.762	16090
909.878	15983
909.993	16010
910.108	16067
910.224	15953
910.339	16021
910.454	15930
910.57	15895
910.685	15709
910.8	16082
910.915	15983
911.03	15793
911.145	15671
911.259	15633
911.374	15713
911.489	15466
911.604	15454
911.718	15245
911.833	15370
911.947	15260
912.062	15142
912.176	15298
912.291	15401
912.405	15336
912.519	15500
912.633	15557
912.748	15458
912.862	15245
912.976	15233
913.09	15135
913.204	15051
913.318	15192
913.431	15370
913.545	15272
913.659	15287
913.772	15077
913.886	15058
914	14986
914.113	15055
914.226	15112
914.34	15108
914.453	14925
914.566	14960
914.68	14914
914.793	14857
914.906	14693
915.019	14636
915.132	14579
915.245	14575
915.358	14674
915.47	14610
915.583	14552
915.696	14602
915.809	14765
915.921	14693
916.034	14537
916.146	14594
916.259	14522
916.371	14617
916.483	14587
916.595	14404
916.708	14438
916.82	14408
916.932	14389
917.044	14396
917.156	14313
917.268	14244
917.38	14282
917.491	14191
917.603	14221
917.715	14290
917.826	14278
917.938	14259
918.049	14062
918.161	14172
918.272	14400
918.384	14362
918.495	14267
918.606	14248
918.717	14005
918.828	14062
918.939	14077
919.05	13906
919.161	14005
919.272	13883
919.383	13928
919.494	14092
919.604	14206
919.715	14161
919.826	14043
919.936	13928
920.047	14027
920.157	14035
920.267	14278
920.378	14077
920.488	13978
920.598	14149
920.708	14191
920.818	14183
920.928	14123
921.038	14286
921.148	14336
921.258	14012
921.368	13841
921.477	13845
921.587	13731
921.697	13651
921.806	13704
921.916	13636
922.025	13495
922.134	13468
922.244	13346
922.353	13449
922.462	13285
922.571	13293
922.68	13031
922.789	13065
922.898	13095
923.007	13004
923.116	13175
923.224	13050
923.333	13076
923.442	12951
923.55	12844
923.659	12943
923.767	12916
923.876	12840
923.984	12840
924.092	12837
924.201	12810
924.309	12779
924.417	12856
924.525	12844
924.633	12779
924.741	13480
924.849	12604
924.956	12722
925.064	12601
925.172	12452
925.279	12490
925.387	12589
925.494	12502
925.602	12665
925.709	12555
925.816	12437
925.924	12422
926.031	12620
926.138	12467
926.245	12506
926.352	12361
926.459	12509
926.566	12525
926.673	12372
926.779	12289
926.886	12247
926.993	12167
927.099	12076
927.206	12102
927.312	12110
927.419	12144
927.525	12163
927.631	12030
927.737	12026
927.843	11999
927.95	11855
928.056	11920
928.162	11939
928.267	12038
928.373	12475
928.479	11931
928.585	11748
928.69	11939
928.796	12068
928.901	11775
929.007	11649
929.112	11798
929.218	11733
929.323	11672
929.428	11604
929.533	11676
929.638	11684
929.743	11585
929.848	11547
929.953	11657
930.058	11493
930.163	11250
930.267	11368
930.372	11528
930.477	11353
930.581	11486
930.685	11303
930.79	11315
930.894	11326
930.998	11254
931.103	11368
931.207	10999
931.311	10942
931.415	10885
931.519	10656
931.623	10672
