Data from test_V78500241_3004.txt Node
Date: Fri Mar 25 15:30:46 CST 2022
User: usil
Spectrometer: V785-0024
Trigger mode: 0
Integration Time (sec): 4.000000E-1
Scans to average: 1
Nonlinearity correction enabled: false
Boxcar width: 0
Storing dark spectrum: false
XAxis mode: Wavelengths
Number of Pixels in Spectrum: 1024
>>>>>Begin Spectral Data<<<<<
801.071	27317
801.214	27340
801.356	27066
801.499	26891
801.641	26731
801.783	26815
801.926	26933
802.068	26883
802.211	26777
802.353	26659
802.496	26518
802.638	26526
802.78	26408
802.923	26301
803.065	26278
803.208	26278
803.35	26473
803.492	26640
803.635	26560
803.777	26412
803.919	26648
804.061	26739
804.204	26560
804.346	26412
804.488	26495
804.63	26377
804.773	26473
804.915	26602
805.057	26800
805.199	26587
805.341	26606
805.483	26765
805.626	26655
805.768	26644
805.91	26594
806.052	26571
806.194	26754
806.336	26746
806.478	26693
806.62	26598
806.762	26781
806.904	26842
807.046	27237
807.188	27058
807.33	27036
807.472	27062
807.614	27055
807.756	27020
807.898	26895
808.04	26830
808.182	26807
808.324	26910
808.465	27104
808.607	27047
808.749	27245
808.891	27439
809.033	27363
809.174	27450
809.316	27256
809.458	27355
809.6	27272
809.741	27233
809.883	27420
810.025	27511
810.166	27427
810.308	27534
810.45	27496
810.591	27439
810.733	27291
810.875	27279
811.016	27195
811.158	27386
811.299	27496
811.441	27515
811.582	27473
811.724	27329
811.865	27230
812.007	27325
812.148	27116
812.29	27272
812.431	27462
812.573	27549
812.714	27717
812.855	27781
812.997	27937
813.138	27941
813.279	27850
813.421	27842
813.562	27861
813.703	27515
813.845	27523
813.986	27138
814.127	27123
814.268	26990
814.41	26849
814.551	27058
814.692	26998
814.833	26937
814.974	27013
815.115	27020
815.256	26902
815.397	26743
815.539	26804
815.68	26773
815.821	26727
815.962	26720
816.103	26735
816.244	26507
816.385	26609
816.526	26476
816.666	26305
816.807	26240
816.948	26446
817.089	26366
817.23	26301
817.371	26225
817.512	26263
817.653	26176
817.793	26161
817.934	26214
818.075	26195
818.216	26191
818.356	26149
818.497	26054
818.638	25837
818.778	25997
818.919	26062
819.06	25940
819.2	26031
819.341	26248
819.481	26358
819.622	26389
819.762	26545
819.903	26438
820.043	26438
820.184	26465
820.324	26339
820.465	26252
820.605	26271
820.746	26351
820.886	26157
821.026	26282
821.167	26381
821.307	26301
821.447	26145
821.588	26107
821.728	26054
821.868	25822
822.008	25670
822.149	25632
822.289	25601
822.429	25350
822.569	25270
822.709	25381
822.849	25099
822.99	25156
823.13	25072
823.27	25137
823.41	25114
823.55	24939
823.69	25034
823.83	24951
823.97	25046
824.11	24817
824.25	24825
824.389	24753
824.529	24840
824.669	24650
824.809	24924
824.949	24901
825.089	24856
825.228	24779
825.368	24711
825.508	24696
825.648	24593
825.787	24692
825.927	24654
826.067	24673
826.206	24608
826.346	24757
826.485	24719
826.625	24673
826.765	24878
826.904	24798
827.044	24342
827.183	24456
827.323	24391
827.462	24426
827.601	24475
827.741	24391
827.88	24467
828.02	24353
828.159	24292
828.298	24292
828.437	24384
828.577	24292
828.716	24323
828.855	24319
828.994	24098
829.134	24091
829.273	24098
829.412	23878
829.551	24007
829.69	23999
829.829	24091
829.968	24110
830.107	24201
830.246	24125
830.385	24049
830.524	24011
830.663	23874
830.802	23961
830.941	23684
831.08	23794
831.219	23813
831.357	23775
831.496	23809
831.635	23528
831.774	23638
831.913	23581
832.051	23421
832.19	23531
832.329	23425
832.467	23334
832.606	23379
832.744	23204
832.883	23318
833.022	23204
833.16	23311
833.299	23452
833.437	23395
833.576	23467
833.714	23414
833.852	23493
833.991	23376
834.129	23528
834.267	23524
834.406	23455
834.544	23497
834.682	23429
834.821	23379
834.959	23440
835.097	23421
835.235	23429
835.373	23391
835.511	23349
835.65	23220
835.788	23280
835.926	23345
836.064	23121
836.202	23037
836.34	23204
836.478	23345
836.615	23299
836.753	23178
836.891	23334
837.029	23379
837.167	23242
837.305	23109
837.443	23143
837.58	23098
837.718	23189
837.856	23121
837.993	22908
838.131	22999
838.269	22957
838.406	22927
838.544	22980
838.681	22847
838.819	22698
838.956	22611
839.094	22565
839.231	22596
839.369	22820
839.506	23014
839.643	22744
839.781	22664
839.918	22493
840.055	22512
840.193	22561
840.33	22531
840.467	22611
840.604	22603
840.742	22847
840.879	22466
841.016	22447
841.153	22363
841.29	22554
841.427	22538
841.564	22637
841.701	22489
841.838	22455
841.975	22356
842.112	22538
842.249	22246
842.385	22185
842.522	22527
842.659	22394
842.796	22238
842.933	22253
843.069	22181
843.206	22253
843.343	22314
843.479	22196
843.616	22238
843.752	22017
843.889	21941
844.025	22055
844.162	21960
844.298	22158
844.435	21956
844.571	21918
844.708	21907
844.844	22139
844.98	22070
845.117	22074
845.253	21918
845.389	21876
845.525	21941
845.661	21930
845.798	21831
845.934	21736
846.07	21751
846.206	21690
846.342	21797
846.478	21850
846.614	21511
846.75	21454
846.886	21462
847.022	21606
847.158	21511
847.294	21557
847.429	21603
847.565	21428
847.701	21690
847.837	21306
847.972	21298
848.108	21310
848.244	21340
848.379	21104
848.515	21241
848.65	21104
848.786	21135
848.921	21062
849.057	21226
849.192	21268
849.328	21066
849.463	21085
849.598	21074
849.734	21024
849.869	20990
850.004	20861
850.14	20929
850.275	20796
850.41	20678
850.545	20773
850.68	20845
850.815	20830
850.95	20853
851.085	20925
851.22	20948
851.355	20842
851.49	20872
851.625	20788
851.76	20811
851.895	20792
852.03	20754
852.165	20731
852.299	20895
852.434	20979
852.569	20982
852.703	20845
852.838	20994
852.973	20872
853.107	20902
853.242	20769
853.376	20686
853.511	20640
853.645	20621
853.78	20701
853.914	20705
854.048	20663
854.183	20606
854.317	20621
854.451	20902
854.585	20556
854.72	20663
854.854	20914
854.988	20594
855.122	20735
855.256	20571
855.39	20560
855.524	20705
855.658	20697
855.792	20640
855.926	20701
856.06	20750
856.194	20667
856.327	20609
856.461	20587
856.595	20651
856.729	20792
856.862	20815
856.996	20724
857.13	20739
857.263	20864
857.397	20826
857.53	20754
857.664	20712
857.797	20758
857.931	20800
858.064	20769
858.197	20838
858.331	20636
858.464	20644
858.597	20617
858.731	20739
858.864	20636
858.997	20598
859.13	20708
859.263	20659
859.396	20724
859.529	20575
859.662	20621
859.795	20617
859.928	20678
860.061	20777
860.194	20868
860.327	20731
860.46	20727
860.592	20735
860.725	20724
860.858	20800
860.99	20644
861.123	20575
861.256	20670
861.388	20781
861.521	21310
861.653	20518
861.786	20465
861.918	20412
862.05	20625
862.183	20674
862.315	20655
862.447	20800
862.58	20492
862.712	20431
862.844	20362
862.976	20465
863.108	20377
863.24	20796
863.372	20370
863.504	20381
863.636	20317
863.768	20393
863.9	20446
864.032	20336
864.164	20446
864.296	20332
864.428	20454
864.559	20476
864.691	20461
864.823	20438
864.954	20415
865.086	20507
865.217	20294
865.349	20225
865.48	20237
865.612	20336
865.743	20541
865.875	20412
866.006	20259
866.137	20263
866.269	20271
866.4	20259
866.531	20248
866.662	20161
866.793	20237
866.924	20130
867.055	20324
867.186	20324
867.317	20214
867.448	20062
867.579	20164
867.71	20081
867.841	20252
867.972	20107
868.103	20111
868.233	20180
868.364	20362
868.495	20358
868.625	20575
868.756	20594
868.886	20339
869.017	20343
869.147	20568
869.278	20655
869.408	20514
869.539	20431
869.669	20579
869.799	20659
869.929	20560
870.06	20533
870.19	20720
870.32	20743
870.45	20720
870.58	20826
870.71	20941
870.84	20914
870.97	20899
871.1	20883
871.23	21005
871.36	21135
871.489	20918
871.619	20990
871.749	21161
871.879	21264
872.008	21279
872.138	21047
872.267	20941
872.397	20990
872.526	20933
872.656	20864
872.785	20990
872.915	21135
873.044	20986
873.173	21226
873.303	21119
873.432	21119
873.561	21218
873.69	21089
873.819	21070
873.948	21100
874.077	21119
874.206	20895
874.335	21062
874.464	21146
874.593	21344
874.722	21359
874.851	21256
874.979	21424
875.108	21264
875.237	21317
875.365	21207
875.494	21256
875.623	21378
875.751	21279
875.88	21351
876.008	21545
876.136	21587
876.265	21622
876.393	21869
876.521	21850
876.65	21797
876.778	21724
876.906	21686
877.034	21747
877.162	21736
877.29	21675
877.418	21652
877.546	21705
877.674	21781
877.802	21644
877.93	21804
878.058	21644
878.185	21686
878.313	21667
878.441	21770
878.568	21610
878.696	21686
878.824	21732
878.951	21854
879.079	21857
879.206	21975
879.333	21800
879.461	21736
879.588	21949
879.715	21835
879.842	21968
879.97	21808
880.097	21530
880.224	21599
880.351	21530
880.478	21496
880.605	21488
880.732	21485
880.859	21736
880.986	21618
881.112	21496
881.239	21454
881.366	21287
881.493	21154
881.619	21093
881.746	21146
881.872	21047
881.999	21237
882.125	21058
882.252	21055
882.378	21146
882.505	21154
882.631	21017
882.757	20830
882.883	20849
883.01	20902
883.136	20979
883.262	20769
883.388	20746
883.514	20864
883.64	20811
883.766	20712
883.892	20644
884.018	20682
884.143	20754
884.269	20796
884.395	20514
884.52	20389
884.646	20476
884.772	20393
884.897	20393
885.023	20492
885.148	20446
885.274	20636
885.399	20549
885.524	20560
885.65	20511
885.775	20522
885.9	20488
886.025	20568
886.15	20442
886.275	20473
886.4	20484
886.525	20446
886.65	20339
886.775	20393
886.9	20560
887.025	20731
887.149	20499
887.274	20282
887.399	20202
887.523	20210
887.648	20358
887.773	20153
887.897	20267
888.021	20263
888.146	20157
888.27	20301
888.395	20347
888.519	20202
888.643	20278
888.767	20286
888.891	20134
889.015	20005
889.139	20088
889.263	19986
889.387	20225
889.511	20259
889.635	20122
889.759	19947
889.883	20096
890.006	20046
890.13	20062
890.254	19909
890.377	20035
890.501	19795
890.624	19772
890.748	19765
890.871	19731
890.995	19594
891.118	19578
891.241	19571
891.364	19658
891.488	19776
891.611	19624
891.734	19628
891.857	19715
891.98	19605
892.103	19791
892.226	19605
892.349	19647
892.471	19460
892.594	19605
892.717	19510
892.839	19483
892.962	19628
893.085	19571
893.207	19491
893.33	19483
893.452	19426
893.575	19590
893.697	19548
893.819	19616
893.941	19734
894.064	19750
894.186	19502
894.308	19415
894.43	19723
894.552	19731
894.674	19662
894.796	19491
894.918	19658
895.04	19506
895.161	19666
895.283	19639
895.405	19449
895.526	19499
895.648	19643
895.769	19483
895.891	19601
896.012	19708
896.134	19571
896.255	19533
896.376	19476
896.498	19552
896.619	19674
896.74	19601
896.861	19601
896.982	19856
897.103	20043
897.224	19909
897.345	19826
897.466	19715
897.587	19822
897.708	19974
897.828	19822
897.949	19731
898.07	19601
898.19	19742
898.311	19860
898.431	19753
898.552	19799
898.672	19963
898.792	19864
898.913	19932
899.033	19632
899.153	19613
899.273	19464
899.393	19594
899.513	19635
899.633	19552
899.753	19499
899.873	19487
899.993	19571
900.113	19403
900.232	19518
900.352	19403
900.472	19415
900.591	19384
900.711	19350
900.83	19285
900.95	19468
901.069	19312
901.189	19316
901.308	18916
901.427	18989
901.546	19012
901.665	18989
901.784	19027
901.904	18738
902.023	18696
902.141	18445
902.26	18429
902.379	18494
902.498	18490
902.617	18346
902.735	18460
902.854	18414
902.973	18426
903.091	18155
903.21	18186
903.328	18114
903.446	18064
903.565	17912
903.683	17973
903.801	17866
903.919	17931
904.038	17916
904.156	17699
904.274	17809
904.392	17752
904.51	17600
904.627	17680
904.745	17741
904.863	17680
904.981	17524
905.098	17444
905.216	17383
905.334	17433
905.451	17433
905.569	17360
905.686	17391
905.803	17337
905.921	17254
906.038	17181
906.155	17090
906.272	17109
906.389	17060
906.506	16869
906.623	16991
906.74	17071
906.857	16816
906.974	16835
907.091	16858
907.208	16930
907.324	16976
907.441	16793
907.557	16706
907.674	16664
907.79	16588
907.907	16508
908.023	16664
908.139	16713
908.256	16535
908.372	16565
908.488	16497
908.604	16409
908.72	16386
908.836	16367
908.952	16398
909.068	16394
909.184	16481
909.3	16325
909.415	16360
909.531	16405
909.647	16124
909.762	16055
909.878	16139
909.993	16063
910.108	16029
910.224	16082
910.339	16071
910.454	15983
910.57	15895
910.685	15827
910.8	16105
910.915	15918
911.03	15941
911.145	15869
911.259	15603
911.374	15679
911.489	15614
911.604	15469
911.718	15405
911.833	15488
911.947	15458
912.062	15325
912.176	15481
912.291	15507
912.405	15511
912.519	15526
912.633	15629
912.748	15492
912.862	15450
912.976	15256
913.09	15112
913.204	15306
913.318	15222
913.431	15279
913.545	15218
913.659	15344
913.772	15199
913.886	15127
914	15108
914.113	15131
914.226	15146
914.34	15017
914.453	14971
914.566	15100
914.68	14910
914.793	14849
914.906	14689
915.019	14743
915.132	14644
915.245	14712
915.358	14716
915.47	14617
915.583	14678
915.696	14632
915.809	14697
915.921	14735
916.034	14663
916.146	14518
916.259	14571
916.371	14663
916.483	14689
916.595	14473
916.708	14434
916.82	14571
916.932	14412
917.044	14404
917.156	14400
917.268	14248
917.38	14339
917.491	14309
917.603	14332
917.715	14446
917.826	14404
917.938	14233
918.049	14176
918.161	14313
918.272	14389
918.384	14381
918.495	14244
918.606	14092
918.717	14031
918.828	14130
918.939	14180
919.05	14043
919.161	14005
919.272	13883
919.383	13989
919.494	14183
919.604	14343
919.715	14142
919.826	14077
919.936	14016
920.047	14206
920.157	14012
920.267	14343
920.378	14103
920.488	14084
920.598	14202
920.708	14381
920.818	14195
920.928	14164
921.038	14404
921.148	14240
921.258	13967
921.368	13959
921.477	13849
921.587	13803
921.697	13609
921.806	13803
921.916	13772
922.025	13563
922.134	13449
922.244	13495
922.353	13472
922.462	13343
922.571	13244
922.68	13107
922.789	13046
922.898	13057
923.007	13110
923.116	13171
923.224	13187
923.333	13133
923.442	12954
923.55	12894
923.659	12932
923.767	13050
923.876	12958
923.984	12973
924.092	12939
924.201	12943
924.309	12886
924.417	12905
924.525	12882
924.633	12810
924.741	13620
924.849	12597
924.956	12776
925.064	12585
925.172	12544
925.279	12483
925.387	12635
925.494	12536
925.602	12692
925.709	12623
925.816	12460
925.924	12547
926.031	12646
926.138	12608
926.245	12490
926.352	12388
926.459	12574
926.566	12639
926.673	12414
926.779	12376
926.886	12304
926.993	12194
927.099	12178
927.206	12167
927.312	12125
927.419	12213
927.525	12270
927.631	12186
927.737	12045
927.843	11992
927.95	11935
928.056	11958
928.162	12095
928.267	12003
928.373	12593
928.479	12102
928.585	11809
928.69	11912
928.796	11984
928.901	11935
929.007	11661
929.112	11821
929.218	11843
929.323	11828
929.428	11634
929.533	11863
929.638	11589
929.743	11733
929.848	11737
929.953	11558
930.058	11554
930.163	11402
930.267	11410
930.372	11543
930.477	11353
930.581	11585
930.685	11459
930.79	11269
930.894	11360
930.998	11277
931.103	11376
931.207	11022
931.311	10984
931.415	10923
931.519	10774
931.623	10641
