Data from test_V78500241_2337.txt Node
Date: Fri Mar 25 15:26:07 CST 2022
User: usil
Spectrometer: V785-0024
Trigger mode: 0
Integration Time (sec): 4.000000E-1
Scans to average: 1
Nonlinearity correction enabled: false
Boxcar width: 0
Storing dark spectrum: false
XAxis mode: Wavelengths
Number of Pixels in Spectrum: 1024
>>>>>Begin Spectral Data<<<<<
801.071	27370
801.214	27363
801.356	27184
801.499	27192
801.641	26948
801.783	27024
801.926	27009
802.068	26880
802.211	26823
802.353	26792
802.496	26590
802.638	26617
802.78	26583
802.923	26423
803.065	26530
803.208	26465
803.35	26686
803.492	26613
803.635	26613
803.777	26644
803.919	26689
804.061	27104
804.204	26864
804.346	26826
804.488	26720
804.63	26743
804.773	26800
804.915	26781
805.057	26899
805.199	26777
805.341	26712
805.483	26887
805.626	26800
805.768	26629
805.91	26921
806.052	26880
806.194	26781
806.336	26887
806.478	26933
806.62	26864
806.762	26876
806.904	27062
807.046	27424
807.188	27279
807.33	27203
807.472	27344
807.614	27256
807.756	27218
807.898	27195
808.04	26960
808.182	26963
808.324	27256
808.465	27283
808.607	27192
808.749	27363
808.891	27439
809.033	27705
809.174	27523
809.316	27397
809.458	27507
809.6	27496
809.741	27568
809.883	27462
810.025	27709
810.166	27945
810.308	27679
810.45	27717
810.591	27568
810.733	27561
810.875	27420
811.016	27195
811.158	27363
811.299	27443
811.441	27488
811.582	27572
811.724	27363
811.865	27230
812.007	27458
812.148	27302
812.29	27473
812.431	27603
812.573	27698
812.714	27842
812.855	28074
812.997	27991
813.138	28101
813.279	28044
813.421	27876
813.562	27941
813.703	27732
813.845	27675
813.986	27363
814.127	27195
814.268	26967
814.41	27150
814.551	27161
814.692	27138
814.833	27017
814.974	27119
815.115	27199
815.256	26975
815.397	27009
815.539	26967
815.68	26960
815.821	26648
815.962	26876
816.103	26861
816.244	26853
816.385	26785
816.526	26598
816.666	26488
816.807	26381
816.948	26453
817.089	26461
817.23	26480
817.371	26396
817.512	26362
817.653	26396
817.793	26313
817.934	26358
818.075	26320
818.216	26313
818.356	26229
818.497	26191
818.638	26039
818.778	26058
818.919	26180
819.06	26187
819.2	26195
819.341	26404
819.481	26347
819.622	26473
819.762	26708
819.903	26598
820.043	26568
820.184	26446
820.324	26602
820.465	26625
820.605	26419
820.746	26419
820.886	26362
821.026	26480
821.167	26579
821.307	26408
821.447	26332
821.588	26263
821.728	26142
821.868	25921
822.008	25913
822.149	25906
822.289	25837
822.429	25594
822.569	25479
822.709	25613
822.849	25419
822.99	25293
823.13	25339
823.27	25327
823.41	25187
823.55	25034
823.69	25240
823.83	25236
823.97	25080
824.11	24970
824.25	25004
824.389	24932
824.529	25171
824.669	25015
824.809	25263
824.949	25156
825.089	25118
825.228	25012
825.368	24916
825.508	24837
825.648	24878
825.787	24924
825.927	24825
826.067	24677
826.206	24875
826.346	24897
826.485	24947
826.625	24935
826.765	24973
826.904	24886
827.044	24631
827.183	24711
827.323	24574
827.462	24665
827.601	24627
827.741	24700
827.88	24578
828.02	24486
828.159	24563
828.298	24551
828.437	24528
828.577	24555
828.716	24601
828.855	24464
828.994	24258
829.134	24171
829.273	24414
829.412	24228
829.551	24098
829.69	24258
829.829	24338
829.968	24304
830.107	24315
830.246	24384
830.385	24296
830.524	24102
830.663	24178
830.802	24045
830.941	23882
831.08	23824
831.219	23973
831.357	23832
831.496	24159
831.635	23950
831.774	23904
831.913	23779
832.051	23714
832.19	23680
832.329	23760
832.467	23619
832.606	23558
832.744	23581
832.883	23509
833.022	23520
833.16	23474
833.299	23642
833.437	23566
833.576	23687
833.714	23699
833.852	23596
833.991	23687
834.129	23760
834.267	23589
834.406	23623
834.544	23570
834.682	23707
834.821	23600
834.959	23779
835.097	23585
835.235	23619
835.373	23646
835.511	23608
835.65	23448
835.788	23474
835.926	23402
836.064	23307
836.202	23258
836.34	23467
836.478	23467
836.615	23566
836.753	23490
836.891	23570
837.029	23505
837.167	23417
837.305	23353
837.443	23482
837.58	23303
837.718	23349
837.856	23398
837.993	23315
838.131	23322
838.269	23185
838.406	23250
838.544	23064
838.681	23060
838.819	22934
838.956	22831
839.094	22805
839.231	22850
839.369	23014
839.506	23311
839.643	23033
839.781	22744
839.918	22774
840.055	22729
840.193	22824
840.33	22771
840.467	22717
840.604	22774
840.742	22999
840.879	22615
841.016	22512
841.153	22637
841.29	22862
841.427	22721
841.564	22725
841.701	22672
841.838	22710
841.975	22672
842.112	22607
842.249	22561
842.385	22508
842.522	22679
842.659	22485
842.796	22371
842.933	22436
843.069	22382
843.206	22386
843.343	22557
843.479	22527
843.616	22641
843.752	22234
843.889	22268
844.025	22424
844.162	22177
844.298	22352
844.435	22310
844.571	22207
844.708	22295
844.844	22489
844.98	22310
845.117	22436
845.253	22093
845.389	22200
845.525	22116
845.661	22036
845.798	22013
845.934	22006
846.07	21911
846.206	21964
846.342	22097
846.478	21926
846.614	21827
846.75	21717
846.886	21682
847.022	21698
847.158	21713
847.294	21899
847.429	21720
847.565	21622
847.701	21964
847.837	21477
847.972	21439
848.108	21568
848.244	21549
848.379	21340
848.515	21173
848.65	21313
848.786	21367
848.921	21294
849.057	21416
849.192	21416
849.328	21367
849.463	21287
849.598	21355
849.734	21180
849.869	21123
850.004	21135
850.14	21192
850.275	20948
850.41	20880
850.545	21077
850.68	21116
850.815	21173
850.95	21119
851.085	21306
851.22	21203
851.355	21127
851.49	20963
851.625	20929
851.76	21119
851.895	20937
852.03	21017
852.165	20990
852.299	21108
852.434	21089
852.569	21013
852.703	21077
852.838	21131
852.973	21157
853.107	21192
853.242	21005
853.376	20914
853.511	20857
853.645	20861
853.78	20998
853.914	20910
854.048	21020
854.183	20838
854.317	20975
854.451	21066
854.585	20838
854.72	20918
854.854	21047
854.988	20796
855.122	20864
855.256	20804
855.39	20842
855.524	21043
855.658	20891
855.792	20899
855.926	20971
856.06	20891
856.194	21047
856.327	20849
856.461	20804
856.595	20853
856.729	20800
856.862	20937
856.996	20861
857.13	20944
857.263	20982
857.397	20921
857.53	20929
857.664	20899
857.797	20937
857.931	21089
858.064	20899
858.197	21127
858.331	20845
858.464	20845
858.597	20864
858.731	20857
858.864	20979
858.997	20853
859.13	20849
859.263	20838
859.396	20986
859.529	20853
859.662	20849
859.795	20868
859.928	20845
860.061	21051
860.194	21013
860.327	21005
860.46	20944
860.592	20914
860.725	21062
860.858	21009
860.99	20921
861.123	20883
861.256	20785
861.388	20861
861.521	21420
861.653	20887
861.786	20670
861.918	20785
862.05	20826
862.183	20804
862.315	20819
862.447	20819
862.58	20910
862.712	20625
862.844	20602
862.976	20705
863.108	20693
863.24	21055
863.372	20438
863.504	20602
863.636	20651
863.768	20716
863.9	20545
864.032	20602
864.164	20552
864.296	20697
864.428	20651
864.559	20804
864.691	20594
864.823	20583
864.954	20564
865.086	20743
865.217	20545
865.349	20590
865.48	20488
865.612	20568
865.743	20659
865.875	20625
866.006	20598
866.137	20495
866.269	20400
866.4	20476
866.531	20438
866.662	20457
866.793	20412
866.924	20408
867.055	20454
867.186	20351
867.317	20492
867.448	20366
867.579	20351
867.71	20347
867.841	20476
867.972	20457
868.103	20412
868.233	20396
868.364	20427
868.495	20568
868.625	20636
868.756	20754
868.886	20587
869.017	20602
869.147	20853
869.278	20804
869.408	20724
869.539	20655
869.669	20629
869.799	20781
869.929	20731
870.06	20773
870.19	21017
870.32	21047
870.45	21062
870.58	21096
870.71	21237
870.84	21062
870.97	21108
871.1	20998
871.23	21241
871.36	21313
871.489	21150
871.619	21176
871.749	21195
871.879	21389
872.008	21336
872.138	21237
872.267	21386
872.397	21195
872.526	21058
872.656	21131
872.785	21077
872.915	21344
873.044	21473
873.173	21363
873.303	21249
873.432	21340
873.561	21374
873.69	21230
873.819	21287
873.948	21519
874.077	21336
874.206	21222
874.335	21351
874.464	21317
874.593	21477
874.722	21530
874.851	21542
874.979	21469
875.108	21538
875.237	21564
875.365	21321
875.494	21595
875.623	21622
875.751	21428
875.88	21648
876.008	21629
876.136	21781
876.265	21964
876.393	22055
876.521	21968
876.65	22166
876.778	21926
876.906	21770
877.034	21739
877.162	21823
877.29	21937
877.418	21876
877.546	21876
877.674	21918
877.802	21922
877.93	21835
878.058	21759
878.185	21762
878.313	21907
878.441	21743
878.568	21701
878.696	21755
878.824	21960
878.951	21960
879.079	22013
879.206	22105
879.333	22032
879.461	21926
879.588	22029
879.715	22082
879.842	22154
879.97	21934
880.097	21720
880.224	21732
880.351	21747
880.478	21728
880.605	21667
880.732	21671
880.859	22006
880.986	21656
881.112	21679
881.239	21603
881.366	21485
881.493	21329
881.619	21351
881.746	21332
881.872	21389
881.999	21348
882.125	21325
882.252	21260
882.378	21256
882.505	21367
882.631	21157
882.757	21077
882.883	21062
883.01	21028
883.136	21001
883.262	20804
883.388	20689
883.514	21043
883.64	20979
883.766	20765
883.892	20811
884.018	20739
884.143	20963
884.269	20986
884.395	20655
884.52	20613
884.646	20621
884.772	20587
884.897	20625
885.023	20659
885.148	20845
885.274	20804
885.399	20598
885.524	20590
885.65	20648
885.775	20556
885.9	20613
886.025	20811
886.15	20724
886.275	20617
886.4	20560
886.525	20617
886.65	20590
886.775	20503
886.9	20739
887.025	20887
887.149	20606
887.274	20518
887.399	20415
887.523	20366
887.648	20377
887.773	20377
887.897	20473
888.021	20427
888.146	20324
888.27	20533
888.395	20514
888.519	20537
888.643	20465
888.767	20533
888.891	20358
889.015	20214
889.139	20256
889.263	20183
889.387	20275
889.511	20389
889.635	20317
889.759	20187
889.883	20191
890.006	20225
890.13	20408
890.254	20199
890.377	20206
890.501	19978
890.624	19894
890.748	20065
890.871	19837
890.995	19830
891.118	19772
891.241	19772
891.364	19708
891.488	19936
891.611	19772
891.734	19780
891.857	19799
891.98	19856
892.103	19833
892.226	19772
892.349	19666
892.471	19620
892.594	19791
892.717	19704
892.839	19628
892.962	19712
893.085	19776
893.207	19674
893.33	19635
893.452	19643
893.575	19662
893.697	19689
893.819	19906
893.941	19852
894.064	19940
894.186	19628
894.308	19586
894.43	19791
894.552	19807
894.674	19723
894.796	19647
894.918	19609
895.04	19613
895.161	19750
895.283	19811
895.405	19590
895.526	19647
895.648	19693
895.769	19780
895.891	19681
896.012	19738
896.134	19750
896.255	19712
896.376	19643
896.498	19635
896.619	19662
896.74	19651
896.861	19830
896.982	20008
897.103	20035
897.224	19970
897.345	19902
897.466	19898
897.587	19970
897.708	20024
897.828	19883
897.949	19841
898.07	19734
898.19	19913
898.311	19974
898.431	19868
898.552	19879
898.672	20107
898.792	19955
898.913	19932
899.033	19814
899.153	19761
899.273	19594
899.393	19814
899.513	19719
899.633	19746
899.753	19719
899.873	19552
899.993	19776
900.113	19643
900.232	19655
900.352	19586
900.472	19563
900.591	19499
900.711	19381
900.83	19343
900.95	19529
901.069	19552
901.189	19388
901.308	19202
901.427	19103
901.546	19129
901.665	19107
901.784	19015
901.904	18977
902.023	18913
902.141	18597
902.26	18703
902.379	18654
902.498	18635
902.617	18414
902.735	18612
902.854	18532
902.973	18490
903.091	18201
903.21	18315
903.328	18292
903.446	18182
903.565	18030
903.683	18102
903.801	17969
903.919	18030
904.038	17939
904.156	17901
904.274	17885
904.392	17748
904.51	17752
904.627	17779
904.745	17813
904.863	17805
904.981	17661
905.098	17372
905.216	17554
905.334	17497
905.451	17440
905.569	17395
905.686	17509
905.803	17425
905.921	17258
906.038	17402
906.155	17227
906.272	17277
906.389	17117
906.506	17105
906.623	17113
906.74	17037
906.857	16984
906.974	16946
907.091	17060
907.208	17086
907.324	17037
907.441	16873
907.557	16736
907.674	16679
907.79	16748
907.907	16698
908.023	16805
908.139	16866
908.256	16736
908.372	16618
908.488	16626
908.604	16558
908.72	16504
908.836	16603
908.952	16485
909.068	16466
909.184	16546
909.3	16535
909.415	16649
909.531	16462
909.647	16204
909.762	16204
909.878	16257
909.993	16272
910.108	16131
910.224	16173
910.339	16265
910.454	15991
910.57	16010
910.685	15903
910.8	16204
910.915	16280
911.03	16002
911.145	15857
911.259	15759
911.374	15804
911.489	15682
911.604	15728
911.718	15447
911.833	15557
911.947	15458
912.062	15416
912.176	15504
912.291	15622
912.405	15447
912.519	15747
912.633	15728
912.748	15519
912.862	15492
912.976	15264
913.09	15192
913.204	15405
913.318	15302
913.431	15447
913.545	15458
913.659	15416
913.772	15329
913.886	15207
914	15214
914.113	15222
914.226	15230
914.34	15195
914.453	15093
914.566	15218
914.68	15058
914.793	14994
914.906	14830
915.019	14724
915.132	14720
915.245	14823
915.358	14861
915.47	14800
915.583	14823
915.696	14758
915.809	14948
915.921	14868
916.034	14674
916.146	14674
916.259	14674
916.371	14815
916.483	14724
916.595	14659
916.708	14682
916.82	14670
916.932	14575
917.044	14514
917.156	14640
917.268	14450
917.38	14396
917.491	14320
917.603	14423
917.715	14541
917.826	14507
917.938	14389
918.049	14385
918.161	14328
918.272	14511
918.384	14499
918.495	14404
918.606	14218
918.717	14229
918.828	14267
918.939	14336
919.05	14191
919.161	14259
919.272	14008
919.383	14031
919.494	14275
919.604	14374
919.715	14214
919.826	14115
919.936	14149
920.047	14210
920.157	14305
920.267	14267
920.378	14172
920.488	14130
920.598	14317
920.708	14431
920.818	14290
920.928	14214
921.038	14393
921.148	14438
921.258	14134
921.368	13993
921.477	13837
921.587	13807
921.697	13879
921.806	13917
921.916	13788
922.025	13643
922.134	13533
922.244	13525
922.353	13552
922.462	13388
922.571	13346
922.68	13244
922.789	13285
922.898	13247
923.007	13103
923.116	13228
923.224	13263
923.333	13244
923.442	13057
923.55	13069
923.659	13053
923.767	13099
923.876	12985
923.984	12966
924.092	12913
924.201	13034
924.309	13019
924.417	12932
924.525	12787
924.633	13008
924.741	13864
924.849	12700
924.956	12833
925.064	12642
925.172	12597
925.279	12684
925.387	12753
925.494	12707
925.602	12825
925.709	12646
925.816	12532
925.924	12570
926.031	12711
926.138	12616
926.245	12662
926.352	12464
926.459	12669
926.566	12665
926.673	12536
926.779	12407
926.886	12372
926.993	12251
927.099	12178
927.206	12133
927.312	12201
927.419	12258
927.525	12209
927.631	12308
927.737	12057
927.843	12034
927.95	12068
928.056	11992
928.162	12129
928.267	12140
928.373	12642
928.479	12194
928.585	11843
928.69	12068
928.796	11950
928.901	11939
929.007	11840
929.112	11939
929.218	11885
929.323	11843
929.428	11805
929.533	11889
929.638	11703
929.743	11729
929.848	11710
929.953	11737
930.058	11680
930.163	11452
930.267	11482
930.372	11581
930.477	11372
930.581	11608
930.685	11630
930.79	11379
930.894	11414
930.998	11414
931.103	11368
931.207	11124
931.311	11041
931.415	10930
931.519	10820
931.623	10847
