Data from test_V78500241_1851.txt Node
Date: Fri Mar 25 15:22:44 CST 2022
User: usil
Spectrometer: V785-0024
Trigger mode: 0
Integration Time (sec): 4.000000E-1
Scans to average: 1
Nonlinearity correction enabled: false
Boxcar width: 0
Storing dark spectrum: false
XAxis mode: Wavelengths
Number of Pixels in Spectrum: 1024
>>>>>Begin Spectral Data<<<<<
801.071	27857
801.214	27599
801.356	27447
801.499	27336
801.641	27424
801.783	27363
801.926	27359
802.068	27249
802.211	27397
802.353	27135
802.496	27093
802.638	26994
802.78	26979
802.923	26967
803.065	26876
803.208	26876
803.35	27062
803.492	27093
803.635	27233
803.777	27123
803.919	27249
804.061	27424
804.204	27283
804.346	27173
804.488	27100
804.63	27207
804.773	27028
804.915	27214
805.057	27268
805.199	27154
805.341	27222
805.483	27230
805.626	27180
805.768	27188
805.91	27279
806.052	27279
806.194	27214
806.336	27462
806.478	27329
806.62	27173
806.762	27218
806.904	27545
807.046	27720
807.188	27610
807.33	27652
807.472	27835
807.614	27610
807.756	27534
807.898	27523
808.04	27424
808.182	27580
808.324	27663
808.465	27603
808.607	27785
808.749	27998
808.891	27907
809.033	28177
809.174	27994
809.316	27854
809.458	27918
809.6	27998
809.741	28124
809.883	27998
810.025	28185
810.166	28333
810.308	28040
810.45	28173
810.591	28124
810.733	27953
810.875	27934
811.016	27781
811.158	27800
811.299	27945
811.441	28074
811.582	27922
811.724	27941
811.865	27827
812.007	27987
812.148	27861
812.29	28006
812.431	28055
812.573	28158
812.714	28238
812.855	28489
812.997	28611
813.138	28504
813.279	28554
813.421	28474
813.562	28573
813.703	28356
813.845	28086
813.986	27945
814.127	27797
814.268	27660
814.41	27587
814.551	27443
814.692	27720
814.833	27583
814.974	27553
815.115	27473
815.256	27401
815.397	27469
815.539	27545
815.68	27313
815.821	27393
815.962	27481
816.103	27351
816.244	27268
816.385	27180
816.526	27055
816.666	27028
816.807	26925
816.948	26956
817.089	26956
817.23	27077
817.371	26792
817.512	26891
817.653	26921
817.793	26826
817.934	26807
818.075	26994
818.216	26842
818.356	26868
818.497	26910
818.638	26632
818.778	26613
818.919	26648
819.06	26724
819.2	26743
819.341	26842
819.481	26853
819.622	27024
819.762	27317
819.903	27081
820.043	27096
820.184	26910
820.324	26967
820.465	27077
820.605	26967
820.746	26918
820.886	27024
821.026	26982
821.167	27024
821.307	27138
821.447	26868
821.588	26621
821.728	26708
821.868	26640
822.008	26381
822.149	26355
822.289	26358
822.429	26142
822.569	26088
822.709	26126
822.849	25913
822.99	25890
823.13	25902
823.27	25769
823.41	25814
823.55	25651
823.69	25727
823.83	25681
823.97	25757
824.11	25464
824.25	25506
824.389	25499
824.529	25548
824.669	25521
824.809	25742
824.949	25533
825.089	25772
825.228	25552
825.368	25472
825.508	25335
825.648	25476
825.787	25384
825.927	25506
826.067	25396
826.206	25479
826.346	25499
826.485	25495
826.625	25445
826.765	25422
826.904	25472
827.044	25179
827.183	25221
827.323	25095
827.462	25316
827.601	25126
827.741	25012
827.88	25122
828.02	24962
828.159	25084
828.298	25099
828.437	25217
828.577	25103
828.716	25289
828.855	24973
828.994	24817
829.134	24795
829.273	24951
829.412	24863
829.551	24719
829.69	24779
829.829	24920
829.968	24932
830.107	24814
830.246	24882
830.385	24772
830.524	24795
830.663	24620
830.802	24525
830.941	24445
831.08	24574
831.219	24578
831.357	24509
831.496	24817
831.635	24410
831.774	24475
831.913	24300
832.051	24380
832.19	24155
832.329	24319
832.467	24194
832.606	24117
832.744	24095
832.883	24228
833.022	24140
833.16	24201
833.299	24258
833.437	24239
833.576	24095
833.714	24213
833.852	24296
833.991	24254
834.129	24323
834.267	24384
834.406	24148
834.544	24296
834.682	24361
834.821	24220
834.959	24448
835.097	24243
835.235	24209
835.373	24258
835.511	24190
835.65	24095
835.788	24072
835.926	23942
836.064	23889
836.202	23927
836.34	23969
836.478	24190
836.615	24018
836.753	24041
836.891	24167
837.029	24117
837.167	24018
837.305	23878
837.443	23969
837.58	23878
837.718	23946
837.856	23889
837.993	23832
838.131	23824
838.269	23821
838.406	23805
838.544	23691
838.681	23547
838.819	23630
838.956	23398
839.094	23341
839.231	23448
839.369	23486
839.506	23794
839.643	23608
839.781	23360
839.918	23239
840.055	23318
840.193	23307
840.33	23387
840.467	23318
840.604	23391
840.742	23528
840.879	23269
841.016	23364
841.153	23185
841.29	23509
841.427	23155
841.564	23273
841.701	23330
841.838	23159
841.975	23181
842.112	23193
842.249	23006
842.385	23029
842.522	23296
842.659	23071
842.796	22938
842.933	23003
843.069	23010
843.206	23075
843.343	23181
843.479	23083
843.616	23044
843.752	22885
843.889	22809
844.025	22991
844.162	22740
844.298	22957
844.435	22877
844.571	22786
844.708	22938
844.844	23025
844.98	22984
845.117	22862
845.253	22759
845.389	22710
845.525	22748
845.661	22668
845.798	22656
845.934	22615
846.07	22504
846.206	22557
846.342	22721
846.478	22607
846.614	22394
846.75	22162
846.886	22421
847.022	22314
847.158	22333
847.294	22265
847.429	22379
847.565	22341
847.701	22557
847.837	22051
847.972	22021
848.108	22070
848.244	22040
848.379	21949
848.515	21903
848.65	21823
848.786	21907
848.921	22002
849.057	21972
849.192	21968
849.328	21972
849.463	21892
849.598	21907
849.734	21793
849.869	21846
850.004	21701
850.14	21759
850.275	21637
850.41	21583
850.545	21469
850.68	21629
850.815	21720
850.95	21747
851.085	21846
851.22	21804
851.355	21656
851.49	21629
851.625	21576
851.76	21679
851.895	21515
852.03	21530
852.165	21523
852.299	21679
852.434	21701
852.569	21583
852.703	21709
852.838	21827
852.973	21789
853.107	21819
853.242	21557
853.376	21530
853.511	21351
853.645	21447
853.78	21561
853.914	21466
854.048	21310
854.183	21389
854.317	21542
854.451	21644
854.585	21515
854.72	21424
854.854	21526
854.988	21378
855.122	21450
855.256	21291
855.39	21435
855.524	21572
855.658	21473
855.792	21496
855.926	21625
856.06	21492
856.194	21504
856.327	21496
856.461	21428
856.595	21298
856.729	21545
856.862	21637
856.996	21538
857.13	21625
857.263	21610
857.397	21663
857.53	21462
857.664	21637
857.797	21500
857.931	21591
858.064	21466
858.197	21519
858.331	21374
858.464	21344
858.597	21310
858.731	21351
858.864	21344
858.997	21359
859.13	21614
859.263	21507
859.396	21530
859.529	21412
859.662	21488
859.795	21412
859.928	21416
860.061	21701
860.194	21709
860.327	21530
860.46	21428
860.592	21576
860.725	21587
860.858	21625
860.99	21599
861.123	21310
861.256	21545
861.388	21424
861.521	22116
861.653	21321
861.786	21313
861.918	21370
862.05	21340
862.183	21378
862.315	21431
862.447	21447
862.58	21435
862.712	21123
862.844	21188
862.976	21291
863.108	21226
863.24	21538
863.372	21131
863.504	21161
863.636	21245
863.768	21237
863.9	21226
864.032	21142
864.164	21169
864.296	21230
864.428	21351
864.559	21211
864.691	21218
864.823	21195
864.954	21195
865.086	21116
865.217	21302
865.349	21070
865.48	21036
865.612	21119
865.743	21207
865.875	21188
866.006	21058
866.137	20994
866.269	21096
866.4	21028
866.531	21176
866.662	20990
866.793	21089
866.924	20971
867.055	21036
867.186	20994
867.317	20944
867.448	20910
867.579	21108
867.71	20963
867.841	20918
867.972	20899
868.103	20895
868.233	21070
868.364	21096
868.495	21161
868.625	21161
868.756	21344
868.886	21188
869.017	21188
869.147	21348
869.278	21374
869.408	21294
869.539	21230
869.669	21340
869.799	21336
869.929	21416
870.06	21389
870.19	21580
870.32	21557
870.45	21549
870.58	21595
870.71	21652
870.84	21774
870.97	21587
871.1	21603
871.23	21759
871.36	21766
871.489	21717
871.619	21808
871.749	21778
871.879	21797
872.008	21975
872.138	21884
872.267	21854
872.397	21751
872.526	21641
872.656	21679
872.785	21648
872.915	21979
873.044	21998
873.173	21880
873.303	21835
873.432	21869
873.561	22017
873.69	21831
873.819	21941
873.948	22002
874.077	21850
874.206	21915
874.335	21934
874.464	22025
874.593	22207
874.722	22105
874.851	22059
874.979	22112
875.108	22070
875.237	21983
875.365	21987
875.494	21987
875.623	22124
875.751	22017
875.88	22036
876.008	22253
876.136	22246
876.265	22402
876.393	22432
876.521	22550
876.65	22645
876.778	22607
876.906	22386
877.034	22356
877.162	22527
877.29	22325
877.418	22409
877.546	22466
877.674	22542
877.802	22599
877.93	22394
878.058	22284
878.185	22356
878.313	22470
878.441	22390
878.568	22268
878.696	22303
878.824	22622
878.951	22557
879.079	22542
879.206	22679
879.333	22611
879.461	22424
879.588	22618
879.715	22516
879.842	22672
879.97	22523
880.097	22284
880.224	22253
880.351	22280
880.478	22295
880.605	22200
880.732	22223
880.859	22318
880.986	22261
881.112	22341
881.239	22215
881.366	22002
881.493	21975
881.619	21808
881.746	21930
881.872	21869
881.999	21797
882.125	21701
882.252	21915
882.378	21846
882.505	21922
882.631	21698
882.757	21583
882.883	21610
883.01	21564
883.136	21408
883.262	21351
883.388	21420
883.514	21564
883.64	21568
883.766	21515
883.892	21351
884.018	21332
884.143	21435
884.269	21454
884.395	21272
884.52	21100
884.646	21230
884.772	21017
884.897	21241
885.023	21173
885.148	21199
885.274	21291
885.399	21241
885.524	21108
885.65	21222
885.775	21157
885.9	21184
886.025	21176
886.15	21180
886.275	21169
886.4	21096
886.525	21150
886.65	21100
886.775	21009
886.9	21230
887.025	21340
887.149	21203
887.274	21001
887.399	20948
887.523	20815
887.648	20902
887.773	20796
887.897	20967
888.021	20899
888.146	20823
888.27	21020
888.395	20979
888.519	20967
888.643	20990
888.767	21001
888.891	20857
889.015	20705
889.139	20724
889.263	20746
889.387	20861
889.511	20944
889.635	20826
889.759	20678
889.883	20693
890.006	20830
890.13	20941
890.254	20727
890.377	20552
890.501	20366
890.624	20389
890.748	20480
890.871	20320
890.995	20225
891.118	20301
891.241	20332
891.364	20317
891.488	20438
891.611	20374
891.734	20309
891.857	20431
891.98	20290
892.103	20358
892.226	20320
892.349	20244
892.471	20050
892.594	20195
892.717	20286
892.839	20180
892.962	20244
893.085	20256
893.207	20187
893.33	20027
893.452	20176
893.575	20366
893.697	20115
893.819	20343
893.941	20488
894.064	20336
894.186	20073
894.308	20183
894.43	20195
894.552	20275
894.674	20309
894.796	19970
894.918	20107
895.04	20191
895.161	20248
895.283	20210
895.405	20145
895.526	20138
895.648	20164
895.769	20100
895.891	20172
896.012	20256
896.134	20256
896.255	20119
896.376	20225
896.498	20107
896.619	20145
896.74	20187
896.861	20278
896.982	20590
897.103	20644
897.224	20275
897.345	20415
897.466	20446
897.587	20404
897.708	20560
897.828	20393
897.949	20332
898.07	20320
898.19	20339
898.311	20427
898.431	20320
898.552	20450
898.672	20518
898.792	20552
898.913	20427
899.033	20263
899.153	20153
899.273	20069
899.393	20111
899.513	20229
899.633	20161
899.753	20221
899.873	20122
899.993	20062
900.113	20065
900.232	20012
900.352	20088
900.472	20035
900.591	19932
900.711	20039
900.83	19890
900.95	19959
901.069	19955
901.189	19871
901.308	19594
901.427	19476
901.546	19533
901.665	19419
901.784	19563
901.904	19335
902.023	19362
902.141	19057
902.26	19110
902.379	19053
902.498	18989
902.617	18996
902.735	19046
902.854	18981
902.973	18947
903.091	18654
903.21	18612
903.328	18669
903.446	18559
903.565	18536
903.683	18414
903.801	18323
903.919	18578
904.038	18418
904.156	18308
904.274	18327
904.392	18300
904.51	18186
904.627	18213
904.745	18262
904.863	18296
904.981	18030
905.098	17866
905.216	17973
905.334	17996
905.451	17988
905.569	17942
905.686	17958
905.803	17973
905.921	17718
906.038	17699
906.155	17809
906.272	17634
906.389	17638
906.506	17448
906.623	17452
906.74	17490
906.857	17356
906.974	17360
907.091	17478
907.208	17581
907.324	17501
907.441	17372
907.557	17098
907.674	17208
907.79	17155
907.907	17113
908.023	17337
908.139	17193
908.256	17132
908.372	17018
908.488	17064
908.604	16949
908.72	16904
908.836	16934
908.952	16946
909.068	16908
909.184	16999
909.3	16816
909.415	16972
909.531	16961
909.647	16656
909.762	16554
909.878	16554
909.993	16694
910.108	16550
910.224	16504
910.339	16596
910.454	16310
910.57	16344
910.685	16360
910.8	16626
910.915	16618
911.03	16398
911.145	16249
911.259	16230
911.374	16234
911.489	16131
911.604	16063
911.718	15911
911.833	15941
911.947	15850
912.062	15766
912.176	15884
912.291	15953
912.405	15926
912.519	16150
912.633	16078
912.748	15960
912.862	15876
912.976	15842
913.09	15717
913.204	15793
913.318	15739
913.431	15869
913.545	15804
913.659	15934
913.772	15671
913.886	15603
914	15603
914.113	15656
914.226	15637
914.34	15641
914.453	15447
914.566	15599
914.68	15466
914.793	15348
914.906	15207
915.019	15188
915.132	15131
915.245	15138
915.358	15241
915.47	15135
915.583	15146
915.696	15230
915.809	15272
915.921	15291
916.034	15154
916.146	15097
916.259	15070
916.371	15211
916.483	15131
916.595	14952
916.708	14990
916.82	14906
916.932	14914
917.044	14868
917.156	14956
917.268	14804
917.38	14876
917.491	14788
917.603	14811
917.715	14868
917.826	14914
917.938	14743
918.049	14598
918.161	14826
918.272	14918
918.384	14823
918.495	14811
918.606	14632
918.717	14511
918.828	14663
918.939	14583
919.05	14526
919.161	14469
919.272	14389
919.383	14408
919.494	14686
919.604	14781
919.715	14583
919.826	14507
919.936	14571
920.047	14564
920.157	14621
920.267	14746
920.378	14552
920.488	14533
920.598	14636
920.708	14804
920.818	14727
920.928	14689
921.038	14708
921.148	14705
921.258	14419
921.368	14374
921.477	14286
921.587	14286
921.697	14088
921.806	14278
921.916	14024
922.025	13940
922.134	13890
922.244	13837
922.353	13906
922.462	13811
922.571	13776
922.68	13540
922.789	13514
922.898	13533
923.007	13487
923.116	13571
923.224	13559
923.333	13658
923.442	13540
923.55	13320
923.659	13365
923.767	13457
923.876	13343
923.984	13464
924.092	13202
924.201	13304
924.309	13228
924.417	13209
924.525	13232
924.633	13194
924.741	14199
924.849	13099
924.956	13065
925.064	13015
925.172	12966
925.279	12924
925.387	13046
925.494	12958
925.602	13084
925.709	12958
925.816	12867
925.924	12875
926.031	12973
926.138	12924
926.245	12924
926.352	12787
926.459	12981
926.566	13000
926.673	12791
926.779	12791
926.886	12749
926.993	12612
927.099	12521
927.206	12521
927.312	12414
927.419	12528
927.525	12471
927.631	12593
927.737	12376
927.843	12369
927.95	12281
928.056	12334
928.162	12399
928.267	12391
928.373	12905
928.479	12517
928.585	12190
928.69	12289
928.796	12319
928.901	12228
929.007	12110
929.112	12194
929.218	12152
929.323	12190
929.428	12121
929.533	12243
929.638	12038
929.743	12110
929.848	12038
929.953	12026
930.058	11927
930.163	11714
930.267	11771
930.372	11855
930.477	11691
930.581	11980
930.685	11794
930.79	11627
930.894	11653
930.998	11634
931.103	11779
931.207	11341
931.311	11311
931.415	11307
931.519	11067
931.623	11071
