Data from test_V78500241_1189.txt Node
Date: Fri Mar 25 15:18:08 CST 2022
User: usil
Spectrometer: V785-0024
Trigger mode: 0
Integration Time (sec): 4.000000E-1
Scans to average: 1
Nonlinearity correction enabled: false
Boxcar width: 0
Storing dark spectrum: false
XAxis mode: Wavelengths
Number of Pixels in Spectrum: 1024
>>>>>Begin Spectral Data<<<<<
801.071	27983
801.214	28048
801.356	27759
801.499	27568
801.641	27644
801.783	27458
801.926	27549
802.068	27397
802.211	27450
802.353	27340
802.496	27241
802.638	27268
802.78	27195
802.923	27123
803.065	27096
803.208	27089
803.35	27157
803.492	27142
803.635	27344
803.777	27188
803.919	27344
804.061	27770
804.204	27485
804.346	27325
804.488	27256
804.63	27427
804.773	27313
804.915	27386
805.057	27542
805.199	27363
805.341	27488
805.483	27515
805.626	27595
805.768	27408
805.91	27344
806.052	27530
806.194	27473
806.336	27652
806.478	27557
806.62	27530
806.762	27728
806.904	27770
807.046	28147
807.188	27755
807.33	27903
807.472	27937
807.614	27869
807.756	27914
807.898	27679
808.04	27675
808.182	27762
808.324	27804
808.465	27926
808.607	27907
808.749	28173
808.891	28246
809.033	28284
809.174	28150
809.316	28207
809.458	28124
809.6	28013
809.741	28352
809.883	28280
810.025	28318
810.166	28401
810.308	28519
810.45	28436
810.591	28284
810.733	28185
810.875	28215
811.016	28101
811.158	28093
811.299	28295
811.441	28120
811.582	28322
811.724	28215
811.865	28131
812.007	28154
812.148	28090
812.29	28238
812.431	28268
812.573	28455
812.714	28596
812.855	28824
812.997	28599
813.138	28953
813.279	28790
813.421	28660
813.562	28565
813.703	28535
813.845	28333
813.986	28177
814.127	27945
814.268	27884
814.41	27793
814.551	27713
814.692	27880
814.833	27652
814.974	27911
815.115	27949
815.256	27686
815.397	27728
815.539	27728
815.68	27576
815.821	27511
815.962	27591
816.103	27507
816.244	27648
816.385	27397
816.526	27378
816.666	27188
816.807	27211
816.948	27157
817.089	27252
817.23	27058
817.371	27272
817.512	27218
817.653	27131
817.793	27184
817.934	27176
818.075	27226
818.216	27203
818.356	27142
818.497	26960
818.638	26944
818.778	26796
818.919	27017
819.06	27070
819.2	27017
819.341	27039
819.481	27279
819.622	27252
819.762	27477
819.903	27336
820.043	27386
820.184	27233
820.324	27237
820.465	27218
820.605	27275
820.746	27279
820.886	27123
821.026	27294
821.167	27275
821.307	27294
821.447	27138
821.588	27036
821.728	26956
821.868	26689
822.008	26788
822.149	26575
822.289	26469
822.429	26362
822.569	26256
822.709	26286
822.849	26172
822.99	26195
823.13	26062
823.27	26168
823.41	26100
823.55	25902
823.69	25966
823.83	25997
823.97	25951
824.11	25807
824.25	25719
824.389	25788
824.529	25879
824.669	25803
824.809	25757
824.949	25818
825.089	25807
825.228	25890
825.368	25499
825.508	25605
825.648	25776
825.787	25837
825.927	25822
826.067	25578
826.206	25616
826.346	25674
826.485	25655
826.625	25605
826.765	25738
826.904	25746
827.044	25499
827.183	25434
827.323	25476
827.462	25377
827.601	25434
827.741	25362
827.88	25358
828.02	25388
828.159	25441
828.298	25430
828.437	25495
828.577	25362
828.716	25362
828.855	25206
828.994	25076
829.134	25110
829.273	25289
829.412	25171
829.551	25069
829.69	25023
829.829	25099
829.968	25145
830.107	25148
830.246	25110
830.385	25008
830.524	24920
830.663	24909
830.802	24840
830.941	24673
831.08	24673
831.219	24848
831.357	24825
831.496	24951
831.635	24677
831.774	24692
831.913	24585
832.051	24460
832.19	24502
832.329	24578
832.467	24429
832.606	24289
832.744	24395
832.883	24243
833.022	24494
833.16	24403
833.299	24464
833.437	24547
833.576	24445
833.714	24414
833.852	24505
833.991	24585
834.129	24467
834.267	24536
834.406	24376
834.544	24540
834.682	24422
834.821	24456
834.959	24753
835.097	24384
835.235	24532
835.373	24658
835.511	24418
835.65	24414
835.788	24346
835.926	24239
836.064	24098
836.202	24072
836.34	24308
836.478	24330
836.615	24197
836.753	24365
836.891	24334
837.029	24391
837.167	24292
837.305	24167
837.443	24064
837.58	24205
837.718	24296
837.856	24197
837.993	24121
838.131	24209
838.269	24038
838.406	24087
838.544	23882
838.681	23813
838.819	23676
838.956	23524
839.094	23611
839.231	23699
839.369	23756
839.506	23984
839.643	23931
839.781	23748
839.918	23577
840.055	23687
840.193	23585
840.33	23490
840.467	23520
840.604	23619
840.742	23851
840.879	23387
841.016	23448
841.153	23368
841.29	23802
841.427	23596
841.564	23634
841.701	23524
841.838	23531
841.975	23410
842.112	23425
842.249	23353
842.385	23311
842.522	23505
842.659	23292
842.796	23284
842.933	23258
843.069	23364
843.206	23166
843.343	23337
843.479	23292
843.616	23242
843.752	23033
843.889	23048
844.025	23212
844.162	23181
844.298	23178
844.435	23071
844.571	23033
844.708	23136
844.844	23235
844.98	23185
845.117	23220
845.253	23124
845.389	23014
845.525	22999
845.661	22976
845.798	22786
845.934	22801
846.07	22725
846.206	22824
846.342	22885
846.478	22755
846.614	22565
846.75	22550
846.886	22569
847.022	22561
847.158	22561
847.294	22443
847.429	22668
847.565	22447
847.701	22786
847.837	22253
847.972	22329
848.108	22310
848.244	22379
848.379	22105
848.515	22162
848.65	22093
848.786	22105
848.921	22238
849.057	22196
849.192	22200
849.328	22112
849.463	22093
849.598	22109
849.734	22063
849.869	21934
850.004	21861
850.14	21991
850.275	21949
850.41	21876
850.545	21831
850.68	21709
850.815	21861
850.95	21884
851.085	22090
851.22	21907
851.355	21968
851.49	21892
851.625	21842
851.76	21800
851.895	21743
852.03	21778
852.165	21857
852.299	22002
852.434	21854
852.569	21960
852.703	21888
852.838	22021
852.973	22029
853.107	21998
853.242	21808
853.376	21739
853.511	21675
853.645	21663
853.78	21686
853.914	21633
854.048	21618
854.183	21591
854.317	21679
854.451	21918
854.585	21690
854.72	21587
854.854	21789
854.988	21572
855.122	21713
855.256	21595
855.39	21549
855.524	21770
855.658	21709
855.792	21701
855.926	21679
856.06	21766
856.194	21812
856.327	21850
856.461	21629
856.595	21717
856.729	21793
856.862	21835
856.996	21675
857.13	21819
857.263	21857
857.397	21911
857.53	21663
857.664	21762
857.797	21800
857.931	21713
858.064	21698
858.197	21854
858.331	21724
858.464	21644
858.597	21591
858.731	21572
858.864	21583
858.997	21500
859.13	21644
859.263	21629
859.396	21861
859.529	21656
859.662	21778
859.795	21663
859.928	21606
860.061	21762
860.194	21774
860.327	21698
860.46	21694
860.592	21766
860.725	21838
860.858	21819
860.99	21648
861.123	21591
861.256	21648
861.388	21610
861.521	22527
861.653	21690
861.786	21401
861.918	21515
862.05	21576
862.183	21644
862.315	21660
862.447	21595
862.58	21622
862.712	21344
862.844	21401
862.976	21523
863.108	21416
863.24	21755
863.372	21431
863.504	21393
863.636	21374
863.768	21519
863.9	21416
864.032	21374
864.164	21393
864.296	21389
864.428	21454
864.559	21439
864.691	21447
864.823	21466
864.954	21477
865.086	21249
865.217	21351
865.349	21241
865.48	21374
865.612	21332
865.743	21458
865.875	21272
866.006	21275
866.137	21222
866.269	21260
866.4	21313
866.531	21287
866.662	21199
866.793	21173
866.924	21184
867.055	21211
867.186	21222
867.317	21287
867.448	21173
867.579	21116
867.71	21222
867.841	21142
867.972	21268
868.103	21306
868.233	21260
868.364	21233
868.495	21260
868.625	21416
868.756	21698
868.886	21526
869.017	21363
869.147	21542
869.278	21587
869.408	21393
869.539	21549
869.669	21625
869.799	21553
869.929	21466
870.06	21618
870.19	21785
870.32	21827
870.45	21873
870.58	21793
870.71	21884
870.84	22032
870.97	21880
871.1	21953
871.23	21972
871.36	22105
871.489	21941
871.619	22051
871.749	21972
871.879	22044
872.008	22131
872.138	22093
872.267	22044
872.397	21922
872.526	21979
872.656	21827
872.785	21983
872.915	22074
873.044	22181
873.173	22093
873.303	22070
873.432	22067
873.561	22158
873.69	22070
873.819	22017
873.948	22215
874.077	22112
874.206	21975
874.335	22120
874.464	22192
874.593	22238
874.722	22238
874.851	22280
874.979	22421
875.108	22325
875.237	22314
875.365	22158
875.494	22261
875.623	22287
875.751	22196
875.88	22344
876.008	22409
876.136	22550
876.265	22531
876.393	22744
876.521	22729
876.65	22812
876.778	22713
876.906	22691
877.034	22584
877.162	22767
877.29	22561
877.418	22691
877.546	22656
877.674	22626
877.802	22687
877.93	22615
878.058	22641
878.185	22489
878.313	22538
878.441	22580
878.568	22557
878.696	22561
878.824	22767
878.951	22641
879.079	22919
879.206	23003
879.333	22847
879.461	22694
879.588	22653
879.715	22820
879.842	22908
879.97	22774
880.097	22402
880.224	22504
880.351	22447
880.478	22405
880.605	22440
880.732	22424
880.859	22664
880.986	22432
881.112	22519
881.239	22280
881.366	22135
881.493	22101
881.619	22036
881.746	22055
881.872	22051
881.999	21922
882.125	21964
882.252	22082
882.378	22067
882.505	22112
882.631	21892
882.757	21705
882.883	21781
883.01	21751
883.136	21785
883.262	21667
883.388	21561
883.514	21778
883.64	21823
883.766	21637
883.892	21591
884.018	21606
884.143	21743
884.269	21694
884.395	21485
884.52	21348
884.646	21401
884.772	21359
884.897	21222
885.023	21355
885.148	21488
885.274	21526
885.399	21386
885.524	21367
885.65	21351
885.775	21336
885.9	21241
886.025	21454
886.15	21511
886.275	21340
886.4	21287
886.525	21321
886.65	21302
886.775	21150
886.9	21462
887.025	21545
887.149	21389
887.274	21279
887.399	21146
887.523	21058
887.648	21150
887.773	21058
887.897	21233
888.021	21241
888.146	21074
888.27	21249
888.395	21176
888.519	21154
888.643	21214
888.767	21218
888.891	21108
889.015	20834
889.139	20967
889.263	20956
889.387	21096
889.511	21066
889.635	21051
889.759	20902
889.883	20842
890.006	20998
890.13	21036
890.254	20834
890.377	20941
890.501	20785
890.624	20758
890.748	20739
890.871	20568
890.995	20533
891.118	20442
891.241	20473
891.364	20419
891.488	20537
891.611	20419
891.734	20362
891.857	20590
891.98	20552
892.103	20541
892.226	20579
892.349	20492
892.471	20320
892.594	20431
892.717	20385
892.839	20454
892.962	20461
893.085	20442
893.207	20465
893.33	20328
893.452	20259
893.575	20385
893.697	20461
893.819	20495
893.941	20533
894.064	20484
894.186	20336
894.308	20343
894.43	20412
894.552	20571
894.674	20526
894.796	20240
894.918	20294
895.04	20332
895.161	20438
895.283	20503
895.405	20237
895.526	20355
895.648	20332
895.769	20476
895.891	20404
896.012	20476
896.134	20461
896.255	20393
896.376	20309
896.498	20355
896.619	20473
896.74	20343
896.861	20473
896.982	20663
897.103	20765
897.224	20621
897.345	20469
897.466	20484
897.587	20617
897.708	20773
897.828	20511
897.949	20343
898.07	20423
898.19	20575
898.311	20602
898.431	20537
898.552	20499
898.672	20705
898.792	20613
898.913	20522
899.033	20381
899.153	20408
899.273	20259
899.393	20256
899.513	20328
899.633	20347
899.753	20317
899.873	20301
899.993	20339
900.113	20282
900.232	20214
900.352	20149
900.472	20202
900.591	20065
900.711	20187
900.83	19917
900.95	20191
901.069	20084
901.189	19997
901.308	19776
901.427	19563
901.546	19750
901.665	19761
901.784	19655
901.904	19506
902.023	19441
902.141	19285
902.26	19168
902.379	19213
902.498	19171
902.617	19084
902.735	19255
902.854	19217
902.973	19076
903.091	18837
903.21	18886
903.328	18837
903.446	18757
903.565	18525
903.683	18658
903.801	18639
903.919	18658
904.038	18593
904.156	18532
904.274	18369
904.392	18437
904.51	18327
904.627	18445
904.745	18528
904.863	18460
904.981	18304
905.098	18095
905.216	18155
905.334	18194
905.451	18167
905.569	18117
905.686	18068
905.803	18019
905.921	17859
906.038	17958
906.155	17980
906.272	17760
906.389	17855
906.506	17695
906.623	17695
906.74	17589
906.857	17585
906.974	17509
907.091	17714
907.208	17764
907.324	17661
907.441	17463
907.557	17398
907.674	17326
907.79	17349
907.907	17353
908.023	17376
908.139	17318
908.256	17250
908.372	17280
908.488	17178
908.604	17022
908.72	17022
908.836	17018
908.952	16991
909.068	17052
909.184	17132
909.3	16961
909.415	17121
909.531	17056
909.647	16858
909.762	16805
909.878	16729
909.993	16759
910.108	16824
910.224	16691
910.339	16767
910.454	16573
910.57	16519
910.685	16497
910.8	16828
910.915	16767
911.03	16561
911.145	16436
911.259	16314
911.374	16360
911.489	16329
911.604	16341
911.718	16143
911.833	16086
911.947	16002
912.062	15869
912.176	16055
912.291	16074
912.405	16071
912.519	16265
912.633	16314
912.748	16128
912.862	16044
912.976	15956
913.09	15850
913.204	15873
913.318	15953
913.431	15937
913.545	16010
913.659	15934
913.772	15918
913.886	15766
914	15766
914.113	15774
914.226	15808
914.34	15724
914.453	15618
914.566	15724
914.68	15580
914.793	15599
914.906	15367
915.019	15389
915.132	15154
915.245	15325
915.358	15298
915.47	15370
915.583	15355
915.696	15378
915.809	15408
915.921	15412
916.034	15264
916.146	15252
916.259	15233
916.371	15279
916.483	15359
916.595	15142
916.708	15169
916.82	15104
916.932	15241
917.044	15081
917.156	15116
917.268	14956
917.38	14933
917.491	15001
917.603	14910
917.715	15074
917.826	14998
917.938	14899
918.049	14861
918.161	14937
918.272	15112
918.384	15009
918.495	14872
918.606	14842
918.717	14697
918.828	14659
918.939	14769
919.05	14644
919.161	14686
919.272	14438
919.383	14667
919.494	14731
919.604	14933
919.715	14659
919.826	14667
919.936	14640
920.047	14750
920.157	14697
920.267	14838
920.378	14777
920.488	14606
920.598	14891
920.708	14906
920.818	14773
920.928	14724
921.038	15074
921.148	14937
921.258	14549
921.368	14587
921.477	14454
921.587	14366
921.697	14290
921.806	14362
921.916	14301
922.025	14058
922.134	14031
922.244	14046
922.353	14046
922.462	13936
922.571	13890
922.68	13742
922.789	13636
922.898	13723
923.007	13658
923.116	13685
923.224	13651
923.333	13708
923.442	13578
923.55	13491
923.659	13609
923.767	13643
923.876	13457
923.984	13495
924.092	13369
924.201	13487
924.309	13354
924.417	13510
924.525	13335
924.633	13324
924.741	14027
924.849	13152
924.956	13274
925.064	13103
925.172	13080
925.279	13057
925.387	13069
925.494	13114
925.602	13156
925.709	13126
925.816	13023
925.924	12928
926.031	13156
926.138	13034
926.245	13072
926.352	12886
926.459	13129
926.566	13069
926.673	12958
926.779	12863
926.886	12806
926.993	12745
927.099	12688
927.206	12616
927.312	12601
927.419	12623
927.525	12646
927.631	12654
927.737	12616
927.843	12426
927.95	12395
928.056	12483
928.162	12471
928.267	12593
928.373	13027
928.479	12597
928.585	12251
928.69	12418
928.796	12494
928.901	12228
929.007	12228
929.112	12334
929.218	12315
929.323	12224
929.428	12171
929.533	12418
929.638	12167
929.743	12171
929.848	12292
929.953	12266
930.058	12068
930.163	11752
930.267	11916
930.372	11912
930.477	11897
930.581	12068
930.685	11840
930.79	11745
930.894	11748
930.998	11718
931.103	11931
931.207	11528
931.311	11417
931.415	11440
931.519	11094
931.623	11147
