Data from test_V78500241_1728.txt Node
Date: Fri Mar 25 15:21:53 CST 2022
User: usil
Spectrometer: V785-0024
Trigger mode: 0
Integration Time (sec): 4.000000E-1
Scans to average: 1
Nonlinearity correction enabled: false
Boxcar width: 0
Storing dark spectrum: false
XAxis mode: Wavelengths
Number of Pixels in Spectrum: 1024
>>>>>Begin Spectral Data<<<<<
801.071	27892
801.214	27595
801.356	27424
801.499	27412
801.641	27355
801.783	27393
801.926	27336
802.068	27272
802.211	27378
802.353	27287
802.496	27058
802.638	26944
802.78	26975
802.923	26887
803.065	26861
803.208	26986
803.35	27013
803.492	27142
803.635	27154
803.777	26994
803.919	27214
804.061	27370
804.204	27344
804.346	27028
804.488	27005
804.63	27180
804.773	27047
804.915	27077
805.057	27283
805.199	27108
805.341	27260
805.483	27382
805.626	27287
805.768	27127
805.91	27260
806.052	27370
806.194	27237
806.336	27469
806.478	27287
806.62	27317
806.762	27340
806.904	27637
807.046	27789
807.188	27823
807.33	27648
807.472	27709
807.614	27667
807.756	27603
807.898	27576
808.04	27492
808.182	27454
808.324	27587
808.465	27614
808.607	27884
808.749	27956
808.891	28070
809.033	28032
809.174	27907
809.316	27869
809.458	27808
809.6	27770
809.741	28078
809.883	28055
810.025	28242
810.166	28261
810.308	28276
810.45	28166
810.591	28131
810.733	27983
810.875	27949
811.016	27797
811.158	27713
811.299	27941
811.441	27903
811.582	28086
811.724	27861
811.865	27766
812.007	27956
812.148	27766
812.29	28010
812.431	28086
812.573	28303
812.714	28356
812.855	28295
812.997	28466
813.138	28550
813.279	28474
813.421	28462
813.562	28417
813.703	28276
813.845	28078
813.986	27880
814.127	27804
814.268	27606
814.41	27671
814.551	27667
814.692	27713
814.833	27549
814.974	27625
815.115	27648
815.256	27507
815.397	27511
815.539	27542
815.68	27466
815.821	27325
815.962	27462
816.103	27374
816.244	27317
816.385	27291
816.526	27047
816.666	26960
816.807	27001
816.948	26952
817.089	27028
817.23	26857
817.371	26895
817.512	26845
817.653	26902
817.793	26746
817.934	26883
818.075	26918
818.216	26842
818.356	26929
818.497	26823
818.638	26644
818.778	26549
818.919	26785
819.06	26701
819.2	26864
819.341	26876
819.481	26960
819.622	26880
819.762	27279
819.903	27127
820.043	27066
820.184	27020
820.324	26857
820.465	27077
820.605	27119
820.746	26902
820.886	26796
821.026	27013
821.167	26956
821.307	26952
821.447	26750
821.588	26823
821.728	26720
821.868	26568
822.008	26320
822.149	26347
822.289	26317
822.429	26107
822.569	25993
822.709	26027
822.849	25947
822.99	25849
823.13	25921
823.27	25655
823.41	25624
823.55	25624
823.69	25647
823.83	25731
823.97	25537
824.11	25464
824.25	25529
824.389	25495
824.529	25670
824.669	25529
824.809	25540
824.949	25518
825.089	25586
825.228	25419
825.368	25457
825.508	25460
825.648	25373
825.787	25354
825.927	25487
826.067	25407
826.206	25289
826.346	25365
826.485	25472
826.625	25415
826.765	25388
826.904	25369
827.044	25198
827.183	25129
827.323	24973
827.462	25232
827.601	25175
827.741	25179
827.88	25088
828.02	25038
828.159	25099
828.298	25118
828.437	25160
828.577	24935
828.716	25274
828.855	24992
828.994	24734
829.134	24806
829.273	24833
829.412	24779
829.551	24703
829.69	24867
829.829	24894
829.968	24840
830.107	24992
830.246	24848
830.385	24673
830.524	24566
830.663	24654
830.802	24471
830.941	24479
831.08	24384
831.219	24563
831.357	24460
831.496	24738
831.635	24410
831.774	24228
831.913	24235
832.051	24148
832.19	24197
832.329	24148
832.467	24197
832.606	24015
832.744	23984
832.883	23996
833.022	24167
833.16	24022
833.299	24034
833.437	24178
833.576	24174
833.714	24057
833.852	24072
833.991	24273
834.129	24083
834.267	24152
834.406	24220
834.544	24190
834.682	24053
834.821	24167
834.959	24281
835.097	24011
835.235	24129
835.373	24201
835.511	24079
835.65	23969
835.788	24110
835.926	23927
836.064	23790
836.202	23863
836.34	24034
836.478	24026
836.615	23783
836.753	23931
836.891	23973
837.029	24083
837.167	24022
837.305	23882
837.443	23832
837.58	23752
837.718	24053
837.856	23885
837.993	23798
838.131	23779
838.269	23767
838.406	23840
838.544	23573
838.681	23547
838.819	23512
838.956	23372
839.094	23254
839.231	23448
839.369	23520
839.506	23630
839.643	23570
839.781	23303
839.918	23181
840.055	23360
840.193	23299
840.33	23208
840.467	23265
840.604	23311
840.742	23505
840.879	23075
841.016	23265
841.153	23121
841.29	23189
841.427	23254
841.564	23220
841.701	23235
841.838	23223
841.975	23174
842.112	23037
842.249	23041
842.385	23018
842.522	23136
842.659	23018
842.796	22953
842.933	23029
843.069	22923
843.206	22824
843.343	23056
843.479	22927
843.616	22908
843.752	22820
843.889	22866
844.025	22934
844.162	22752
844.298	22968
844.435	22816
844.571	22767
844.708	22786
844.844	22835
844.98	22968
845.117	22786
845.253	22550
845.389	22592
845.525	22603
845.661	22630
845.798	22493
845.934	22584
846.07	22516
846.206	22459
846.342	22573
846.478	22478
846.614	22185
846.75	22188
846.886	22185
847.022	22310
847.158	22284
847.294	22196
847.429	22261
847.565	22249
847.701	22409
847.837	21941
847.972	21895
848.108	21964
848.244	21930
848.379	21949
848.515	21861
848.65	21888
848.786	21781
848.921	21808
849.057	21998
849.192	21854
849.328	21861
849.463	21778
849.598	21812
849.734	21641
849.869	21743
850.004	21591
850.14	21622
850.275	21572
850.41	21348
850.545	21450
850.68	21492
850.815	21545
850.95	21481
851.085	21656
851.22	21656
851.355	21572
851.49	21610
851.625	21545
851.76	21629
851.895	21420
852.03	21340
852.165	21622
852.299	21504
852.434	21690
852.569	21614
852.703	21580
852.838	21686
852.973	21690
853.107	21698
853.242	21542
853.376	21393
853.511	21154
853.645	21317
853.78	21496
853.914	21492
854.048	21203
854.183	21302
854.317	21416
854.451	21587
854.585	21332
854.72	21351
854.854	21504
854.988	21340
855.122	21325
855.256	21226
855.39	21332
855.524	21530
855.658	21454
855.792	21386
855.926	21344
856.06	21443
856.194	21416
856.327	21226
856.461	21408
856.595	21332
856.729	21351
856.862	21374
856.996	21401
857.13	21488
857.263	21515
857.397	21458
857.53	21329
857.664	21450
857.797	21408
857.931	21496
858.064	21416
858.197	21416
858.331	21447
858.464	21237
858.597	21306
858.731	21424
858.864	21439
858.997	21252
859.13	21420
859.263	21370
859.396	21492
859.529	21374
859.662	21450
859.795	21302
859.928	21447
860.061	21485
860.194	21736
860.327	21534
860.46	21496
860.592	21568
860.725	21496
860.858	21462
860.99	21374
861.123	21310
861.256	21332
861.388	21336
861.521	21991
861.653	21180
861.786	21195
861.918	21275
862.05	21382
862.183	21313
862.315	21393
862.447	21340
862.58	21226
862.712	21218
862.844	21039
862.976	21226
863.108	21218
863.24	21595
863.372	21005
863.504	21116
863.636	21070
863.768	21066
863.9	21032
864.032	21096
864.164	21093
864.296	21184
864.428	21157
864.559	21157
864.691	21138
864.823	21165
864.954	21241
865.086	21051
865.217	21013
865.349	20838
865.48	21001
865.612	21032
865.743	21154
865.875	21001
866.006	21013
866.137	20998
866.269	20941
866.4	20883
866.531	20933
866.662	20773
866.793	20910
866.924	20891
867.055	20937
867.186	20849
867.317	21055
867.448	20811
867.579	20925
867.71	20807
867.841	20800
867.972	20876
868.103	20914
868.233	21024
868.364	20941
868.495	21032
868.625	21123
868.756	21268
868.886	21062
869.017	21154
869.147	21226
869.278	21310
869.408	21226
869.539	21100
869.669	21180
869.799	21275
869.929	21195
870.06	21359
870.19	21618
870.32	21329
870.45	21428
870.58	21477
870.71	21622
870.84	21759
870.97	21591
871.1	21580
871.23	21759
871.36	21728
871.489	21686
871.619	21595
871.749	21766
871.879	21838
872.008	21857
872.138	21869
872.267	21728
872.397	21633
872.526	21614
872.656	21595
872.785	21466
872.915	21778
873.044	21656
873.173	21804
873.303	21884
873.432	21755
873.561	21774
873.69	21759
873.819	21793
873.948	21861
874.077	21778
874.206	21736
874.335	21838
874.464	21800
874.593	22059
874.722	21911
874.851	22093
874.979	21979
875.108	22109
875.237	21983
875.365	21953
875.494	21994
875.623	22013
875.751	21876
875.88	22078
876.008	22116
876.136	22116
876.265	22386
876.393	22375
876.521	22363
876.65	22462
876.778	22436
876.906	22337
877.034	22386
877.162	22261
877.29	22207
877.418	22386
877.546	22432
877.674	22371
877.802	22295
877.93	22253
878.058	22299
878.185	22169
878.313	22272
878.441	22386
878.568	22207
878.696	22238
878.824	22318
878.951	22367
879.079	22523
879.206	22649
879.333	22497
879.461	22341
879.588	22478
879.715	22660
879.842	22596
879.97	22314
880.097	22219
880.224	22238
880.351	22067
880.478	22204
880.605	22021
880.732	22204
880.859	22485
880.986	22181
881.112	22226
881.239	22128
881.366	21819
881.493	21846
881.619	21816
881.746	21759
881.872	21800
881.999	21614
882.125	21633
882.252	21717
882.378	21675
882.505	21770
882.631	21595
882.757	21435
882.883	21443
883.01	21435
883.136	21454
883.262	21378
883.388	21340
883.514	21431
883.64	21511
883.766	21351
883.892	21188
884.018	21176
884.143	21359
884.269	21469
884.395	21268
884.52	21100
884.646	21157
884.772	21108
884.897	20941
885.023	21214
885.148	21112
885.274	21157
885.399	21233
885.524	21074
885.65	21100
885.775	21199
885.9	21135
886.025	21176
886.15	21146
886.275	21039
886.4	20963
886.525	21112
886.65	21039
886.775	21096
886.9	21218
887.025	21283
887.149	21066
887.274	20849
887.399	20815
887.523	20899
887.648	20861
887.773	20701
887.897	20899
888.021	20796
888.146	20781
888.27	20918
888.395	20956
888.519	20861
888.643	20891
888.767	20815
888.891	20891
889.015	20552
889.139	20724
889.263	20568
889.387	20689
889.511	20956
889.635	20781
889.759	20579
889.883	20495
890.006	20629
890.13	20762
890.254	20530
890.377	20659
890.501	20450
890.624	20332
890.748	20370
890.871	20427
890.995	20419
891.118	20282
891.241	20275
891.364	20244
891.488	20320
891.611	20138
891.734	20153
891.857	20298
891.98	20252
892.103	20267
892.226	20111
892.349	20229
892.471	20054
892.594	20172
892.717	20233
892.839	20142
892.962	20119
893.085	20267
893.207	20187
893.33	20111
893.452	19989
893.575	20145
893.697	20039
893.819	20263
893.941	20252
894.064	20168
894.186	20062
894.308	20043
894.43	20221
894.552	20298
894.674	20206
894.796	20008
894.918	20103
895.04	20046
895.161	20191
895.283	20214
895.405	20077
895.526	20107
895.648	20065
895.769	20092
895.891	20111
896.012	20225
896.134	20157
896.255	20115
896.376	20202
896.498	20016
896.619	20199
896.74	20183
896.861	20202
896.982	20389
897.103	20625
897.224	20427
897.345	20221
897.466	20450
897.587	20286
897.708	20415
897.828	20385
897.949	20164
898.07	20130
898.19	20328
898.311	20412
898.431	20351
898.552	20320
898.672	20351
898.792	20431
898.913	20434
899.033	20290
899.153	20259
899.273	19936
899.393	20084
899.513	20035
899.633	20115
899.753	20024
899.873	20077
899.993	20077
900.113	19982
900.232	20016
900.352	19959
900.472	20050
900.591	19814
900.711	19909
900.83	19822
900.95	19951
901.069	20024
901.189	19719
901.308	19575
901.427	19495
901.546	19563
901.665	19552
901.784	19407
901.904	19308
902.023	19148
902.141	19088
902.26	19099
902.379	19057
902.498	19072
902.617	18878
902.735	18932
902.854	18928
902.973	18840
903.091	18631
903.21	18623
903.328	18661
903.446	18597
903.565	18544
903.683	18422
903.801	18292
903.919	18437
904.038	18338
904.156	18292
904.274	18292
904.392	18201
904.51	18117
904.627	18186
904.745	18258
904.863	18266
904.981	18003
905.098	17809
905.216	17870
905.334	17965
905.451	17851
905.569	17828
905.686	17935
905.803	17999
905.921	17627
906.038	17748
906.155	17653
906.272	17627
906.389	17532
906.506	17471
906.623	17497
906.74	17436
906.857	17345
906.974	17379
907.091	17493
907.208	17554
907.324	17387
907.441	17288
907.557	17250
907.674	17147
907.79	17083
907.907	17060
908.023	17223
908.139	17067
908.256	17128
908.372	17025
908.488	17037
908.604	16904
908.72	16839
908.836	16911
908.952	16869
909.068	16934
909.184	16927
909.3	16965
909.415	16946
909.531	16790
909.647	16660
909.762	16554
909.878	16512
909.993	16550
910.108	16504
910.224	16508
910.339	16504
910.454	16344
910.57	16325
910.685	16230
910.8	16519
910.915	16474
911.03	16348
911.145	16173
911.259	16128
911.374	16139
911.489	16078
911.604	16032
911.718	15892
911.833	15895
911.947	15724
912.062	15755
912.176	15850
912.291	15838
912.405	15816
912.519	16044
912.633	16150
912.748	16063
912.862	15865
912.976	15736
913.09	15557
913.204	15587
913.318	15705
913.431	15846
913.545	15797
913.659	15838
913.772	15580
913.886	15542
914	15504
914.113	15606
914.226	15576
914.34	15530
914.453	15386
914.566	15553
914.68	15416
914.793	15359
914.906	15230
915.019	15192
915.132	15131
915.245	15062
915.358	15074
915.47	15085
915.583	15055
915.696	15047
915.809	15135
915.921	15161
916.034	15085
916.146	14967
916.259	14994
916.371	15131
916.483	14990
916.595	14998
916.708	14933
916.82	14971
916.932	14937
917.044	14815
917.156	14769
917.268	14845
917.38	14701
917.491	14720
917.603	14796
917.715	14883
917.826	14823
917.938	14697
918.049	14617
918.161	14663
918.272	14830
918.384	14895
918.495	14644
918.606	14495
918.717	14473
918.828	14495
918.939	14526
919.05	14434
919.161	14556
919.272	14320
919.383	14442
919.494	14594
919.604	14674
919.715	14454
919.826	14377
919.936	14454
920.047	14594
920.157	14400
920.267	14610
920.378	14419
920.488	14408
920.598	14674
920.708	14804
920.818	14549
920.928	14514
921.038	14838
921.148	14731
921.258	14362
921.368	14332
921.477	14180
921.587	14145
921.697	14081
921.806	14221
921.916	14058
922.025	13837
922.134	13890
922.244	13757
922.353	13936
922.462	13696
922.571	13708
922.68	13529
922.789	13506
922.898	13552
923.007	13430
923.116	13578
923.224	13521
923.333	13464
923.442	13377
923.55	13297
923.659	13403
923.767	13495
923.876	13343
923.984	13346
924.092	13171
924.201	13194
924.309	13255
924.417	13225
924.525	13099
924.633	13179
924.741	13818
924.849	12981
924.956	13129
925.064	12920
925.172	12837
925.279	12909
925.387	12890
925.494	12935
925.602	13084
925.709	12943
925.816	12798
925.924	12962
926.031	12920
926.138	12810
926.245	12886
926.352	12772
926.459	12852
926.566	12867
926.673	12852
926.779	12711
926.886	12696
926.993	12467
927.099	12475
927.206	12456
927.312	12471
927.419	12467
927.525	12448
927.631	12566
927.737	12315
927.843	12311
927.95	12262
928.056	12243
928.162	12300
928.267	12281
928.373	13023
928.479	12410
928.585	12087
928.69	12315
928.796	12201
928.901	12167
929.007	11980
929.112	12155
929.218	12098
929.323	12087
929.428	12095
929.533	12194
929.638	12011
929.743	11920
929.848	12114
929.953	11969
930.058	11954
930.163	11767
930.267	11691
930.372	11931
930.477	11646
930.581	11904
930.685	11779
930.79	11562
930.894	11661
930.998	11646
931.103	11741
931.207	11356
931.311	11311
931.415	11193
931.519	10934
931.623	10923
