Data from test_V78500241_429.txt Node
Date: Fri Mar 25 15:12:50 CST 2022
User: usil
Spectrometer: V785-0024
Trigger mode: 0
Integration Time (sec): 4.000000E-1
Scans to average: 1
Nonlinearity correction enabled: false
Boxcar width: 0
Storing dark spectrum: false
XAxis mode: Wavelengths
Number of Pixels in Spectrum: 1024
>>>>>Begin Spectral Data<<<<<
801.071	27066
801.214	27199
801.356	26895
801.499	26804
801.641	26727
801.783	26743
801.926	26838
802.068	26640
802.211	26575
802.353	26568
802.496	26522
802.638	26537
802.78	26431
802.923	26134
803.065	26176
803.208	26278
803.35	26404
803.492	26450
803.635	26564
803.777	26442
803.919	26590
804.061	26834
804.204	26606
804.346	26355
804.488	26336
804.63	26514
804.773	26358
804.915	26571
805.057	26556
805.199	26514
805.341	26648
805.483	26606
805.626	26541
805.768	26453
805.91	26552
806.052	26716
806.194	26488
806.336	26716
806.478	26549
806.62	26644
806.762	26663
806.904	27001
807.046	27077
807.188	26994
807.33	27020
807.472	26982
807.614	27085
807.756	26883
807.898	26727
808.04	26686
808.182	26868
808.324	26834
808.465	26769
808.607	26902
808.749	27077
808.891	27127
809.033	27344
809.174	27119
809.316	27230
809.458	27161
809.6	27135
809.741	27260
809.883	27214
810.025	27306
810.166	27420
810.308	27427
810.45	27523
810.591	27466
810.733	27401
810.875	27222
811.016	27058
811.158	27131
811.299	27412
811.441	27336
811.582	27241
811.724	27150
811.865	27085
812.007	27165
812.148	27192
812.29	27150
812.431	27313
812.573	27443
812.714	27618
812.855	27739
812.997	27766
813.138	27941
813.279	27892
813.421	27774
813.562	27701
813.703	27492
813.845	27393
813.986	27264
814.127	26963
814.268	26891
814.41	26750
814.551	26697
814.692	26937
814.833	26834
814.974	26834
815.115	26853
815.256	26796
815.397	26693
815.539	26629
815.68	26796
815.821	26613
815.962	26674
816.103	26636
816.244	26537
816.385	26476
816.526	26385
816.666	26301
816.807	26126
816.948	26370
817.089	26229
817.23	26164
817.371	26046
817.512	26134
817.653	26161
817.793	26111
817.934	26225
818.075	26119
818.216	26073
818.356	26134
818.497	26100
818.638	25864
818.778	25856
818.919	25864
819.06	25932
819.2	26062
819.341	26111
819.481	26111
819.622	26294
819.762	26530
819.903	26313
820.043	26465
820.184	26275
820.324	26180
820.465	26313
820.605	26313
820.746	26199
820.886	26081
821.026	26180
821.167	26027
821.307	26294
821.447	26073
821.588	26092
821.728	25902
821.868	25791
822.008	25632
822.149	25571
822.289	25639
822.429	25362
822.569	25320
822.709	25236
822.849	25126
822.99	25126
823.13	25038
823.27	25012
823.41	24890
823.55	24768
823.69	24973
823.83	24787
823.97	25019
824.11	24688
824.25	24582
824.389	24787
824.529	24916
824.669	24856
824.809	24913
824.949	24779
825.089	24741
825.228	24760
825.368	24555
825.508	24551
825.648	24536
825.787	24715
825.927	24741
826.067	24540
826.206	24551
826.346	24570
826.485	24627
826.625	24498
826.765	24711
826.904	24559
827.044	24448
827.183	24350
827.323	24350
827.462	24304
827.601	24281
827.741	24232
827.88	24300
828.02	24152
828.159	24311
828.298	24350
828.437	24251
828.577	24300
828.716	24342
828.855	24174
828.994	24026
829.134	24053
829.273	24060
829.412	24114
829.551	23901
829.69	23980
829.829	24015
829.968	24068
830.107	24114
830.246	23942
830.385	23999
830.524	23843
830.663	23836
830.802	23786
830.941	23611
831.08	23695
831.219	23824
831.357	23634
831.496	23836
831.635	23452
831.774	23543
831.913	23490
832.051	23501
832.19	23402
832.329	23356
832.467	23474
832.606	23406
832.744	23178
832.883	23200
833.022	23490
833.16	23280
833.299	23455
833.437	23360
833.576	23383
833.714	23501
833.852	23520
833.991	23501
834.129	23417
834.267	23440
834.406	23474
834.544	23311
834.682	23501
834.821	23440
834.959	23566
835.097	23425
835.235	23402
835.373	23421
835.511	23387
835.65	23322
835.788	23261
835.926	23204
836.064	23136
836.202	22995
836.34	23254
836.478	23356
836.615	23288
836.753	23288
836.891	23151
837.029	23277
837.167	23147
837.305	23098
837.443	23140
837.58	23060
837.718	23193
837.856	23109
837.993	23048
838.131	23121
838.269	22896
838.406	22877
838.544	22976
838.681	22801
838.819	22748
838.956	22637
839.094	22527
839.231	22630
839.369	22702
839.506	22927
839.643	22847
839.781	22691
839.918	22478
840.055	22565
840.193	22481
840.33	22481
840.467	22538
840.604	22542
840.742	22717
840.879	22314
841.016	22421
841.153	22443
841.29	22573
841.427	22489
841.564	22641
841.701	22432
841.838	22424
841.975	22314
842.112	22394
842.249	22261
842.385	22226
842.522	22421
842.659	22329
842.796	22284
842.933	22265
843.069	22200
843.206	22253
843.343	22261
843.479	22295
843.616	22196
843.752	22169
843.889	21998
844.025	22169
844.162	22181
844.298	22200
844.435	22112
844.571	22010
844.708	22082
844.844	22154
844.98	22242
845.117	22143
845.253	21975
845.389	21903
845.525	21918
845.661	21911
845.798	21793
845.934	21850
846.07	21759
846.206	21755
846.342	21789
846.478	21804
846.614	21504
846.75	21496
846.886	21561
847.022	21667
847.158	21553
847.294	21526
847.429	21583
847.565	21496
847.701	21698
847.837	21233
847.972	21382
848.108	21302
848.244	21310
848.379	21214
848.515	21214
848.65	21146
848.786	21165
848.921	21157
849.057	21268
849.192	21256
849.328	21096
849.463	21108
849.598	21055
849.734	20944
849.869	20979
850.004	20906
850.14	20765
850.275	20834
850.41	20853
850.545	20849
850.68	20868
850.815	20937
850.95	20971
851.085	20963
851.22	20853
851.355	20944
851.49	20864
851.625	20899
851.76	20861
851.895	20823
852.03	20689
852.165	20773
852.299	20842
852.434	20967
852.569	21001
852.703	20956
852.838	20902
852.973	21005
853.107	21062
853.242	20800
853.376	20731
853.511	20663
853.645	20731
853.78	20796
853.914	20678
854.048	20712
854.183	20727
854.317	20788
854.451	20834
854.585	20750
854.72	20659
854.854	20819
854.988	20549
855.122	20621
855.256	20571
855.39	20693
855.524	20750
855.658	20693
855.792	20655
855.926	20682
856.06	20781
856.194	20590
856.327	20670
856.461	20724
856.595	20754
856.729	20716
856.862	20811
856.996	20743
857.13	20750
857.263	20731
857.397	20819
857.53	20693
857.664	20724
857.797	20800
857.931	20845
858.064	20754
858.197	20765
858.331	20670
858.464	20674
858.597	20594
858.731	20621
858.864	20716
858.997	20823
859.13	20625
859.263	20621
859.396	20830
859.529	20739
859.662	20720
859.795	20587
859.928	20663
860.061	20918
860.194	20899
860.327	20625
860.46	20648
860.592	20796
860.725	20804
860.858	20819
860.99	20804
861.123	20518
861.256	20712
861.388	20716
861.521	21382
861.653	20602
861.786	20552
861.918	20568
862.05	20575
862.183	20484
862.315	20621
862.447	20655
862.58	20640
862.712	20446
862.844	20396
862.976	20499
863.108	20434
863.24	20861
863.372	20389
863.504	20370
863.636	20434
863.768	20374
863.9	20396
864.032	20320
864.164	20267
864.296	20381
864.428	20514
864.559	20583
864.691	20400
864.823	20488
864.954	20431
865.086	20271
865.217	20294
865.349	20202
865.48	20278
865.612	20199
865.743	20511
865.875	20320
866.006	20237
866.137	20301
866.269	20461
866.4	20339
866.531	20351
866.662	20206
866.793	20218
866.924	20275
867.055	20309
867.186	20221
867.317	20298
867.448	20248
867.579	20256
867.71	20221
867.841	20259
867.972	20313
868.103	20263
868.233	20111
868.364	20298
868.495	20362
868.625	20533
868.756	20598
868.886	20473
869.017	20423
869.147	20701
869.278	20682
869.408	20541
869.539	20366
869.669	20461
869.799	20522
869.929	20648
870.06	20655
870.19	20777
870.32	20785
870.45	20891
870.58	20963
870.71	21005
870.84	20899
870.97	21005
871.1	20963
871.23	21085
871.36	21051
871.489	21013
871.619	20994
871.749	21066
871.879	21157
872.008	21218
872.138	21100
872.267	21116
872.397	20925
872.526	20967
872.656	20933
872.785	20887
872.915	21108
873.044	21165
873.173	21192
873.303	21112
873.432	21093
873.561	21203
873.69	21169
873.819	21237
873.948	21241
874.077	21062
874.206	21051
874.335	21176
874.464	21268
874.593	21256
874.722	21332
874.851	21412
874.979	21329
875.108	21355
875.237	21211
875.365	21214
875.494	21188
875.623	21389
875.751	21428
875.88	21401
876.008	21443
876.136	21485
876.265	21667
876.393	21774
876.521	21774
876.65	21945
876.778	21759
876.906	21656
877.034	21652
877.162	21663
877.29	21633
877.418	21720
877.546	21701
877.674	21728
877.802	21797
877.93	21690
878.058	21724
878.185	21747
878.313	21770
878.441	21728
878.568	21538
878.696	21515
878.824	21690
878.951	21800
879.079	21930
879.206	22055
879.333	21800
879.461	21686
879.588	21766
879.715	21850
879.842	22181
879.97	21751
880.097	21603
880.224	21561
880.351	21587
880.478	21530
880.605	21439
880.732	21473
880.859	21717
880.986	21431
881.112	21450
881.239	21321
881.366	21199
881.493	21169
881.619	21150
881.746	21188
881.872	21089
881.999	21077
882.125	21058
882.252	21135
882.378	21127
882.505	21207
882.631	20960
882.757	20899
882.883	20826
883.01	20823
883.136	20857
883.262	20838
883.388	20625
883.514	20895
883.64	20804
883.766	20765
883.892	20575
884.018	20590
884.143	20762
884.269	20807
884.395	20556
884.52	20385
884.646	20530
884.772	20507
884.897	20347
885.023	20473
885.148	20606
885.274	20549
885.399	20602
885.524	20434
885.65	20495
885.775	20492
885.9	20484
886.025	20549
886.15	20617
886.275	20396
886.4	20275
886.525	20511
886.65	20385
886.775	20347
886.9	20492
887.025	20556
887.149	20370
887.274	20309
887.399	20214
887.523	20320
887.648	20240
887.773	20168
887.897	20351
888.021	20275
888.146	20206
888.27	20400
888.395	20389
888.519	20290
888.643	20225
888.767	20298
888.891	20142
889.015	19993
889.139	20081
889.263	20088
889.387	20168
889.511	20218
889.635	20149
889.759	20027
889.883	20069
890.006	20130
890.13	20081
890.254	19894
890.377	19913
890.501	19902
890.624	19906
890.748	19757
890.871	19753
890.995	19693
891.118	19582
891.241	19571
891.364	19628
891.488	19788
891.611	19601
891.734	19635
891.857	19696
891.98	19689
892.103	19772
892.226	19590
892.349	19533
892.471	19369
892.594	19540
892.717	19647
892.839	19518
892.962	19556
893.085	19628
893.207	19605
893.33	19411
893.452	19434
893.575	19544
893.697	19529
893.819	19719
893.941	19864
894.064	19689
894.186	19521
894.308	19350
894.43	19727
894.552	19468
894.674	19681
894.796	19537
894.918	19586
895.04	19464
895.161	19761
895.283	19495
895.405	19335
895.526	19548
895.648	19556
895.769	19613
895.891	19480
896.012	19689
896.134	19521
896.255	19556
896.376	19578
896.498	19624
896.619	19597
896.74	19521
896.861	19681
896.982	19833
897.103	19955
897.224	19917
897.345	19890
897.466	19723
897.587	19837
897.708	19875
897.828	19890
897.949	19681
898.07	19700
898.19	19708
898.311	19967
898.431	19635
898.552	19784
898.672	19856
898.792	19757
898.913	19818
899.033	19556
899.153	19548
899.273	19457
899.393	19502
899.513	19548
899.633	19594
899.753	19582
899.873	19460
899.993	19609
900.113	19578
900.232	19575
900.352	19396
900.472	19411
900.591	19320
900.711	19377
900.83	19327
900.95	19499
901.069	19438
901.189	19152
901.308	18947
901.427	18924
901.546	18954
901.665	18951
901.784	19008
901.904	18867
902.023	18681
902.141	18460
902.26	18388
902.379	18547
902.498	18441
902.617	18350
902.735	18422
902.854	18380
902.973	18471
903.091	18060
903.21	18133
903.328	18110
903.446	18041
903.565	17916
903.683	17878
903.801	17722
903.919	17802
904.038	17836
904.156	17684
904.274	17771
904.392	17779
904.51	17619
904.627	17630
904.745	17634
904.863	17630
904.981	17581
905.098	17349
905.216	17349
905.334	17334
905.451	17391
905.569	17326
905.686	17490
905.803	17372
905.921	17231
906.038	17330
906.155	17193
906.272	17083
906.389	17041
906.506	16904
906.623	16858
906.74	16987
906.857	16717
906.974	16759
907.091	17033
907.208	17056
907.324	16930
907.441	16748
907.557	16721
907.674	16698
907.79	16561
907.907	16592
908.023	16668
908.139	16672
908.256	16573
908.372	16485
908.488	16535
908.604	16405
908.72	16310
908.836	16379
908.952	16299
909.068	16325
909.184	16428
909.3	16314
909.415	16386
909.531	16287
909.647	16173
909.762	16044
909.878	16032
909.993	16074
910.108	16006
910.224	16074
910.339	16055
910.454	15991
910.57	15968
910.685	15854
910.8	16036
910.915	16021
911.03	15785
911.145	15823
911.259	15713
911.374	15618
911.489	15591
911.604	15515
911.718	15454
911.833	15507
911.947	15325
912.062	15116
912.176	15469
912.291	15420
912.405	15511
912.519	15603
912.633	15526
912.748	15408
912.862	15458
912.976	15279
913.09	15180
913.204	15180
913.318	15176
913.431	15325
913.545	15370
913.659	15310
913.772	15169
913.886	15100
914	14967
914.113	15180
914.226	15138
914.34	15089
914.453	14948
914.566	15043
914.68	14925
914.793	14857
914.906	14788
915.019	14659
915.132	14727
915.245	14560
915.358	14602
915.47	14689
915.583	14640
915.696	14636
915.809	14758
915.921	14743
916.034	14674
916.146	14590
916.259	14613
916.371	14693
916.483	14678
916.595	14484
916.708	14549
916.82	14583
916.932	14415
917.044	14381
917.156	14324
917.268	14298
917.38	14313
917.491	14282
917.603	14370
917.715	14389
917.826	14499
917.938	14248
918.049	14180
918.161	14259
918.272	14438
918.384	14358
918.495	14355
918.606	14210
918.717	14077
918.828	14221
918.939	14130
919.05	14050
919.161	14119
919.272	13921
919.383	14008
919.494	14100
919.604	14370
919.715	14119
919.826	14058
919.936	14119
920.047	14107
920.157	14149
920.267	14210
920.378	14050
920.488	14039
920.598	14229
920.708	14355
920.818	14199
920.928	14195
921.038	14419
921.148	14381
921.258	14092
921.368	14039
921.477	13894
921.587	13799
921.697	13731
921.806	13780
921.916	13655
922.025	13540
922.134	13453
922.244	13407
922.353	13491
922.462	13365
922.571	13289
922.68	13209
922.789	13175
922.898	13217
923.007	12935
923.116	13110
923.224	13103
923.333	13114
923.442	12947
923.55	12905
923.659	12962
923.767	12943
923.876	12863
923.984	12951
924.092	12878
924.201	12833
924.309	12897
924.417	12939
924.525	12871
924.633	12837
924.741	13636
924.849	12608
924.956	12684
925.064	12551
925.172	12532
925.279	12601
925.387	12616
925.494	12642
925.602	12662
925.709	12631
925.816	12448
925.924	12502
926.031	12601
926.138	12555
926.245	12513
926.352	12380
926.459	12566
926.566	12593
926.673	12445
926.779	12414
926.886	12228
926.993	12213
927.099	12140
927.206	12194
927.312	12106
927.419	12159
927.525	12144
927.631	12228
927.737	12041
927.843	12045
927.95	11817
928.056	12041
928.162	11973
928.267	11958
928.373	12528
928.479	12003
928.585	11824
928.69	11942
928.796	11958
928.901	11843
929.007	11699
929.112	11805
929.218	11783
929.323	11748
929.428	11676
929.533	11882
929.638	11570
929.743	11581
929.848	11726
929.953	11657
930.058	11570
930.163	11410
930.267	11410
930.372	11482
930.477	11364
930.581	11608
930.685	11391
930.79	11322
930.894	11288
930.998	11299
931.103	11463
931.207	11022
931.311	10976
931.415	10885
931.519	10664
931.623	10706
