Data from test_V78500241_1551.txt Node
Date: Fri Mar 25 15:20:39 CST 2022
User: usil
Spectrometer: V785-0024
Trigger mode: 0
Integration Time (sec): 4.000000E-1
Scans to average: 1
Nonlinearity correction enabled: false
Boxcar width: 0
Storing dark spectrum: false
XAxis mode: Wavelengths
Number of Pixels in Spectrum: 1024
>>>>>Begin Spectral Data<<<<<
801.071	27899
801.214	27789
801.356	27728
801.499	27637
801.641	27466
801.783	27405
801.926	27542
802.068	27542
802.211	27420
802.353	27249
802.496	27070
802.638	27165
802.78	27249
802.923	27077
803.065	27047
803.208	27108
803.35	27074
803.492	27279
803.635	27340
803.777	27245
803.919	27260
804.061	27728
804.204	27427
804.346	27348
804.488	27195
804.63	27287
804.773	27302
804.915	27264
805.057	27477
805.199	27294
805.341	27332
805.483	27397
805.626	27572
805.768	27294
805.91	27538
806.052	27603
806.194	27481
806.336	27709
806.478	27500
806.62	27485
806.762	27443
806.904	27812
807.046	27899
807.188	27827
807.33	28002
807.472	27972
807.614	27873
807.756	27846
807.898	27736
808.04	27549
808.182	27751
808.324	27698
808.465	27812
808.607	28101
808.749	28112
808.891	28242
809.033	28207
809.174	28196
809.316	28112
809.458	28101
809.6	28150
809.741	28287
809.883	28310
810.025	28287
810.166	28344
810.308	28356
810.45	28287
810.591	28177
810.733	28185
810.875	28188
811.016	27975
811.158	27949
811.299	28177
811.441	28295
811.582	28363
811.724	28097
811.865	28211
812.007	28196
812.148	28029
812.29	28105
812.431	28401
812.573	28341
812.714	28561
812.855	28599
812.997	28736
813.138	28968
813.279	28793
813.421	28656
813.562	28596
813.703	28516
813.845	28344
813.986	28059
814.127	27926
814.268	27911
814.41	27914
814.551	27823
814.692	27880
814.833	27660
814.974	27701
815.115	27755
815.256	27679
815.397	27766
815.539	27656
815.68	27694
815.821	27542
815.962	27553
816.103	27633
816.244	27473
816.385	27355
816.526	27393
816.666	27241
816.807	27066
816.948	27298
817.089	27188
817.23	27230
817.371	27043
817.512	26986
817.653	27146
817.793	27085
817.934	27070
818.075	27203
818.216	27302
818.356	27203
818.497	27051
818.638	26906
818.778	26842
818.919	26864
819.06	26902
819.2	27070
819.341	27100
819.481	27138
819.622	27157
819.762	27504
819.903	27340
820.043	27245
820.184	27237
820.324	27310
820.465	27241
820.605	27279
820.746	27241
820.886	27104
821.026	27138
821.167	27138
821.307	27146
821.447	27112
821.588	26971
821.728	27013
821.868	26785
822.008	26587
822.149	26693
822.289	26552
822.429	26290
822.569	26229
822.709	26275
822.849	26088
822.99	26164
823.13	26149
823.27	26031
823.41	25959
823.55	25997
823.69	25970
823.83	25879
823.97	25841
824.11	25727
824.25	25643
824.389	25590
824.529	25719
824.669	25791
824.809	25856
824.949	25788
825.089	25932
825.228	25868
825.368	25540
825.508	25670
825.648	25613
825.787	25594
825.927	25693
826.067	25639
826.206	25616
826.346	25632
826.485	25651
826.625	25616
826.765	25784
826.904	25693
827.044	25472
827.183	25388
827.323	25343
827.462	25384
827.601	25411
827.741	25339
827.88	25293
828.02	25221
828.159	25403
828.298	25365
828.437	25350
828.577	25320
828.716	25365
828.855	25301
828.994	25145
829.134	25103
829.273	25023
829.412	24966
829.551	25069
829.69	25008
829.829	25103
829.968	25034
830.107	25027
830.246	24981
830.385	24943
830.524	24909
830.663	24810
830.802	24757
830.941	24768
831.08	24684
831.219	24814
831.357	24677
831.496	24840
831.635	24711
831.774	24578
831.913	24597
832.051	24456
832.19	24433
832.329	24483
832.467	24502
832.606	24216
832.744	24300
832.883	24315
833.022	24224
833.16	24372
833.299	24273
833.437	24407
833.576	24452
833.714	24334
833.852	24418
833.991	24490
834.129	24452
834.267	24490
834.406	24407
834.544	24403
834.682	24350
834.821	24357
834.959	24563
835.097	24437
835.235	24346
835.373	24235
835.511	24391
835.65	24186
835.788	24144
835.926	24072
836.064	24057
836.202	24064
836.34	24243
836.478	24300
836.615	24152
836.753	24201
836.891	24254
837.029	24163
837.167	23969
837.305	24110
837.443	24106
837.58	23984
837.718	24072
837.856	24034
837.993	24034
838.131	24038
838.269	24030
838.406	24026
838.544	23893
838.681	23718
838.819	23634
838.956	23589
839.094	23474
839.231	23592
839.369	23630
839.506	23767
839.643	23661
839.781	23547
839.918	23497
840.055	23429
840.193	23512
840.33	23402
840.467	23501
840.604	23482
840.742	23672
840.879	23273
841.016	23292
841.153	23311
841.29	23440
841.427	23376
841.564	23337
841.701	23459
841.838	23193
841.975	23402
842.112	23356
842.249	23159
842.385	23117
842.522	23326
842.659	23231
842.796	23159
842.933	23132
843.069	23083
843.206	23140
843.343	23303
843.479	23181
843.616	23052
843.752	22911
843.889	22889
844.025	23227
844.162	22953
844.298	22953
844.435	22949
844.571	22984
844.708	22908
844.844	23037
844.98	22923
845.117	23048
845.253	22854
845.389	22797
845.525	22831
845.661	22778
845.798	22596
845.934	22679
846.07	22721
846.206	22771
846.342	22713
846.478	22679
846.614	22390
846.75	22310
846.886	22443
847.022	22459
847.158	22421
847.294	22356
847.429	22485
847.565	22443
847.701	22573
847.837	22032
847.972	22249
848.108	22147
848.244	22109
848.379	21968
848.515	21998
848.65	21956
848.786	21857
848.921	21991
849.057	22086
849.192	22101
849.328	22002
849.463	22097
849.598	21991
849.734	21819
849.869	21850
850.004	21709
850.14	21876
850.275	21743
850.41	21778
850.545	21580
850.68	21717
850.815	21861
850.95	21751
851.085	21930
851.22	21762
851.355	21701
851.49	21751
851.625	21686
851.76	21679
851.895	21701
852.03	21671
852.165	21709
852.299	21838
852.434	21812
852.569	21797
852.703	21854
852.838	21895
852.973	21953
853.107	21960
853.242	21682
853.376	21705
853.511	21397
853.645	21564
853.78	21701
853.914	21523
854.048	21549
854.183	21675
854.317	21667
854.451	21724
854.585	21656
854.72	21500
854.854	21519
854.988	21564
855.122	21568
855.256	21367
855.39	21580
855.524	21595
855.658	21534
855.792	21622
855.926	21686
856.06	21580
856.194	21606
856.327	21606
856.461	21629
856.595	21553
856.729	21610
856.862	21751
856.996	21553
857.13	21610
857.263	21625
857.397	21610
857.53	21561
857.664	21595
857.797	21553
857.931	21599
858.064	21530
858.197	21610
858.331	21439
858.464	21538
858.597	21454
858.731	21530
858.864	21572
858.997	21386
859.13	21538
859.263	21610
859.396	21614
859.529	21485
859.662	21561
859.795	21477
859.928	21625
860.061	21785
860.194	21774
860.327	21641
860.46	21538
860.592	21686
860.725	21587
860.858	21648
860.99	21500
861.123	21481
861.256	21530
861.388	21675
861.521	22272
861.653	21519
861.786	21317
861.918	21363
862.05	21488
862.183	21428
862.315	21515
862.447	21481
862.58	21443
862.712	21287
862.844	21233
862.976	21393
863.108	21359
863.24	21797
863.372	21287
863.504	21203
863.636	21279
863.768	21279
863.9	21294
864.032	21313
864.164	21294
864.296	21294
864.428	21249
864.559	21329
864.691	21298
864.823	21222
864.954	21214
865.086	21218
865.217	21138
865.349	21192
865.48	21093
865.612	21256
865.743	21344
865.875	21058
866.006	21108
866.137	21062
866.269	21173
866.4	21325
866.531	21180
866.662	21028
866.793	20998
866.924	21009
867.055	21077
867.186	21066
867.317	20986
867.448	21062
867.579	21017
867.71	20952
867.841	20963
867.972	21043
868.103	21127
868.233	21089
868.364	21047
868.495	21195
868.625	21435
868.756	21336
868.886	21291
869.017	21245
869.147	21492
869.278	21553
869.408	21359
869.539	21370
869.669	21325
869.799	21351
869.929	21583
870.06	21496
870.19	21682
870.32	21686
870.45	21679
870.58	21808
870.71	21800
870.84	21819
870.97	21694
871.1	21690
871.23	21915
871.36	21835
871.489	21766
871.619	21892
871.749	21941
871.879	21975
872.008	21964
872.138	21903
872.267	21899
872.397	21865
872.526	21660
872.656	21819
872.785	21633
872.915	22120
873.044	21865
873.173	21907
873.303	22029
873.432	22025
873.561	22040
873.69	21956
873.819	22010
873.948	22036
874.077	21987
874.206	21934
874.335	21934
874.464	22044
874.593	22154
874.722	22246
874.851	22257
874.979	22158
875.108	22280
875.237	22101
875.365	22078
875.494	22097
875.623	22226
875.751	22154
875.88	22238
876.008	22280
876.136	22348
876.265	22527
876.393	22557
876.521	22721
876.65	22519
876.778	22561
876.906	22535
877.034	22561
877.162	22599
877.29	22402
877.418	22500
877.546	22428
877.674	22447
877.802	22557
877.93	22325
878.058	22512
878.185	22402
878.313	22367
878.441	22740
878.568	22379
878.696	22470
878.824	22569
878.951	22588
879.079	22675
879.206	22915
879.333	22675
879.461	22656
879.588	22565
879.715	22656
879.842	22831
879.97	22599
880.097	22295
880.224	22356
880.351	22390
880.478	22303
880.605	22363
880.732	22185
880.859	22561
880.986	22390
881.112	22375
881.239	22276
881.366	22040
881.493	21945
881.619	21941
881.746	21960
881.872	21884
881.999	21922
882.125	21865
882.252	21926
882.378	21930
882.505	21915
882.631	21869
882.757	21675
882.883	21625
883.01	21606
883.136	21538
883.262	21466
883.388	21329
883.514	21663
883.64	21568
883.766	21454
883.892	21382
884.018	21420
884.143	21549
884.269	21667
884.395	21207
884.52	21264
884.646	21252
884.772	21165
884.897	21161
885.023	21180
885.148	21340
885.274	21416
885.399	21382
885.524	21214
885.65	21260
885.775	21176
885.9	21222
886.025	21370
886.15	21321
886.275	21195
886.4	21131
886.525	21169
886.65	21116
886.775	21272
886.9	21370
887.025	21420
887.149	21237
887.274	21138
887.399	21096
887.523	20944
887.648	21009
887.773	20845
887.897	21138
888.021	21024
888.146	20902
888.27	20998
888.395	21036
888.519	21043
888.643	21047
888.767	21058
888.891	20963
889.015	20674
889.139	20979
889.263	20807
889.387	20777
889.511	20960
889.635	20914
889.759	20705
889.883	20750
890.006	20686
890.13	21005
890.254	20739
890.377	20739
890.501	20518
890.624	20400
890.748	20514
890.871	20499
890.995	20377
891.118	20317
891.241	20434
891.364	20328
891.488	20511
891.611	20332
891.734	20298
891.857	20442
891.98	20278
892.103	20484
892.226	20374
892.349	20328
892.471	20107
892.594	20305
892.717	20412
892.839	20214
892.962	20339
893.085	20313
893.207	20317
893.33	20073
893.452	20119
893.575	20282
893.697	20183
893.819	20412
893.941	20476
894.064	20336
894.186	20233
894.308	20248
894.43	20366
894.552	20434
894.674	20412
894.796	20244
894.918	20298
895.04	20229
895.161	20237
895.283	20339
895.405	20172
895.526	20366
895.648	20256
895.769	20237
895.891	20290
896.012	20362
896.134	20229
896.255	20221
896.376	20180
896.498	20309
896.619	20393
896.74	20168
896.861	20320
896.982	20575
897.103	20792
897.224	20590
897.345	20431
897.466	20393
897.587	20526
897.708	20526
897.828	20575
897.949	20370
898.07	20381
898.19	20434
898.311	20473
898.431	20484
898.552	20374
898.672	20552
898.792	20514
898.913	20518
899.033	20381
899.153	20267
899.273	20240
899.393	20157
899.513	20225
899.633	20176
899.753	20389
899.873	20180
899.993	20366
900.113	20161
900.232	20176
900.352	20126
900.472	20176
900.591	20065
900.711	19868
900.83	19967
900.95	20058
901.069	20081
901.189	19913
901.308	19788
901.427	19601
901.546	19518
901.665	19601
901.784	19590
901.904	19472
902.023	19373
902.141	19183
902.26	19095
902.379	19175
902.498	19168
902.617	19065
902.735	19114
902.854	19057
902.973	18981
903.091	18916
903.21	18852
903.328	18783
903.446	18635
903.565	18608
903.683	18642
903.801	18399
903.919	18403
904.038	18521
904.156	18403
904.274	18460
904.392	18330
904.51	18300
904.627	18308
904.745	18464
904.863	18308
904.981	18197
905.098	17977
905.216	17965
905.334	18110
905.451	17901
905.569	17920
905.686	18011
905.803	18026
905.921	17764
906.038	17889
906.155	17771
906.272	17786
906.389	17783
906.506	17379
906.623	17509
906.74	17577
906.857	17406
906.974	17440
907.091	17630
907.208	17646
907.324	17512
907.441	17417
907.557	17330
907.674	17322
907.79	17227
907.907	17231
908.023	17360
908.139	17239
908.256	17113
908.372	17159
908.488	17140
908.604	17048
908.72	16934
908.836	17010
908.952	16900
909.068	16972
909.184	17010
909.3	16839
909.415	16999
909.531	16881
909.647	16675
909.762	16656
909.878	16664
909.993	16637
910.108	16565
910.224	16565
910.339	16691
910.454	16527
910.57	16516
910.685	16360
910.8	16672
910.915	16497
911.03	16459
911.145	16322
911.259	16219
911.374	16257
911.489	16158
911.604	16135
911.718	15998
911.833	16051
911.947	15987
912.062	15854
912.176	15846
912.291	16025
912.405	15869
912.519	16253
912.633	16185
912.748	16006
912.862	15960
912.976	15903
913.09	15709
913.204	15816
913.318	15880
913.431	15953
913.545	15930
913.659	15941
913.772	15880
913.886	15595
914	15648
914.113	15595
914.226	15781
914.34	15720
914.453	15450
914.566	15629
914.68	15496
914.793	15530
914.906	15237
915.019	15302
915.132	15192
915.245	15169
915.358	15233
915.47	15203
915.583	15192
915.696	15146
915.809	15401
915.921	15355
916.034	15241
916.146	15154
916.259	15184
916.371	15184
916.483	15211
916.595	15165
916.708	14994
916.82	15055
916.932	15085
917.044	15009
917.156	14967
917.268	14883
917.38	14815
917.491	14773
917.603	14910
917.715	14990
917.826	14929
917.938	14842
918.049	14785
918.161	14811
918.272	14952
918.384	14902
918.495	14765
918.606	14640
918.717	14545
918.828	14655
918.939	14651
919.05	14522
919.161	14625
919.272	14438
919.383	14450
919.494	14636
919.604	14868
919.715	14587
919.826	14415
919.936	14625
920.047	14712
920.157	14613
920.267	14765
920.378	14575
920.488	14579
920.598	14682
920.708	14845
920.818	14739
920.928	14686
921.038	14925
921.148	14689
921.258	14511
921.368	14484
921.477	14389
921.587	14400
921.697	14176
921.806	14313
921.916	14096
922.025	13997
922.134	14020
922.244	13925
922.353	13940
922.462	13776
922.571	13750
922.68	13636
922.789	13552
922.898	13578
923.007	13499
923.116	13597
923.224	13552
923.333	13586
923.442	13415
923.55	13419
923.659	13434
923.767	13556
923.876	13312
923.984	13491
924.092	13324
924.201	13304
924.309	13381
924.417	13327
924.525	13221
924.633	13274
924.741	14111
924.849	13114
924.956	13255
925.064	13107
925.172	12951
925.279	12993
925.387	13023
925.494	13031
925.602	13103
925.709	12993
925.816	12856
925.924	12970
926.031	13042
926.138	12909
926.245	12981
926.352	12882
926.459	13061
926.566	12996
926.673	12852
926.779	12749
926.886	12711
926.993	12700
927.099	12620
927.206	12536
927.312	12521
927.419	12639
927.525	12566
927.631	12483
927.737	12441
927.843	12460
927.95	12277
928.056	12285
928.162	12388
928.267	12525
928.373	13080
928.479	12437
928.585	12258
928.69	12376
928.796	12395
928.901	12254
929.007	12117
929.112	12201
929.218	12254
929.323	12155
929.428	12133
929.533	12304
929.638	12053
929.743	12182
929.848	12022
929.953	12003
930.058	12095
930.163	11832
930.267	11798
930.372	11958
930.477	11707
930.581	11988
930.685	11908
930.79	11646
930.894	11688
930.998	11589
931.103	11874
931.207	11341
931.311	11379
931.415	11265
931.519	11025
931.623	11022
