Data from test_V78500241_1060.txt Node
Date: Fri Mar 25 15:17:14 CST 2022
User: usil
Spectrometer: V785-0024
Trigger mode: 0
Integration Time (sec): 4.000000E-1
Scans to average: 1
Nonlinearity correction enabled: false
Boxcar width: 0
Storing dark spectrum: false
XAxis mode: Wavelengths
Number of Pixels in Spectrum: 1024
>>>>>Begin Spectral Data<<<<<
801.071	28044
801.214	28173
801.356	27816
801.499	27679
801.641	27549
801.783	27633
801.926	27667
802.068	27705
802.211	27637
802.353	27625
802.496	27336
802.638	27393
802.78	27344
802.923	27359
803.065	27294
803.208	27321
803.35	27416
803.492	27382
803.635	27389
803.777	27462
803.919	27591
804.061	27747
804.204	27633
804.346	27458
804.488	27443
804.63	27447
804.773	27370
804.915	27523
805.057	27717
805.199	27454
805.341	27667
805.483	27701
805.626	27671
805.768	27462
805.91	27682
806.052	27701
806.194	27572
806.336	27770
806.478	27705
806.62	27671
806.762	27781
806.904	27911
807.046	28082
807.188	28109
807.33	27991
807.472	28200
807.614	27979
807.756	27907
807.898	27812
808.04	27812
808.182	27827
808.324	27949
808.465	27964
808.607	28074
808.749	28329
808.891	28398
809.033	28554
809.174	28314
809.316	28207
809.458	28246
809.6	28337
809.741	28329
809.883	28485
810.025	28626
810.166	28546
810.308	28580
810.45	28630
810.591	28493
810.733	28382
810.875	28272
811.016	28185
811.158	28124
811.299	28386
811.441	28341
811.582	28322
811.724	28234
811.865	28367
812.007	28344
812.148	28265
812.29	28242
812.431	28493
812.573	28561
812.714	28850
812.855	28915
812.997	28816
813.138	29121
813.279	28999
813.421	28904
813.562	28744
813.703	28603
813.845	28664
813.986	28249
814.127	28097
814.268	27983
814.41	27968
814.551	28006
814.692	28002
814.833	27926
814.974	28055
815.115	28067
815.256	27960
815.397	27827
815.539	28063
815.68	27857
815.821	27888
815.962	27766
816.103	27804
816.244	27800
816.385	27606
816.526	27606
816.666	27542
816.807	27329
816.948	27401
817.089	27568
817.23	27374
817.371	27287
817.512	27393
817.653	27363
817.793	27135
817.934	27302
818.075	27230
818.216	27359
818.356	27329
818.497	27180
818.638	27020
818.778	27081
818.919	27108
819.06	27100
819.2	27294
819.341	27287
819.481	27222
819.622	27515
819.762	27747
819.903	27781
820.043	27477
820.184	27504
820.324	27564
820.465	27526
820.605	27416
820.746	27492
820.886	27370
821.026	27386
821.167	27367
821.307	27340
821.447	27344
821.588	27195
821.728	27230
821.868	26914
822.008	26796
822.149	26800
822.289	26769
822.429	26484
822.569	26450
822.709	26393
822.849	26339
822.99	26374
823.13	26366
823.27	26214
823.41	26065
823.55	25970
823.69	26107
823.83	26088
823.97	25997
824.11	25909
824.25	25761
824.389	25966
824.529	26153
824.669	26012
824.809	26043
824.949	26027
825.089	25925
825.228	26168
825.368	25982
825.508	25974
825.648	25818
825.787	25932
825.927	25894
826.067	25906
826.206	25708
826.346	25811
826.485	25913
826.625	25807
826.765	26073
826.904	25818
827.044	25597
827.183	25727
827.323	25590
827.462	25674
827.601	25647
827.741	25514
827.88	25521
828.02	25525
828.159	25441
828.298	25651
828.437	25525
828.577	25571
828.716	25753
828.855	25396
828.994	25426
829.134	25244
829.273	25316
829.412	25228
829.551	25304
829.69	25137
829.829	25335
829.968	25392
830.107	25251
830.246	25247
830.385	25015
830.524	25244
830.663	25050
830.802	24954
830.941	24886
831.08	24992
831.219	25000
831.357	25072
831.496	25175
831.635	24924
831.774	24745
831.913	24848
832.051	24719
832.19	24768
832.329	24734
832.467	24639
832.606	24483
832.744	24555
832.883	24597
833.022	24483
833.16	24536
833.299	24597
833.437	24646
833.576	24703
833.714	24658
833.852	24688
833.991	24722
834.129	24776
834.267	24719
834.406	24681
834.544	24726
834.682	24642
834.821	24719
834.959	24878
835.097	24585
835.235	24654
835.373	24445
835.511	24574
835.65	24505
835.788	24494
835.926	24464
836.064	24251
836.202	24304
836.34	24528
836.478	24608
836.615	24597
836.753	24570
836.891	24536
837.029	24566
837.167	24479
837.305	24460
837.443	24437
837.58	24235
837.718	24407
837.856	24490
837.993	24388
838.131	24342
838.269	24167
838.406	24281
838.544	24083
838.681	24015
838.819	24026
838.956	23794
839.094	23824
839.231	23863
839.369	23870
839.506	24140
839.643	24102
839.781	23805
839.918	23870
840.055	23802
840.193	23726
840.33	23714
840.467	23745
840.604	23722
840.742	24015
840.879	23653
841.016	23646
841.153	23627
841.29	23847
841.427	23771
841.564	23786
841.701	23714
841.838	23703
841.975	23630
842.112	23478
842.249	23570
842.385	23425
842.522	23619
842.659	23516
842.796	23531
842.933	23520
843.069	23414
843.206	23501
843.343	23509
843.479	23433
843.616	23566
843.752	23265
843.889	23356
844.025	23345
844.162	23296
844.298	23372
844.435	23277
844.571	23258
844.708	23292
844.844	23402
844.98	23444
845.117	23406
845.253	23277
845.389	23151
845.525	23037
845.661	23105
845.798	22965
845.934	23003
846.07	22927
846.206	23052
846.342	23109
846.478	22976
846.614	22778
846.75	22626
846.886	22771
847.022	22725
847.158	22793
847.294	22790
847.429	22771
847.565	22653
847.701	22896
847.837	22447
847.972	22432
848.108	22497
848.244	22455
848.379	22356
848.515	22413
848.65	22272
848.786	22246
848.921	22295
849.057	22310
849.192	22325
849.328	22360
849.463	22325
849.598	22242
849.734	22166
849.869	22086
850.004	22040
850.14	21979
850.275	22150
850.41	22017
850.545	21956
850.68	21979
850.815	22150
850.95	21994
851.085	22257
851.22	22276
851.355	22162
851.49	22067
851.625	22029
851.76	22067
851.895	21994
852.03	22013
852.165	22158
852.299	22116
852.434	22177
852.569	22032
852.703	22128
852.838	22249
852.973	22223
853.107	22101
853.242	22025
853.376	21975
853.511	21827
853.645	21968
853.78	22006
853.914	21838
854.048	21869
854.183	21838
854.317	21899
854.451	22143
854.585	21972
854.72	21922
854.854	21937
854.988	21766
855.122	21903
855.256	21812
855.39	21747
855.524	21850
855.658	21941
855.792	21861
855.926	21987
856.06	21956
856.194	22067
856.327	21846
856.461	21880
856.595	21895
856.729	21953
856.862	21998
856.996	21934
857.13	21911
857.263	21979
857.397	22063
857.53	21835
857.664	21831
857.797	21983
857.931	22006
858.064	21838
858.197	22051
858.331	21888
858.464	21846
858.597	21827
858.731	21823
858.864	21739
858.997	21956
859.13	21846
859.263	21975
859.396	22086
859.529	21903
859.662	21956
859.795	21774
859.928	21915
860.061	22093
860.194	22044
860.327	22002
860.46	21941
860.592	22040
860.725	22013
860.858	21956
860.99	21926
861.123	21778
861.256	21857
861.388	21903
861.521	22508
861.653	21789
861.786	21656
861.918	21816
862.05	21705
862.183	21804
862.315	21785
862.447	21838
862.58	21781
862.712	21614
862.844	21538
862.976	21591
863.108	21644
863.24	22070
863.372	21618
863.504	21682
863.636	21644
863.768	21637
863.9	21568
864.032	21542
864.164	21660
864.296	21667
864.428	21671
864.559	21587
864.691	21720
864.823	21568
864.954	21637
865.086	21576
865.217	21306
865.349	21412
865.48	21462
865.612	21530
865.743	21610
865.875	21561
866.006	21466
866.137	21507
866.269	21477
866.4	21416
866.531	21401
866.662	21420
866.793	21428
866.924	21405
867.055	21306
867.186	21435
867.317	21287
867.448	21329
867.579	21473
867.71	21325
867.841	21374
867.972	21351
868.103	21424
868.233	21473
868.364	21412
868.495	21511
868.625	21603
868.756	21797
868.886	21610
869.017	21610
869.147	21751
869.278	21736
869.408	21682
869.539	21599
869.669	21785
869.799	21549
869.929	21823
870.06	21884
870.19	21994
870.32	22097
870.45	22017
870.58	22090
870.71	22131
870.84	22059
870.97	22048
871.1	22154
871.23	22169
871.36	22226
871.489	22112
871.619	22200
871.749	22162
871.879	22306
872.008	22272
872.138	22147
872.267	22386
872.397	22181
872.526	22021
872.656	22021
872.785	21934
872.915	22249
873.044	22398
873.173	22215
873.303	22413
873.432	22268
873.561	22413
873.69	22257
873.819	22128
873.948	22409
874.077	22249
874.206	22143
874.335	22226
874.464	22398
874.593	22561
874.722	22527
874.851	22641
874.979	22466
875.108	22493
875.237	22371
875.365	22356
875.494	22462
875.623	22417
875.751	22481
875.88	22424
876.008	22451
876.136	22626
876.265	22866
876.393	22999
876.521	22934
876.65	22942
876.778	22831
876.906	22683
877.034	22858
877.162	22831
877.29	22759
877.418	22858
877.546	22877
877.674	22854
877.802	22702
877.93	22744
878.058	22774
878.185	22774
878.313	22733
878.441	22900
878.568	22664
878.696	22710
878.824	22736
878.951	22854
879.079	23056
879.206	23010
879.333	22911
879.461	22869
879.588	22911
879.715	23033
879.842	22999
879.97	22831
880.097	22607
880.224	22592
880.351	22637
880.478	22691
880.605	22459
880.732	22630
880.859	22911
880.986	22649
881.112	22653
881.239	22531
881.366	22360
881.493	22333
881.619	22135
881.746	22238
881.872	22246
881.999	22215
882.125	22185
882.252	22074
882.378	22128
882.505	22299
882.631	22051
882.757	21945
882.883	21949
883.01	21903
883.136	21918
883.262	21846
883.388	21717
883.514	21838
883.64	21907
883.766	21895
883.892	21660
884.018	21606
884.143	21907
884.269	21937
884.395	21591
884.52	21545
884.646	21564
884.772	21439
884.897	21492
885.023	21542
885.148	21614
885.274	21557
885.399	21504
885.524	21530
885.65	21557
885.775	21500
885.9	21561
886.025	21606
886.15	21568
886.275	21538
886.4	21401
886.525	21553
886.65	21454
886.775	21412
886.9	21606
887.025	21698
887.149	21511
887.274	21408
887.399	21351
887.523	21203
887.648	21279
887.773	21214
887.897	21321
888.021	21336
888.146	21138
888.27	21511
888.395	21408
888.519	21294
888.643	21283
888.767	21389
888.891	21203
889.015	21142
889.139	21195
889.263	21169
889.387	21245
889.511	21344
889.635	21268
889.759	21055
889.883	21135
890.006	21135
890.13	21264
890.254	21062
890.377	20971
890.501	20899
890.624	20853
890.748	20918
890.871	20853
890.995	20594
891.118	20613
891.241	20716
891.364	20564
891.488	20785
891.611	20613
891.734	20716
891.857	20686
891.98	20651
892.103	20785
892.226	20583
892.349	20545
892.471	20533
892.594	20530
892.717	20533
892.839	20495
892.962	20446
893.085	20568
893.207	20537
893.33	20495
893.452	20450
893.575	20583
893.697	20457
893.819	20655
893.941	20720
894.064	20758
894.186	20507
894.308	20427
894.43	20632
894.552	20716
894.674	20613
894.796	20366
894.918	20385
895.04	20484
895.161	20587
895.283	20549
895.405	20533
895.526	20537
895.648	20522
895.769	20575
895.891	20526
896.012	20564
896.134	20564
896.255	20621
896.376	20400
896.498	20602
896.619	20602
896.74	20579
896.861	20575
896.982	20857
897.103	20990
897.224	20686
897.345	20948
897.466	20712
897.587	20872
897.708	20872
897.828	20918
897.949	20560
898.07	20552
898.19	20743
898.311	20769
898.431	20678
898.552	20811
898.672	20830
898.792	20842
898.913	20876
899.033	20648
899.153	20579
899.273	20488
899.393	20473
899.513	20564
899.633	20423
899.753	20415
899.873	20446
899.993	20454
900.113	20408
900.232	20541
900.352	20317
900.472	20332
900.591	20142
900.711	20240
900.83	20202
900.95	20298
901.069	20389
901.189	20016
901.308	19932
901.427	19807
901.546	19917
901.665	19750
901.784	19871
901.904	19742
902.023	19685
902.141	19449
902.26	19403
902.379	19339
902.498	19304
902.617	19217
902.735	19259
902.854	19362
902.973	19278
903.091	19050
903.21	18966
903.328	18913
903.446	18966
903.565	18886
903.683	18760
903.801	18776
903.919	18688
904.038	18684
904.156	18635
904.274	18604
904.392	18627
904.51	18483
904.627	18555
904.745	18574
904.863	18585
904.981	18323
905.098	18178
905.216	18182
905.334	18262
905.451	18270
905.569	18148
905.686	18350
905.803	18171
905.921	17965
906.038	18140
906.155	18049
906.272	17904
906.389	17916
906.506	17802
906.623	17779
906.74	17847
906.857	17649
906.974	17672
907.091	17794
907.208	17901
907.324	17684
907.441	17668
907.557	17623
907.674	17566
907.79	17383
907.907	17478
908.023	17604
908.139	17520
908.256	17520
908.372	17379
908.488	17318
908.604	17334
908.72	17246
908.836	17204
908.952	17193
909.068	17242
909.184	17433
909.3	17200
909.415	17223
909.531	17204
909.647	16965
909.762	16953
909.878	16877
909.993	16991
910.108	16919
910.224	16862
910.339	16938
910.454	16797
910.57	16698
910.685	16679
910.8	16938
910.915	16900
911.03	16763
911.145	16504
911.259	16554
911.374	16413
911.489	16409
911.604	16478
911.718	16249
911.833	16284
911.947	16093
912.062	16093
912.176	16280
912.291	16257
912.405	16230
912.519	16523
912.633	16322
912.748	16265
912.862	16211
912.976	16040
913.09	15926
913.204	15922
913.318	16040
913.431	16162
913.545	16067
913.659	16101
913.772	15975
913.886	15865
914	15827
914.113	15949
914.226	15945
914.34	15816
914.453	15694
914.566	15850
914.68	15679
914.793	15747
914.906	15542
915.019	15500
915.132	15348
915.245	15401
915.358	15523
915.47	15504
915.583	15557
915.696	15443
915.809	15553
915.921	15580
916.034	15416
916.146	15397
916.259	15393
916.371	15370
916.483	15393
916.595	15306
916.708	15226
916.82	15291
916.932	15230
917.044	15237
917.156	15222
917.268	15055
917.38	15135
917.491	15074
917.603	15123
917.715	15138
917.826	15161
917.938	14975
918.049	14800
918.161	15024
918.272	15214
918.384	15142
918.495	15032
918.606	14880
918.717	14823
918.828	14891
918.939	14982
919.05	14758
919.161	14800
919.272	14613
919.383	14655
919.494	14876
919.604	14963
919.715	14834
919.826	14693
919.936	14731
920.047	14880
920.157	14754
920.267	14895
920.378	14849
920.488	14739
920.598	14944
920.708	15161
920.818	14880
920.928	14921
921.038	15100
921.148	14971
921.258	14739
921.368	14670
921.477	14568
921.587	14514
921.697	14396
921.806	14549
921.916	14415
922.025	14221
922.134	14142
922.244	14096
922.353	14199
922.462	13982
922.571	13982
922.68	13818
922.789	13753
922.898	13894
923.007	13708
923.116	13841
923.224	13693
923.333	13753
923.442	13742
923.55	13620
923.659	13616
923.767	13655
923.876	13521
923.984	13628
924.092	13499
924.201	13521
924.309	13472
924.417	13544
924.525	13377
924.633	13415
924.741	14393
924.849	13244
924.956	13251
925.064	13225
925.172	13179
925.279	13217
925.387	13190
925.494	13202
925.602	13388
925.709	13209
925.816	13076
925.924	13107
926.031	13190
926.138	13209
926.245	13133
926.352	12996
926.459	13183
926.566	13232
926.673	13069
926.779	12947
926.886	12939
926.993	12745
927.099	12719
927.206	12684
927.312	12707
927.419	12783
927.525	12779
927.631	12764
927.737	12684
927.843	12612
927.95	12464
928.056	12525
928.162	12601
928.267	12574
928.373	13168
928.479	12582
928.585	12342
928.69	12525
928.796	12563
928.901	12490
929.007	12277
929.112	12467
929.218	12441
929.323	12372
929.428	12350
929.533	12433
929.638	12209
929.743	12254
929.848	12300
929.953	12235
930.058	12098
930.163	11958
930.267	12019
930.372	12129
930.477	11904
930.581	12095
930.685	12015
930.79	11851
930.894	11885
930.998	11855
931.103	11912
931.207	11528
931.311	11551
931.415	11520
931.519	11242
931.623	11223
