Data from test_V78500241_2951.txt Node
Date: Fri Mar 25 15:30:24 CST 2022
User: usil
Spectrometer: V785-0024
Trigger mode: 0
Integration Time (sec): 4.000000E-1
Scans to average: 1
Nonlinearity correction enabled: false
Boxcar width: 0
Storing dark spectrum: false
XAxis mode: Wavelengths
Number of Pixels in Spectrum: 1024
>>>>>Begin Spectral Data<<<<<
801.071	27058
801.214	26921
801.356	26823
801.499	26716
801.641	26659
801.783	26545
801.926	26651
802.068	26549
802.211	26549
802.353	26473
802.496	26336
802.638	26240
802.78	26130
802.923	26103
803.065	26024
803.208	26164
803.35	26202
803.492	26351
803.635	26328
803.777	26229
803.919	26317
804.061	26583
804.204	26431
804.346	26244
804.488	26210
804.63	26214
804.773	26317
804.915	26332
805.057	26495
805.199	26404
805.341	26309
805.483	26598
805.626	26309
805.768	26427
805.91	26404
806.052	26385
806.194	26400
806.336	26564
806.478	26499
806.62	26423
806.762	26617
806.904	26659
807.046	26967
807.188	26861
807.33	26948
807.472	26944
807.614	26845
807.756	26765
807.898	26727
808.04	26674
808.182	26678
808.324	26712
808.465	26655
808.607	26963
808.749	27123
808.891	27138
809.033	27332
809.174	27089
809.316	27100
809.458	27013
809.6	27070
809.741	27051
809.883	27264
810.025	27321
810.166	27439
810.308	27363
810.45	27245
810.591	27389
810.733	27089
810.875	27131
811.016	27047
811.158	26872
811.299	27169
811.441	27241
811.582	27150
811.724	27066
811.865	27081
812.007	26895
812.148	26967
812.29	27089
812.431	27127
812.573	27298
812.714	27367
812.855	27427
812.997	27534
813.138	27755
813.279	27542
813.421	27515
813.562	27397
813.703	27313
813.845	27283
813.986	26986
814.127	26792
814.268	26701
814.41	26773
814.551	26549
814.692	26811
814.833	26564
814.974	26651
815.115	26682
815.256	26518
815.397	26541
815.539	26507
815.68	26590
815.821	26404
815.962	26434
816.103	26499
816.244	26271
816.385	26088
816.526	26351
816.666	25959
816.807	25841
816.948	26043
817.089	26024
817.23	25966
817.371	25799
817.512	26031
817.653	25932
817.793	25902
817.934	26050
818.075	25970
818.216	25932
818.356	25940
818.497	25852
818.638	25628
818.778	25693
818.919	25708
819.06	25788
819.2	25727
819.341	25784
819.481	25791
819.622	26084
819.762	26263
819.903	26305
820.043	26031
820.184	25993
820.324	25963
820.465	26134
820.605	26111
820.746	25906
820.886	25837
821.026	26020
821.167	25955
821.307	26050
821.447	26008
821.588	25814
821.728	25533
821.868	25597
822.008	25304
822.149	25358
822.289	25388
822.429	25114
822.569	25099
822.709	24977
822.849	24894
822.99	24867
823.13	24863
823.27	24951
823.41	24741
823.55	24601
823.69	24741
823.83	24650
823.97	24650
824.11	24486
824.25	24483
824.389	24521
824.529	24623
824.669	24452
824.809	24616
824.949	24544
825.089	24654
825.228	24505
825.368	24445
825.508	24467
825.648	24464
825.787	24372
825.927	24448
826.067	24308
826.206	24399
826.346	24471
826.485	24445
826.625	24281
826.765	24369
826.904	24555
827.044	24095
827.183	24155
827.323	24136
827.462	24072
827.601	24110
827.741	23980
827.88	24076
828.02	23988
828.159	24072
828.298	24079
828.437	24148
828.577	23996
828.716	24220
828.855	24049
828.994	23809
829.134	23824
829.273	23802
829.412	23779
829.551	23676
829.69	23771
829.829	23733
829.968	23779
830.107	23908
830.246	23733
830.385	23775
830.524	23687
830.663	23531
830.802	23368
830.941	23364
831.08	23307
831.219	23482
831.357	23490
831.496	23653
831.635	23364
831.774	23307
831.913	23269
832.051	23223
832.19	23079
832.329	23307
832.467	23117
832.606	22889
832.744	23060
832.883	23044
833.022	23079
833.16	23044
833.299	23003
833.437	23006
833.576	23136
833.714	23060
833.852	23102
833.991	23151
834.129	23261
834.267	23155
834.406	23090
834.544	23136
834.682	23044
834.821	23083
834.959	23185
835.097	23098
835.235	23242
835.373	23143
835.511	23060
835.65	23037
835.788	22923
835.926	22805
836.064	22725
836.202	22694
836.34	22972
836.478	23064
836.615	22858
836.753	22953
836.891	23025
837.029	23037
837.167	22927
837.305	22862
837.443	22866
837.58	22683
837.718	22820
837.856	22862
837.993	22816
838.131	22694
838.269	22641
838.406	22645
838.544	22588
838.681	22508
838.819	22436
838.956	22367
839.094	22402
839.231	22284
839.369	22459
839.506	22634
839.643	22634
839.781	22280
839.918	22143
840.055	22173
840.193	22204
840.33	22131
840.467	22249
840.604	22192
840.742	22451
840.879	22036
841.016	22082
841.153	22051
841.29	22322
841.427	22128
841.564	22322
841.701	22166
841.838	22082
841.975	22120
842.112	22116
842.249	21994
842.385	22109
842.522	22200
842.659	22021
842.796	22010
842.933	21987
843.069	21937
843.206	21736
843.343	22002
843.479	21876
843.616	21949
843.752	21785
843.889	21835
844.025	21964
844.162	21698
844.298	21808
844.435	21880
844.571	21633
844.708	21778
844.844	21964
844.98	21766
845.117	21903
845.253	21675
845.389	21553
845.525	21599
845.661	21542
845.798	21317
845.934	21530
846.07	21367
846.206	21500
846.342	21648
846.478	21412
846.614	21237
846.75	21184
846.886	21119
847.022	21272
847.158	21169
847.294	21192
847.429	21062
847.565	21146
847.701	21367
847.837	20838
847.972	20952
848.108	21020
848.244	21116
848.379	20853
848.515	20746
848.65	20819
848.786	20891
848.921	20781
849.057	20895
849.192	20902
849.328	20735
849.463	20781
849.598	20792
849.734	20651
849.869	20686
850.004	20579
850.14	20659
850.275	20632
850.41	20598
850.545	20556
850.68	20503
850.815	20537
850.95	20549
851.085	20663
851.22	20606
851.355	20571
851.49	20640
851.625	20446
851.76	20659
851.895	20465
852.03	20400
852.165	20511
852.299	20598
852.434	20556
852.569	20465
852.703	20450
852.838	20663
852.973	20708
853.107	20708
853.242	20431
853.376	20476
853.511	20313
853.645	20286
853.78	20415
853.914	20404
854.048	20362
854.183	20377
854.317	20385
854.451	20530
854.585	20427
854.72	20450
854.854	20480
854.988	20252
855.122	20427
855.256	20332
855.39	20400
855.524	20412
855.658	20530
855.792	20450
855.926	20370
856.06	20495
856.194	20473
856.327	20396
856.461	20259
856.595	20393
856.729	20347
856.862	20526
856.996	20442
857.13	20370
857.263	20625
857.397	20480
857.53	20351
857.664	20396
857.797	20294
857.931	20446
858.064	20282
858.197	20480
858.331	20400
858.464	20263
858.597	20290
858.731	20419
858.864	20355
858.997	20362
859.13	20328
859.263	20442
859.396	20351
859.529	20427
859.662	20309
859.795	20415
859.928	20431
860.061	20457
860.194	20431
860.327	20412
860.46	20343
860.592	20503
860.725	20541
860.858	20492
860.99	20294
861.123	20317
861.256	20290
861.388	20488
861.521	20941
861.653	20290
861.786	20122
861.918	20191
862.05	20214
862.183	20427
862.315	20317
862.447	20362
862.58	20252
862.712	20107
862.844	20016
862.976	20195
863.108	20168
863.24	20613
863.372	19947
863.504	20183
863.636	20073
863.768	20172
863.9	20115
864.032	20138
864.164	20145
864.296	20119
864.428	20157
864.559	20084
864.691	20084
864.823	20054
864.954	20134
865.086	20142
865.217	19993
865.349	19909
865.48	20058
865.612	20012
865.743	20081
865.875	19997
866.006	19955
866.137	20069
866.269	19967
866.4	20008
866.531	19986
866.662	19982
866.793	19894
866.924	19841
867.055	19898
867.186	19932
867.317	19913
867.448	19951
867.579	19940
867.71	19811
867.841	19925
867.972	19890
868.103	19909
868.233	19936
868.364	20008
868.495	20077
868.625	20119
868.756	20301
868.886	20111
869.017	20138
869.147	20343
869.278	20328
869.408	20202
869.539	20282
869.669	20309
869.799	20244
869.929	20320
870.06	20343
870.19	20499
870.32	20454
870.45	20621
870.58	20564
870.71	20587
870.84	20579
870.97	20549
871.1	20587
871.23	20708
871.36	20853
871.489	20720
871.619	20724
871.749	20739
871.879	20777
872.008	20910
872.138	20838
872.267	20716
872.397	20640
872.526	20552
872.656	20625
872.785	20659
872.915	20842
873.044	20819
873.173	20914
873.303	20963
873.432	20815
873.561	20960
873.69	20773
873.819	20800
873.948	20838
874.077	20834
874.206	20815
874.335	20857
874.464	21096
874.593	21017
874.722	21017
874.851	21096
874.979	21100
875.108	21165
875.237	21039
875.365	20982
875.494	20960
875.623	21055
875.751	20982
875.88	21077
876.008	21211
876.136	21252
876.265	21545
876.393	21530
876.521	21416
876.65	21519
876.778	21530
876.906	21374
877.034	21389
877.162	21382
877.29	21367
877.418	21447
877.546	21469
877.674	21488
877.802	21439
877.93	21378
878.058	21329
878.185	21272
878.313	21287
878.441	21420
878.568	21237
878.696	21302
878.824	21481
878.951	21492
879.079	21542
879.206	21682
879.333	21500
879.461	21408
879.588	21485
879.715	21534
879.842	21614
879.97	21507
880.097	21367
880.224	21207
880.351	21291
880.478	21252
880.605	21275
880.732	21188
880.859	21382
880.986	21214
881.112	21272
881.239	21055
881.366	21001
881.493	20864
881.619	20716
881.746	20853
881.872	20857
881.999	20750
882.125	20792
882.252	20929
882.378	20876
882.505	20861
882.631	20739
882.757	20507
882.883	20629
883.01	20484
883.136	20545
883.262	20351
883.388	20431
883.514	20495
883.64	20575
883.766	20454
883.892	20309
884.018	20351
884.143	20423
884.269	20526
884.395	20298
884.52	20153
884.646	20229
884.772	20119
884.897	19982
885.023	20172
885.148	20415
885.274	20336
885.399	20237
885.524	20237
885.65	20218
885.775	20115
885.9	20115
886.025	20355
886.15	20183
886.275	20027
886.4	20088
886.525	20225
886.65	20088
886.775	20107
886.9	20229
887.025	20393
887.149	20149
887.274	20054
887.399	20001
887.523	19978
887.648	19944
887.773	19811
887.897	20043
888.021	20012
888.146	19852
888.27	19955
888.395	20035
888.519	19921
888.643	20016
888.767	20039
888.891	19921
889.015	19856
889.139	19811
889.263	19780
889.387	19830
889.511	19978
889.635	19932
889.759	19670
889.883	19712
890.006	19833
890.13	19928
890.254	19693
890.377	19727
890.501	19506
890.624	19624
890.748	19620
890.871	19487
890.995	19407
891.118	19350
891.241	19411
891.364	19411
891.488	19426
891.611	19369
891.734	19445
891.857	19441
891.98	19358
892.103	19434
892.226	19289
892.349	19350
892.471	19236
892.594	19320
892.717	19206
892.839	19293
892.962	19259
893.085	19225
893.207	19198
893.33	19289
893.452	19213
893.575	19335
893.697	19213
893.819	19384
893.941	19521
894.064	19480
894.186	19240
894.308	19103
894.43	19285
894.552	19445
894.674	19400
894.796	19259
894.918	19369
895.04	19297
895.161	19381
895.283	19320
895.405	19274
895.526	19221
895.648	19308
895.769	19407
895.891	19335
896.012	19289
896.134	19259
896.255	19354
896.376	19240
896.498	19270
896.619	19282
896.74	19247
896.861	19373
896.982	19590
897.103	19750
897.224	19681
897.345	19639
897.466	19518
897.587	19556
897.708	19708
897.828	19586
897.949	19586
898.07	19381
898.19	19567
898.311	19597
898.431	19487
898.552	19548
898.672	19537
898.792	19537
898.913	19540
899.033	19377
899.153	19415
899.273	19263
899.393	19327
899.513	19358
899.633	19232
899.753	19324
899.873	19285
899.993	19213
900.113	19392
900.232	19278
900.352	19270
900.472	19141
900.591	19126
900.711	19099
900.83	19103
900.95	19095
901.069	19190
901.189	19031
901.308	18741
901.427	18734
901.546	18779
901.665	18684
901.784	18692
901.904	18544
902.023	18517
902.141	18273
902.26	18353
902.379	18311
902.498	18220
902.617	18224
902.735	18300
902.854	18273
902.973	18117
903.091	17980
903.21	18015
903.328	17980
903.446	17847
903.565	17615
903.683	17699
903.801	17608
903.919	17649
904.038	17661
904.156	17528
904.274	17535
904.392	17520
904.51	17444
904.627	17459
904.745	17455
904.863	17505
904.981	17433
905.098	17265
905.216	17166
905.334	17273
905.451	17170
905.569	17193
905.686	17010
905.803	17090
905.921	17022
906.038	17079
906.155	17018
906.272	16900
906.389	16744
906.506	16615
906.623	16626
906.74	16710
906.857	16558
906.974	16542
907.091	16809
907.208	16854
907.324	16694
907.441	16645
907.557	16352
907.674	16421
907.79	16306
907.907	16394
908.023	16481
908.139	16432
908.256	16470
908.372	16276
908.488	16329
908.604	16143
908.72	16211
908.836	16150
908.952	16207
909.068	16173
909.184	16310
909.3	16154
909.415	16147
909.531	16120
909.647	15880
909.762	15956
909.878	15804
909.993	15922
910.108	15755
910.224	15873
910.339	15808
910.454	15675
910.57	15667
910.685	15625
910.8	15823
910.915	15793
911.03	15587
911.145	15462
911.259	15492
911.374	15469
911.489	15405
911.604	15359
911.718	15131
911.833	15241
911.947	15218
912.062	15001
912.176	15294
912.291	15302
912.405	15279
912.519	15428
912.633	15397
912.748	15291
912.862	15230
912.976	15108
913.09	14902
913.204	15047
913.318	15017
913.431	15154
913.545	15070
913.659	15138
913.772	14941
913.886	14941
914	14937
914.113	14853
914.226	14982
914.34	14857
914.453	14689
914.566	14887
914.68	14765
914.793	14773
914.906	14488
915.019	14564
915.132	14385
915.245	14446
915.358	14530
915.47	14431
915.583	14438
915.696	14568
915.809	14640
915.921	14518
916.034	14492
916.146	14347
916.259	14278
916.371	14366
916.483	14320
916.595	14347
916.708	14298
916.82	14347
916.932	14244
917.044	14229
917.156	14229
917.268	14195
917.38	14130
917.491	14164
917.603	14138
917.715	14252
917.826	14168
917.938	14039
918.049	13959
918.161	14111
918.272	14263
918.384	14336
918.495	14065
918.606	13978
918.717	13887
918.828	13925
918.939	13868
919.05	13822
919.161	13826
919.272	13700
919.383	13799
919.494	13947
919.604	14103
919.715	13879
919.826	13761
919.936	13925
920.047	13925
920.157	13902
920.267	14031
920.378	13890
920.488	13898
920.598	14058
920.708	14164
920.818	14005
920.928	14111
921.038	14176
921.148	14142
921.258	13856
921.368	13761
921.477	13658
921.587	13616
921.697	13529
921.806	13624
921.916	13518
922.025	13343
922.134	13362
922.244	13308
922.353	13350
922.462	13190
922.571	13202
922.68	12966
922.789	12886
922.898	13004
923.007	12875
923.116	12989
923.224	12928
923.333	12932
923.442	12757
923.55	12726
923.659	12852
923.767	12856
923.876	12696
923.984	12810
924.092	12639
924.201	12654
924.309	12741
924.417	12764
924.525	12635
924.633	12623
924.741	13362
924.849	12380
924.956	12555
925.064	12452
925.172	12304
925.279	12357
925.387	12448
925.494	12403
925.602	12532
925.709	12403
925.816	12338
925.924	12304
926.031	12532
926.138	12346
926.245	12369
926.352	12296
926.459	12384
926.566	12365
926.673	12330
926.779	12163
926.886	12136
926.993	11973
927.099	12026
927.206	11942
927.312	11828
927.419	12057
927.525	11958
927.631	12045
927.737	11866
927.843	11821
927.95	11714
928.056	11874
928.162	11870
928.267	11855
928.373	12525
928.479	11821
928.585	11657
928.69	11790
928.796	11859
928.901	11623
929.007	11532
929.112	11745
929.218	11642
929.323	11577
929.428	11589
929.533	11707
929.638	11505
929.743	11509
929.848	11653
929.953	11509
930.058	11433
930.163	11227
930.267	11265
930.372	11410
930.477	11181
930.581	11471
930.685	11311
930.79	11170
930.894	11204
930.998	11155
931.103	11242
931.207	10915
931.311	10786
931.415	10767
931.519	10607
931.623	10679
