Data from test_V78500241_1498.txt Node
Date: Fri Mar 25 15:20:17 CST 2022
User: usil
Spectrometer: V785-0024
Trigger mode: 0
Integration Time (sec): 4.000000E-1
Scans to average: 1
Nonlinearity correction enabled: false
Boxcar width: 0
Storing dark spectrum: false
XAxis mode: Wavelengths
Number of Pixels in Spectrum: 1024
>>>>>Begin Spectral Data<<<<<
801.071	28078
801.214	28177
801.356	27831
801.499	27800
801.641	27759
801.783	27682
801.926	27614
802.068	27739
802.211	27781
802.353	27595
802.496	27435
802.638	27393
802.78	27348
802.923	27268
803.065	27279
803.208	27332
803.35	27348
803.492	27538
803.635	27538
803.777	27515
803.919	27545
804.061	27827
804.204	27728
804.346	27450
804.488	27389
804.63	27629
804.773	27291
804.915	27519
805.057	27660
805.199	27576
805.341	27713
805.483	27804
805.626	27583
805.768	27652
805.91	27682
806.052	27785
806.194	27526
806.336	27747
806.478	27701
806.62	27724
806.762	27785
806.904	28074
807.046	28379
807.188	28139
807.33	28230
807.472	28131
807.614	28086
807.756	28101
807.898	27968
808.04	28124
808.182	28055
808.324	27975
808.465	27983
808.607	28090
808.749	28337
808.891	28386
809.033	28459
809.174	28443
809.316	28382
809.458	28337
809.6	28272
809.741	28401
809.883	28493
810.025	28683
810.166	28763
810.308	28713
810.45	28706
810.591	28596
810.733	28405
810.875	28344
811.016	28306
811.158	28200
811.299	28466
811.441	28466
811.582	28565
811.724	28363
811.865	28455
812.007	28417
812.148	28443
812.29	28443
812.431	28637
812.573	28675
812.714	28634
812.855	28885
812.997	28896
813.138	29208
813.279	28949
813.421	28809
813.562	28908
813.703	28713
813.845	28618
813.986	28363
814.127	28249
814.268	28051
814.41	28112
814.551	28025
814.692	28173
814.833	28135
814.974	28090
815.115	28158
815.256	27930
815.397	28010
815.539	28029
815.68	27827
815.821	27861
815.962	27888
816.103	27953
816.244	27736
816.385	27739
816.526	27606
816.666	27477
816.807	27310
816.948	27389
817.089	27306
817.23	27466
817.371	27188
817.512	27397
817.653	27389
817.793	27306
817.934	27439
818.075	27306
818.216	27401
818.356	27367
818.497	27332
818.638	27070
818.778	27112
818.919	27142
819.06	27131
819.2	27135
819.341	27359
819.481	27351
819.622	27564
819.762	27564
819.903	27625
820.043	27530
820.184	27443
820.324	27481
820.465	27568
820.605	27477
820.746	27389
820.886	27526
821.026	27481
821.167	27405
821.307	27572
821.447	27310
821.588	27275
821.728	27150
821.868	27058
822.008	26720
822.149	26910
822.289	26883
822.429	26632
822.569	26545
822.709	26613
822.849	26431
822.99	26427
823.13	26415
823.27	26385
823.41	26191
823.55	26024
823.69	26157
823.83	26221
823.97	26107
824.11	25940
824.25	26084
824.389	26164
824.529	26100
824.669	26024
824.809	26100
824.949	26073
825.089	26077
825.228	25959
825.368	25890
825.508	25936
825.648	25986
825.787	26035
825.927	25944
826.067	25871
826.206	25753
826.346	25955
826.485	25871
826.625	25845
826.765	25936
826.904	25772
827.044	25632
827.183	25556
827.323	25677
827.462	25582
827.601	25552
827.741	25620
827.88	25643
828.02	25540
828.159	25704
828.298	25449
828.437	25635
828.577	25514
828.716	25601
828.855	25518
828.994	25377
829.134	25362
829.273	25407
829.412	25221
829.551	25285
829.69	25335
829.829	25304
829.968	25362
830.107	25312
830.246	25202
830.385	25251
830.524	25179
830.663	25110
830.802	25065
830.941	24894
831.08	24897
831.219	25023
831.357	24992
831.496	25072
831.635	24939
831.774	24730
831.913	24840
832.051	24642
832.19	24654
832.329	24821
832.467	24498
832.606	24528
832.744	24517
832.883	24479
833.022	24437
833.16	24585
833.299	24464
833.437	24479
833.576	24658
833.714	24688
833.852	24631
833.991	24597
834.129	24741
834.267	24631
834.406	24509
834.544	24646
834.682	24601
834.821	24570
834.959	24711
835.097	24544
835.235	24601
835.373	24646
835.511	24650
835.65	24475
835.788	24574
835.926	24350
836.064	24285
836.202	24338
836.34	24391
836.478	24429
836.615	24418
836.753	24399
836.891	24525
837.029	24464
837.167	24380
837.305	24365
837.443	24235
837.58	24251
837.718	24308
837.856	24353
837.993	24152
838.131	24247
838.269	24133
838.406	24209
838.544	23946
838.681	23870
838.819	23809
838.956	23786
839.094	23703
839.231	23687
839.369	23950
839.506	24098
839.643	24049
839.781	23653
839.918	23623
840.055	23805
840.193	23592
840.33	23539
840.467	23680
840.604	23630
840.742	23889
840.879	23490
841.016	23630
841.153	23459
841.29	23676
841.427	23646
841.564	23581
841.701	23691
841.838	23562
841.975	23482
842.112	23531
842.249	23414
842.385	23425
842.522	23623
842.659	23471
842.796	23322
842.933	23471
843.069	23478
843.206	23417
843.343	23417
843.479	23372
843.616	23356
843.752	23174
843.889	23071
844.025	23406
844.162	23200
844.298	23288
844.435	23136
844.571	23109
844.708	23288
844.844	23292
844.98	23246
845.117	23166
845.253	23071
845.389	22984
845.525	23052
845.661	23022
845.798	22946
845.934	22953
846.07	22885
846.206	22934
846.342	22980
846.478	22889
846.614	22725
846.75	22622
846.886	22584
847.022	22752
847.158	22634
847.294	22782
847.429	22725
847.565	22546
847.701	22847
847.837	22386
847.972	22325
848.108	22386
848.244	22436
848.379	22242
848.515	22287
848.65	22192
848.786	22318
848.921	22147
849.057	22337
849.192	22242
849.328	22284
849.463	22238
849.598	22150
849.734	22070
849.869	22166
850.004	21991
850.14	22090
850.275	21972
850.41	21884
850.545	21945
850.68	21994
850.815	21979
850.95	22051
851.085	22105
851.22	22070
851.355	21926
851.49	21972
851.625	21983
851.76	21964
851.895	21892
852.03	21876
852.165	22063
852.299	22044
852.434	22150
852.569	22048
852.703	21888
852.838	22006
852.973	22188
853.107	22086
853.242	21869
853.376	21797
853.511	21717
853.645	21698
853.78	21846
853.914	21838
854.048	21751
854.183	21812
854.317	21892
854.451	22040
854.585	21816
854.72	21778
854.854	21945
854.988	21648
855.122	21816
855.256	21717
855.39	21816
855.524	21861
855.658	21736
855.792	21838
855.926	21926
856.06	21899
856.194	21823
856.327	21728
856.461	21766
856.595	21751
856.729	21732
856.862	21926
856.996	21823
857.13	21960
857.263	21979
857.397	21960
857.53	21823
857.664	21850
857.797	21865
857.931	21953
858.064	21797
858.197	21903
858.331	21812
858.464	21720
858.597	21675
858.731	21823
858.864	21713
858.997	21694
859.13	21835
859.263	21846
859.396	21861
859.529	21808
859.662	21778
859.795	21656
859.928	21865
860.061	21880
860.194	22013
860.327	21899
860.46	21812
860.592	21915
860.725	21892
860.858	21907
860.99	21819
861.123	21705
861.256	21785
861.388	21812
861.521	22398
861.653	21698
861.786	21553
861.918	21637
862.05	21724
862.183	21705
862.315	21808
862.447	21736
862.58	21690
862.712	21576
862.844	21435
862.976	21564
863.108	21618
863.24	21926
863.372	21424
863.504	21466
863.636	21515
863.768	21382
863.9	21492
864.032	21488
864.164	21515
864.296	21545
864.428	21454
864.559	21473
864.691	21542
864.823	21519
864.954	21462
865.086	21496
865.217	21382
865.349	21321
865.48	21367
865.612	21447
865.743	21583
865.875	21428
866.006	21340
866.137	21485
866.269	21260
866.4	21344
866.531	21260
866.662	21252
866.793	21344
866.924	21294
867.055	21264
867.186	21355
867.317	21317
867.448	21169
867.579	21325
867.71	21264
867.841	21245
867.972	21203
868.103	21294
868.233	21279
868.364	21340
868.495	21439
868.625	21564
868.756	21568
868.886	21439
869.017	21538
869.147	21606
869.278	21694
869.408	21641
869.539	21656
869.669	21591
869.799	21538
869.929	21595
870.06	21667
870.19	21819
870.32	21899
870.45	21869
870.58	22051
870.71	22082
870.84	22013
870.97	21865
871.1	21922
871.23	22219
871.36	22219
871.489	22051
871.619	22158
871.749	22021
871.879	22082
872.008	22112
872.138	22051
872.267	22143
872.397	22017
872.526	22055
872.656	21998
872.785	21964
872.915	22025
873.044	22291
873.173	22188
873.303	22341
873.432	22219
873.561	22360
873.69	22181
873.819	22173
873.948	22276
874.077	22120
874.206	22105
874.335	22139
874.464	22200
874.593	22459
874.722	22310
874.851	22440
874.979	22599
875.108	22504
875.237	22344
875.365	22272
875.494	22413
875.623	22519
875.751	22284
875.88	22360
876.008	22402
876.136	22577
876.265	22767
876.393	22877
876.521	22839
876.65	22831
876.778	22668
876.906	22702
877.034	22725
877.162	22850
877.29	22668
877.418	22748
877.546	22729
877.674	22706
877.802	22649
877.93	22672
878.058	22660
878.185	22645
878.313	22664
878.441	22729
878.568	22561
878.696	22607
878.824	22740
878.951	22782
879.079	22915
879.206	23033
879.333	22915
879.461	22725
879.588	22820
879.715	22835
879.842	23067
879.97	22839
880.097	22554
880.224	22596
880.351	22653
880.478	22630
880.605	22546
880.732	22459
880.859	22729
880.986	22607
881.112	22577
881.239	22421
881.366	22367
881.493	22299
881.619	22234
881.746	22120
881.872	22063
881.999	22017
882.125	22090
882.252	22177
882.378	22093
882.505	22196
882.631	22055
882.757	21899
882.883	21956
883.01	21793
883.136	21781
883.262	21610
883.388	21690
883.514	21880
883.64	21876
883.766	21732
883.892	21500
884.018	21576
884.143	21720
884.269	21755
884.395	21603
884.52	21420
884.646	21511
884.772	21469
884.897	21340
885.023	21637
885.148	21576
885.274	21485
885.399	21507
885.524	21439
885.65	21511
885.775	21420
885.9	21367
886.025	21595
886.15	21549
886.275	21443
886.4	21294
886.525	21408
886.65	21317
886.775	21351
886.9	21473
887.025	21694
887.149	21412
887.274	21176
887.399	21199
887.523	21252
887.648	21154
887.773	21108
887.897	21226
888.021	21283
888.146	21089
888.27	21226
888.395	21325
888.519	21192
888.643	21233
888.767	21279
888.891	21085
889.015	21055
889.139	21001
889.263	21085
889.387	21112
889.511	21180
889.635	21157
889.759	21047
889.883	20952
890.006	20918
890.13	21062
890.254	20830
890.377	20864
890.501	20724
890.624	20655
890.748	20777
890.871	20606
890.995	20682
891.118	20545
891.241	20533
891.364	20560
891.488	20609
891.611	20579
891.734	20670
891.857	20590
891.98	20617
892.103	20617
892.226	20659
892.349	20438
892.471	20313
892.594	20446
892.717	20503
892.839	20552
892.962	20552
893.085	20583
893.207	20374
893.33	20374
893.452	20377
893.575	20606
893.697	20427
893.819	20579
893.941	20651
894.064	20594
894.186	20450
894.308	20396
894.43	20396
894.552	20533
894.674	20499
894.796	20328
894.918	20492
895.04	20431
895.161	20560
895.283	20526
895.405	20454
895.526	20514
895.648	20404
895.769	20476
895.891	20415
896.012	20545
896.134	20590
896.255	20541
896.376	20358
896.498	20473
896.619	20495
896.74	20446
896.861	20503
896.982	20815
897.103	20834
897.224	20674
897.345	20663
897.466	20640
897.587	20609
897.708	20800
897.828	20670
897.949	20507
898.07	20480
898.19	20541
898.311	20735
898.431	20541
898.552	20648
898.672	20781
898.792	20682
898.913	20663
899.033	20621
899.153	20469
899.273	20290
899.393	20469
899.513	20488
899.633	20393
899.753	20492
899.873	20313
899.993	20511
900.113	20393
900.232	20332
900.352	20347
900.472	20233
900.591	20054
900.711	20172
900.83	20111
900.95	20317
901.069	20278
901.189	20031
901.308	19928
901.427	19811
901.546	19727
901.665	19753
901.784	19658
901.904	19689
902.023	19556
902.141	19422
902.26	19335
902.379	19289
902.498	19316
902.617	19236
902.735	19312
902.854	19228
902.973	19050
903.091	18966
903.21	18913
903.328	18962
903.446	18878
903.565	18692
903.683	18787
903.801	18669
903.919	18620
904.038	18722
904.156	18555
904.274	18559
904.392	18471
904.51	18448
904.627	18350
904.745	18570
904.863	18593
904.981	18334
905.098	18174
905.216	18106
905.334	18190
905.451	18182
905.569	17996
905.686	18114
905.803	18045
905.921	17908
906.038	18083
906.155	18022
906.272	17855
906.389	17897
906.506	17756
906.623	17748
906.74	17710
906.857	17630
906.974	17657
907.091	17741
907.208	17824
907.324	17638
907.441	17608
907.557	17455
907.674	17497
907.79	17349
907.907	17364
908.023	17417
908.139	17440
908.256	17334
908.372	17288
908.488	17189
908.604	17273
908.72	17128
908.836	17185
908.952	17117
909.068	17170
909.184	17220
909.3	17117
909.415	17155
909.531	17079
909.647	16972
909.762	16946
909.878	16873
909.993	16820
910.108	16729
910.224	16843
910.339	16790
910.454	16679
910.57	16622
910.685	16565
910.8	16771
910.915	16710
911.03	16611
911.145	16599
911.259	16344
911.374	16371
911.489	16276
911.604	16249
911.718	16215
911.833	16147
911.947	15987
912.062	15987
912.176	16059
912.291	16158
912.405	16181
912.519	16265
912.633	16306
912.748	16223
912.862	16158
912.976	15987
913.09	15956
913.204	15994
913.318	15922
913.431	15991
913.545	16074
913.659	16097
913.772	15964
913.886	15690
914	15785
914.113	15800
914.226	15850
914.34	15816
914.453	15667
914.566	15717
914.68	15648
914.793	15682
914.906	15492
915.019	15416
915.132	15230
915.245	15351
915.358	15408
915.47	15405
915.583	15340
915.696	15431
915.809	15454
915.921	15500
916.034	15226
916.146	15199
916.259	15245
916.371	15344
916.483	15256
916.595	15161
916.708	15214
916.82	15241
916.932	15188
917.044	15180
917.156	15074
917.268	15047
917.38	15047
917.491	14963
917.603	15066
917.715	15104
917.826	15100
917.938	14982
918.049	14883
918.161	14918
918.272	15085
918.384	15157
918.495	14937
918.606	14746
918.717	14731
918.828	14777
918.939	14804
919.05	14708
919.161	14781
919.272	14575
919.383	14640
919.494	14830
919.604	14967
919.715	14750
919.826	14686
919.936	14701
920.047	14724
920.157	14701
920.267	14918
920.378	14727
920.488	14663
920.598	14929
920.708	14963
920.818	14796
920.928	14925
921.038	15020
921.148	14963
921.258	14682
921.368	14613
921.477	14495
921.587	14465
921.697	14362
921.806	14507
921.916	14240
922.025	14153
922.134	14142
922.244	13951
922.353	14111
922.462	13890
922.571	13925
922.68	13791
922.789	13704
922.898	13746
923.007	13704
923.116	13833
923.224	13727
923.333	13704
923.442	13586
923.55	13499
923.659	13628
923.767	13616
923.876	13506
923.984	13544
924.092	13537
924.201	13491
924.309	13533
924.417	13502
924.525	13411
924.633	13422
924.741	14229
924.849	13133
924.956	13255
925.064	13244
925.172	13133
925.279	13103
925.387	13145
925.494	13137
925.602	13251
925.709	13149
925.816	12993
925.924	12970
926.031	13129
926.138	13027
926.245	13187
926.352	12947
926.459	13038
926.566	13145
926.673	13076
926.779	12894
926.886	12935
926.993	12745
927.099	12662
927.206	12692
927.312	12684
927.419	12764
927.525	12753
927.631	12760
927.737	12681
927.843	12509
927.95	12372
928.056	12517
928.162	12532
928.267	12486
928.373	13206
928.479	12627
928.585	12376
928.69	12525
928.796	12448
928.901	12338
929.007	12273
929.112	12414
929.218	12304
929.323	12304
929.428	12262
929.533	12437
929.638	12155
929.743	12159
929.848	12247
929.953	12209
930.058	12030
930.163	11965
930.267	11817
930.372	12049
930.477	11859
930.581	12098
930.685	12011
930.79	11718
930.894	11897
930.998	11737
931.103	11878
931.207	11600
931.311	11353
931.415	11474
931.519	11231
931.623	11128
