Data from test_V78500241_1557.txt Node
Date: Fri Mar 25 15:20:41 CST 2022
User: usil
Spectrometer: V785-0024
Trigger mode: 0
Integration Time (sec): 4.000000E-1
Scans to average: 1
Nonlinearity correction enabled: false
Boxcar width: 0
Storing dark spectrum: false
XAxis mode: Wavelengths
Number of Pixels in Spectrum: 1024
>>>>>Begin Spectral Data<<<<<
801.071	27987
801.214	27861
801.356	27587
801.499	27629
801.641	27553
801.783	27450
801.926	27538
802.068	27405
802.211	27439
802.353	27340
802.496	27116
802.638	27321
802.78	27146
802.923	27142
803.065	27112
803.208	27192
803.35	27192
803.492	27264
803.635	27355
803.777	27203
803.919	27447
804.061	27720
804.204	27511
804.346	27340
804.488	27424
804.63	27344
804.773	27245
804.915	27427
805.057	27405
805.199	27431
805.341	27583
805.483	27534
805.626	27473
805.768	27458
805.91	27496
806.052	27477
806.194	27561
806.336	27682
806.478	27488
806.62	27481
806.762	27507
806.904	27770
807.046	27968
807.188	27937
807.33	27819
807.472	27979
807.614	27850
807.756	27854
807.898	27816
808.04	27709
808.182	27724
808.324	27895
808.465	27907
808.607	28070
808.749	28162
808.891	28169
809.033	28325
809.174	28207
809.316	28295
809.458	28120
809.6	28139
809.741	28200
809.883	28367
810.025	28466
810.166	28341
810.308	28470
810.45	28360
810.591	28280
810.733	28150
810.875	28051
811.016	28112
811.158	28086
811.299	28211
811.441	28291
811.582	28303
811.724	28070
811.865	28070
812.007	28230
812.148	28074
812.29	28238
812.431	28322
812.573	28523
812.714	28485
812.855	28744
812.997	28649
813.138	28915
813.279	28809
813.421	28812
813.562	28615
813.703	28352
813.845	28352
813.986	28158
814.127	27907
814.268	27766
814.41	27899
814.551	27804
814.692	27918
814.833	27762
814.974	27899
815.115	27850
815.256	27709
815.397	27728
815.539	27675
815.68	27629
815.821	27587
815.962	27595
816.103	27587
816.244	27523
816.385	27302
816.526	27405
816.666	27195
816.807	27165
816.948	27192
817.089	27359
817.23	27146
817.371	27157
817.512	27077
817.653	26960
817.793	26952
817.934	27112
818.075	27058
818.216	27176
818.356	27180
818.497	27058
818.638	26743
818.778	26906
818.919	26807
819.06	26940
819.2	26940
819.341	27074
819.481	27085
819.622	27313
819.762	27458
819.903	27355
820.043	27226
820.184	27313
820.324	27176
820.465	27348
820.605	27207
820.746	27260
820.886	27169
821.026	27051
821.167	27279
821.307	27287
821.447	27043
821.588	27062
821.728	26857
821.868	26823
822.008	26571
822.149	26579
822.289	26575
822.429	26374
822.569	26282
822.709	26374
822.849	26081
822.99	26191
823.13	26039
823.27	26054
823.41	25902
823.55	25811
823.69	25868
823.83	25890
823.97	25947
824.11	25734
824.25	25791
824.389	25693
824.529	25791
824.669	25791
824.809	25807
824.949	25830
825.089	25818
825.228	25784
825.368	25582
825.508	25567
825.648	25635
825.787	25670
825.927	25651
826.067	25441
826.206	25590
826.346	25639
826.485	25613
826.625	25590
826.765	25685
826.904	25620
827.044	25392
827.183	25346
827.323	25259
827.462	25335
827.601	25263
827.741	25240
827.88	25339
828.02	25266
828.159	25266
828.298	25324
828.437	25297
828.577	25175
828.716	25403
828.855	25259
828.994	25072
829.134	24992
829.273	25088
829.412	24954
829.551	25012
829.69	24928
829.829	24920
829.968	25038
830.107	25050
830.246	24970
830.385	24966
830.524	25004
830.663	24814
830.802	24745
830.941	24604
831.08	24669
831.219	24730
831.357	24635
831.496	24825
831.635	24631
831.774	24540
831.913	24517
832.051	24395
832.19	24330
832.329	24513
832.467	24323
832.606	24243
832.744	24266
832.883	24330
833.022	24395
833.16	24289
833.299	24350
833.437	24353
833.576	24342
833.714	24334
833.852	24384
833.991	24471
834.129	24319
834.267	24441
834.406	24395
834.544	24467
834.682	24407
834.821	24315
834.959	24479
835.097	24266
835.235	24372
835.373	24388
835.511	24357
835.65	24216
835.788	24106
835.926	24064
836.064	23946
836.202	23984
836.34	24205
836.478	24194
836.615	24121
836.753	24159
836.891	24136
837.029	24289
837.167	24018
837.305	24053
837.443	24064
837.58	23999
837.718	24079
837.856	24034
837.993	24018
838.131	24072
838.269	23798
838.406	23912
838.544	23847
838.681	23684
838.819	23672
838.956	23512
839.094	23528
839.231	23486
839.369	23786
839.506	23927
839.643	23596
839.781	23402
839.918	23493
840.055	23497
840.193	23448
840.33	23436
840.467	23467
840.604	23421
840.742	23642
840.879	23330
841.016	23288
841.153	23246
841.29	23600
841.427	23364
841.564	23471
841.701	23341
841.838	23273
841.975	23334
842.112	23284
842.249	23155
842.385	23079
842.522	23356
842.659	23239
842.796	22957
842.933	23147
843.069	23033
843.206	23132
843.343	23254
843.479	23155
843.616	23185
843.752	23029
843.889	22904
844.025	22995
844.162	22793
844.298	22968
844.435	22930
844.571	22904
844.708	22919
844.844	23003
844.98	23064
845.117	22949
845.253	22953
845.389	22824
845.525	22862
845.661	22755
845.798	22603
845.934	22694
846.07	22527
846.206	22694
846.342	22744
846.478	22615
846.614	22409
846.75	22299
846.886	22462
847.022	22535
847.158	22493
847.294	22436
847.429	22493
847.565	22409
847.701	22637
847.837	22135
847.972	22242
848.108	22207
848.244	22268
848.379	22093
848.515	21987
848.65	22063
848.786	21968
848.921	21960
849.057	22109
849.192	21987
849.328	22036
849.463	21926
849.598	21941
849.734	21934
849.869	21759
850.004	21629
850.14	21808
850.275	21785
850.41	21663
850.545	21781
850.68	21652
850.815	21747
850.95	21770
851.085	21895
851.22	21766
851.355	21675
851.49	21759
851.625	21606
851.76	21629
851.895	21720
852.03	21652
852.165	21675
852.299	21751
852.434	21793
852.569	21755
852.703	21701
852.838	21926
852.973	21876
853.107	21797
853.242	21576
853.376	21739
853.511	21462
853.645	21538
853.78	21622
853.914	21466
854.048	21534
854.183	21618
854.317	21572
854.451	21732
854.585	21583
854.72	21686
854.854	21625
854.988	21496
855.122	21622
855.256	21393
855.39	21644
855.524	21675
855.658	21705
855.792	21507
855.926	21667
856.06	21641
856.194	21705
856.327	21530
856.461	21534
856.595	21393
856.729	21561
856.862	21622
856.996	21587
857.13	21633
857.263	21557
857.397	21595
857.53	21587
857.664	21606
857.797	21705
857.931	21663
858.064	21580
858.197	21599
858.331	21515
858.464	21545
858.597	21397
858.731	21625
858.864	21454
858.997	21511
859.13	21549
859.263	21603
859.396	21603
859.529	21564
859.662	21488
859.795	21603
859.928	21504
860.061	21682
860.194	21797
860.327	21564
860.46	21606
860.592	21492
860.725	21732
860.858	21766
860.99	21603
861.123	21382
861.256	21496
861.388	21633
861.521	22204
861.653	21378
861.786	21306
861.918	21439
862.05	21370
862.183	21447
862.315	21523
862.447	21606
862.58	21557
862.712	21275
862.844	21199
862.976	21355
863.108	21348
863.24	21667
863.372	21226
863.504	21313
863.636	21351
863.768	21298
863.9	21332
864.032	21100
864.164	21207
864.296	21195
864.428	21325
864.559	21359
864.691	21283
864.823	21203
864.954	21226
865.086	21138
865.217	21154
865.349	21108
865.48	21112
865.612	21195
865.743	21397
865.875	21138
866.006	21188
866.137	21226
866.269	21203
866.4	21157
866.531	21039
866.662	21009
866.793	21020
866.924	21085
867.055	21180
867.186	21100
867.317	21036
867.448	20941
867.579	21005
867.71	21009
867.841	20994
867.972	20891
868.103	21112
868.233	21112
868.364	21089
868.495	21222
868.625	21370
868.756	21469
868.886	21268
869.017	21367
869.147	21466
869.278	21488
869.408	21374
869.539	21264
869.669	21348
869.799	21370
869.929	21378
870.06	21431
870.19	21660
870.32	21641
870.45	21644
870.58	21610
870.71	21759
870.84	21876
870.97	21690
871.1	21671
871.23	21846
871.36	21975
871.489	21812
871.619	21979
871.749	21838
871.879	21934
872.008	21945
872.138	22006
872.267	21857
872.397	21793
872.526	21648
872.656	21804
872.785	21743
872.915	21926
873.044	21972
873.173	21937
873.303	21892
873.432	21972
873.561	22010
873.69	21968
873.819	21903
873.948	22021
874.077	22040
874.206	21964
874.335	21922
874.464	22067
874.593	22124
874.722	22181
874.851	22158
874.979	22169
875.108	22192
875.237	22150
875.365	22078
875.494	22173
875.623	22325
875.751	22032
875.88	22135
876.008	22303
876.136	22402
876.265	22622
876.393	22649
876.521	22622
876.65	22634
876.778	22565
876.906	22557
877.034	22500
877.162	22451
877.29	22428
877.418	22599
877.546	22577
877.674	22542
877.802	22626
877.93	22618
878.058	22478
878.185	22474
878.313	22379
878.441	22557
878.568	22322
878.696	22478
878.824	22436
878.951	22603
879.079	22618
879.206	22809
879.333	22603
879.461	22523
879.588	22691
879.715	22645
879.842	22790
879.97	22531
880.097	22352
880.224	22257
880.351	22337
880.478	22318
880.605	22276
880.732	22215
880.859	22512
880.986	22329
881.112	22268
881.239	22173
881.366	21998
881.493	22021
881.619	21983
881.746	22063
881.872	21991
881.999	21915
882.125	21846
882.252	21956
882.378	21873
882.505	21949
882.631	21713
882.757	21625
882.883	21690
883.01	21686
883.136	21538
883.262	21454
883.388	21496
883.514	21583
883.64	21644
883.766	21488
883.892	21367
884.018	21310
884.143	21572
884.269	21568
884.395	21374
884.52	21233
884.646	21355
884.772	21298
884.897	21203
885.023	21165
885.148	21325
885.274	21340
885.399	21378
885.524	21207
885.65	21199
885.775	21203
885.9	21252
886.025	21218
886.15	21310
886.275	21188
886.4	21028
886.525	21055
886.65	21108
886.775	21138
886.9	21355
887.025	21481
887.149	21173
887.274	21017
887.399	21013
887.523	21032
887.648	21009
887.773	21009
887.897	21100
888.021	20994
888.146	20899
888.27	21017
888.395	21005
888.519	21055
888.643	20986
888.767	21081
888.891	20864
889.015	20746
889.139	20883
889.263	20670
889.387	20834
889.511	21100
889.635	21005
889.759	20731
889.883	20636
890.006	20830
890.13	20872
890.254	20754
890.377	20746
890.501	20541
890.624	20526
890.748	20636
890.871	20442
890.995	20214
891.118	20301
891.241	20469
891.364	20480
891.488	20503
891.611	20339
891.734	20381
891.857	20389
891.98	20476
892.103	20476
892.226	20381
892.349	20244
892.471	20122
892.594	20271
892.717	20252
892.839	20229
892.962	20282
893.085	20351
893.207	20248
893.33	20138
893.452	20168
893.575	20202
893.697	20191
893.819	20396
893.941	20568
894.064	20461
894.186	20374
894.308	20092
894.43	20286
894.552	20389
894.674	20336
894.796	20229
894.918	20191
895.04	20244
895.161	20256
895.283	20256
895.405	20164
895.526	20191
895.648	20221
895.769	20252
895.891	20305
896.012	20377
896.134	20309
896.255	20214
896.376	20180
896.498	20332
896.619	20252
896.74	20263
896.861	20294
896.982	20636
897.103	20663
897.224	20393
897.345	20537
897.466	20434
897.587	20560
897.708	20648
897.828	20480
897.949	20408
898.07	20263
898.19	20313
898.311	20484
898.431	20404
898.552	20499
898.672	20442
898.792	20526
898.913	20507
899.033	20328
899.153	20298
899.273	20149
899.393	20233
899.513	20168
899.633	20332
899.753	20278
899.873	20218
899.993	20206
900.113	20206
900.232	20092
900.352	20145
900.472	20012
900.591	19986
900.711	20016
900.83	19928
900.95	20027
901.069	20054
901.189	19921
901.308	19605
901.427	19575
901.546	19506
901.665	19552
901.784	19529
901.904	19445
902.023	19369
902.141	19118
902.26	19221
902.379	19118
902.498	19137
902.617	18981
902.735	19156
902.854	19126
902.973	18996
903.091	18863
903.21	18810
903.328	18817
903.446	18661
903.565	18536
903.683	18635
903.801	18479
903.919	18559
904.038	18509
904.156	18399
904.274	18410
904.392	18281
904.51	18277
904.627	18292
904.745	18464
904.863	18365
904.981	18098
905.098	17980
905.216	18019
905.334	17954
905.451	17866
905.569	18011
905.686	18030
905.803	18007
905.921	17718
906.038	17927
906.155	17843
906.272	17691
906.389	17707
906.506	17490
906.623	17528
906.74	17710
906.857	17573
906.974	17448
907.091	17425
907.208	17634
907.324	17558
907.441	17337
907.557	17311
907.674	17315
907.79	17151
907.907	17242
908.023	17345
908.139	17193
908.256	17212
908.372	17143
908.488	17132
908.604	16938
908.72	16892
908.836	16976
908.952	16835
909.068	16980
909.184	17075
909.3	16976
909.415	16911
909.531	16934
909.647	16603
909.762	16660
909.878	16748
909.993	16672
910.108	16698
910.224	16618
910.339	16626
910.454	16550
910.57	16459
910.685	16394
910.8	16748
910.915	16519
911.03	16489
911.145	16249
911.259	16257
911.374	16322
911.489	16139
911.604	16135
911.718	16010
911.833	16036
911.947	15854
912.062	15812
912.176	16010
912.291	15972
912.405	15918
912.519	16128
912.633	16150
912.748	15979
912.862	15998
912.976	15911
913.09	15614
913.204	15842
913.318	15827
913.431	15937
913.545	15964
913.659	15964
913.772	15747
913.886	15648
914	15656
914.113	15736
914.226	15873
914.34	15732
914.453	15504
914.566	15667
914.68	15515
914.793	15450
914.906	15355
915.019	15123
915.132	15165
915.245	15154
915.358	15226
915.47	15211
915.583	15233
915.696	15192
915.809	15363
915.921	15279
916.034	15211
916.146	15123
916.259	15169
916.371	15169
916.483	15135
916.595	15097
916.708	15097
916.82	15112
916.932	15043
917.044	15039
917.156	14891
917.268	14788
917.38	14895
917.491	14876
917.603	14895
917.715	14857
917.826	14948
917.938	14906
918.049	14735
918.161	14773
918.272	14819
918.384	14868
918.495	14842
918.606	14743
918.717	14598
918.828	14659
918.939	14590
919.05	14552
919.161	14716
919.272	14393
919.383	14488
919.494	14621
919.604	14830
919.715	14712
919.826	14503
919.936	14495
920.047	14636
920.157	14545
920.267	14804
920.378	14533
920.488	14518
920.598	14853
920.708	14842
920.818	14807
920.928	14674
921.038	14929
921.148	14777
921.258	14549
921.368	14419
921.477	14419
921.587	14324
921.697	14218
921.806	14286
921.916	14180
922.025	13970
922.134	13936
922.244	13845
922.353	14027
922.462	13772
922.571	13746
922.68	13677
922.789	13616
922.898	13658
923.007	13495
923.116	13594
923.224	13525
923.333	13620
923.442	13491
923.55	13373
923.659	13464
923.767	13483
923.876	13324
923.984	13483
924.092	13400
924.201	13426
924.309	13388
924.417	13312
924.525	13282
924.633	13232
924.741	14012
924.849	13129
924.956	13194
925.064	13038
925.172	13057
925.279	13027
925.387	13107
925.494	13091
925.602	13122
925.709	13004
925.816	12852
925.924	12935
926.031	13084
926.138	12939
926.245	12939
926.352	12916
926.459	12973
926.566	12928
926.673	12928
926.779	12719
926.886	12848
926.993	12616
927.099	12582
927.206	12536
927.312	12544
927.419	12608
927.525	12551
927.631	12578
927.737	12467
927.843	12475
927.95	12403
928.056	12334
928.162	12429
928.267	12456
928.373	13080
928.479	12585
928.585	12216
928.69	12414
928.796	12410
928.901	12323
929.007	12155
929.112	12232
929.218	12243
929.323	12098
929.428	12152
929.533	12220
929.638	11954
929.743	12026
929.848	12091
929.953	11999
930.058	11882
930.163	11756
930.267	11828
930.372	11950
930.477	11775
930.581	11988
930.685	11847
930.79	11703
930.894	11676
930.998	11668
931.103	11802
931.207	11421
931.311	11337
931.415	11212
931.519	11075
931.623	11083
