Data from test_V78500241_543.txt Node
Date: Fri Mar 25 15:13:38 CST 2022
User: usil
Spectrometer: V785-0024
Trigger mode: 0
Integration Time (sec): 4.000000E-1
Scans to average: 1
Nonlinearity correction enabled: false
Boxcar width: 0
Storing dark spectrum: false
XAxis mode: Wavelengths
Number of Pixels in Spectrum: 1024
>>>>>Begin Spectral Data<<<<<
801.071	27272
801.214	27123
801.356	26864
801.499	26857
801.641	26807
801.783	26864
801.926	26880
802.068	26811
802.211	26644
802.353	26549
802.496	26427
802.638	26450
802.78	26469
802.923	26423
803.065	26381
803.208	26396
803.35	26495
803.492	26590
803.635	26579
803.777	26541
803.919	26617
804.061	26937
804.204	26488
804.346	26537
804.488	26492
804.63	26514
804.773	26404
804.915	26636
805.057	26655
805.199	26598
805.341	26678
805.483	26682
805.626	26686
805.768	26617
805.91	26667
806.052	26705
806.194	26499
806.336	26800
806.478	26697
806.62	26636
806.762	26807
806.904	26929
807.046	27291
807.188	27180
807.33	27089
807.472	27108
807.614	27020
807.756	27116
807.898	26982
808.04	26853
808.182	26876
808.324	26933
808.465	26910
808.607	27146
808.749	27310
808.891	27397
809.033	27485
809.174	27359
809.316	27233
809.458	27264
809.6	27214
809.741	27378
809.883	27420
810.025	27416
810.166	27496
810.308	27496
810.45	27564
810.591	27583
810.733	27348
810.875	27287
811.016	27154
811.158	27135
811.299	27382
811.441	27500
811.582	27477
811.724	27252
811.865	27199
812.007	27363
812.148	27302
812.29	27218
812.431	27382
812.573	27511
812.714	27652
812.855	27747
812.997	27899
813.138	28070
813.279	27953
813.421	27911
813.562	27800
813.703	27675
813.845	27686
813.986	27096
814.127	27154
814.268	26887
814.41	27047
814.551	26960
814.692	26998
814.833	26994
814.974	26990
815.115	26963
815.256	26739
815.397	26845
815.539	27036
815.68	26716
815.821	26705
815.962	26777
816.103	26644
816.244	26609
816.385	26446
816.526	26541
816.666	26286
816.807	26252
816.948	26309
817.089	26473
817.23	26244
817.371	26275
817.512	26271
817.653	26134
817.793	26221
817.934	26199
818.075	26278
818.216	26309
818.356	26282
818.497	26176
818.638	25890
818.778	25986
818.919	26149
819.06	25993
819.2	26134
819.341	26206
819.481	26195
819.622	26336
819.762	26533
819.903	26457
820.043	26461
820.184	26358
820.324	26339
820.465	26320
820.605	26248
820.746	26202
820.886	26039
821.026	26309
821.167	26309
821.307	26434
821.447	26259
821.588	26199
821.728	26062
821.868	25765
822.008	25769
822.149	25727
822.289	25639
822.429	25445
822.569	25411
822.709	25346
822.849	25217
822.99	25259
823.13	25274
823.27	25247
823.41	25183
823.55	24852
823.69	25095
823.83	25091
823.97	25046
824.11	24753
824.25	24958
824.389	24817
824.529	24977
824.669	24722
824.809	24935
824.949	24954
825.089	24928
825.228	24913
825.368	24745
825.508	24711
825.648	24749
825.787	24760
825.927	24844
826.067	24703
826.206	24715
826.346	24768
826.485	24688
826.625	24810
826.765	24875
826.904	24734
827.044	24532
827.183	24460
827.323	24372
827.462	24559
827.601	24521
827.741	24395
827.88	24414
828.02	24254
828.159	24414
828.298	24407
828.437	24479
828.577	24391
828.716	24498
828.855	24395
828.994	24129
829.134	24098
829.273	24205
829.412	24079
829.551	24190
829.69	24209
829.829	24057
829.968	24353
830.107	24292
830.246	24327
830.385	24091
830.524	23988
830.663	24076
830.802	23988
830.941	23745
831.08	23695
831.219	23897
831.357	23783
831.496	23969
831.635	23764
831.774	23710
831.913	23684
832.051	23566
832.19	23509
832.329	23726
832.467	23452
832.606	23356
832.744	23376
832.883	23463
833.022	23398
833.16	23486
833.299	23520
833.437	23554
833.576	23600
833.714	23467
833.852	23710
833.991	23619
834.129	23627
834.267	23604
834.406	23539
834.544	23436
834.682	23452
834.821	23535
834.959	23729
835.097	23634
835.235	23585
835.373	23501
835.511	23512
835.65	23402
835.788	23398
835.926	23223
836.064	23090
836.202	23075
836.34	23372
836.478	23497
836.615	23250
836.753	23379
836.891	23512
837.029	23349
837.167	23143
837.305	23330
837.443	23311
837.58	23124
837.718	23326
837.856	23143
837.993	23052
838.131	23143
838.269	23124
838.406	23056
838.544	22991
838.681	22885
838.819	22805
838.956	22721
839.094	22630
839.231	22645
839.369	22759
839.506	23109
839.643	22949
839.781	22615
839.918	22485
840.055	22618
840.193	22653
840.33	22656
840.467	22641
840.604	22767
840.742	22919
840.879	22474
841.016	22512
841.153	22497
841.29	22687
841.427	22554
841.564	22607
841.701	22664
841.838	22569
841.975	22542
842.112	22546
842.249	22344
842.385	22261
842.522	22668
842.659	22459
842.796	22379
842.933	22344
843.069	22261
843.206	22287
843.343	22421
843.479	22432
843.616	22398
843.752	22291
843.889	22215
844.025	22238
844.162	22101
844.298	22265
844.435	22116
844.571	22097
844.708	22230
844.844	22459
844.98	22234
845.117	22207
845.253	22147
845.389	22002
845.525	22055
845.661	21922
845.798	21857
845.934	21926
846.07	21899
846.206	21975
846.342	21941
846.478	21915
846.614	21762
846.75	21576
846.886	21606
847.022	21629
847.158	21625
847.294	21656
847.429	21766
847.565	21660
847.701	21873
847.837	21325
847.972	21367
848.108	21397
848.244	21515
848.379	21199
848.515	21169
848.65	21081
848.786	21241
848.921	21237
849.057	21351
849.192	21272
849.328	21359
849.463	21283
849.598	21226
849.734	21237
849.869	21096
850.004	21066
850.14	21055
850.275	20998
850.41	20887
850.545	20876
850.68	20921
850.815	20986
850.95	21028
851.085	21180
851.22	21058
851.355	20994
851.49	20937
851.625	21165
851.76	20952
851.895	20861
852.03	20804
852.165	20948
852.299	21047
852.434	21055
852.569	20952
852.703	20883
852.838	20880
852.973	21093
853.107	21047
853.242	21039
853.376	20785
853.511	20746
853.645	20826
853.78	20906
853.914	20800
854.048	20727
854.183	20746
854.317	20792
854.451	20762
854.585	20902
854.72	20838
854.854	20956
854.988	20743
855.122	20701
855.256	20625
855.39	20773
855.524	20864
855.658	20906
855.792	20853
855.926	20830
856.06	20918
856.194	20948
856.327	20727
856.461	20834
856.595	20785
856.729	20830
856.862	20906
856.996	20861
857.13	20910
857.263	20929
857.397	20819
857.53	20823
857.664	20754
857.797	20762
857.931	20902
858.064	20872
858.197	20979
858.331	20800
858.464	20910
858.597	20632
858.731	20792
858.864	20796
858.997	20712
859.13	20914
859.263	20842
859.396	20944
859.529	20727
859.662	20769
859.795	20804
859.928	20834
860.061	20921
860.194	20918
860.327	20853
860.46	20899
860.592	20925
860.725	20994
860.858	20929
860.99	20902
861.123	20785
861.256	20682
861.388	20830
861.521	21382
861.653	20697
861.786	20617
861.918	20693
862.05	20617
862.183	20670
862.315	20739
862.447	20712
862.58	20739
862.712	20431
862.844	20533
862.976	20674
863.108	20571
863.24	20895
863.372	20419
863.504	20511
863.636	20389
863.768	20556
863.9	20537
864.032	20423
864.164	20419
864.296	20499
864.428	20537
864.559	20571
864.691	20697
864.823	20590
864.954	20446
865.086	20556
865.217	20305
865.349	20389
865.48	20465
865.612	20442
865.743	20545
865.875	20473
866.006	20267
866.137	20465
866.269	20412
866.4	20480
866.531	20457
866.662	20214
866.793	20358
866.924	20385
867.055	20275
867.186	20381
867.317	20404
867.448	20259
867.579	20339
867.71	20309
867.841	20343
867.972	20362
868.103	20351
868.233	20305
868.364	20336
868.495	20492
868.625	20583
868.756	20705
868.886	20590
869.017	20644
869.147	20807
869.278	20708
869.408	20651
869.539	20609
869.669	20609
869.799	20609
869.929	20720
870.06	20743
870.19	20906
870.32	20895
870.45	20975
870.58	20918
870.71	21112
870.84	21047
870.97	20960
871.1	21043
871.23	21226
871.36	21104
871.489	21108
871.619	21123
871.749	21089
871.879	21199
872.008	21203
872.138	21161
872.267	21146
872.397	21039
872.526	20960
872.656	21104
872.785	21017
872.915	21237
873.044	21298
873.173	21249
873.303	21283
873.432	21237
873.561	21268
873.69	21188
873.819	21195
873.948	21260
874.077	21230
874.206	21165
874.335	21207
874.464	21367
874.593	21538
874.722	21401
874.851	21378
874.979	21545
875.108	21515
875.237	21496
875.365	21435
875.494	21523
875.623	21553
875.751	21515
875.88	21363
876.008	21534
876.136	21625
876.265	21846
876.393	21945
876.521	22017
876.65	21819
876.778	21770
876.906	21846
877.034	21698
877.162	21747
877.29	21728
877.418	21743
877.546	21861
877.674	21835
877.802	21888
877.93	21770
878.058	21747
878.185	21819
878.313	21675
878.441	21694
878.568	21610
878.696	21717
878.824	21797
878.951	21827
879.079	21994
879.206	22101
879.333	21975
879.461	21846
879.588	21941
879.715	21941
879.842	22120
879.97	21854
880.097	21762
880.224	21523
880.351	21568
880.478	21682
880.605	21629
880.732	21587
880.859	21934
880.986	21583
881.112	21637
881.239	21595
881.366	21283
881.493	21211
881.619	21252
881.746	21176
881.872	21218
881.999	21127
882.125	21081
882.252	21180
882.378	21226
882.505	21294
882.631	21100
882.757	20826
882.883	21047
883.01	20769
883.136	20899
883.262	20823
883.388	20804
883.514	20823
883.64	20910
883.766	20910
883.892	20754
884.018	20678
884.143	20823
884.269	20902
884.395	20663
884.52	20560
884.646	20522
884.772	20514
884.897	20400
885.023	20602
885.148	20746
885.274	20644
885.399	20746
885.524	20590
885.65	20644
885.775	20537
885.9	20583
886.025	20625
886.15	20743
886.275	20568
886.4	20377
886.525	20533
886.65	20423
886.775	20465
886.9	20609
887.025	20746
887.149	20419
887.274	20476
887.399	20415
887.523	20362
887.648	20195
887.773	20294
887.897	20457
888.021	20476
888.146	20294
888.27	20454
888.395	20473
888.519	20431
888.643	20267
888.767	20469
888.891	20271
889.015	20244
889.139	20054
889.263	20145
889.387	20320
889.511	20275
889.635	20195
889.759	20115
889.883	20176
890.006	20050
890.13	20317
890.254	20103
890.377	19978
890.501	19898
890.624	19947
890.748	19841
890.871	19753
890.995	19693
891.118	19696
891.241	19723
891.364	19719
891.488	19734
891.611	19799
891.734	19731
891.857	19769
891.98	19750
892.103	19757
892.226	19723
892.349	19689
892.471	19521
892.594	19696
892.717	19666
892.839	19582
892.962	19685
893.085	19597
893.207	19594
893.33	19457
893.452	19594
893.575	19719
893.697	19552
893.819	19769
893.941	19852
894.064	19864
894.186	19518
894.308	19472
894.43	19723
894.552	19757
894.674	19693
894.796	19567
894.918	19571
895.04	19590
895.161	19681
895.283	19556
895.405	19540
895.526	19628
895.648	19651
895.769	19647
895.891	19632
896.012	19719
896.134	19750
896.255	19727
896.376	19548
896.498	19597
896.619	19597
896.74	19685
896.861	19772
896.982	19932
897.103	20046
897.224	19879
897.345	19913
897.466	19750
897.587	19753
897.708	20016
897.828	19799
897.949	19742
898.07	19761
898.19	19830
898.311	19913
898.431	19856
898.552	19830
898.672	19986
898.792	20005
898.913	19967
899.033	19791
899.153	19616
899.273	19632
899.393	19609
899.513	19674
899.633	19575
899.753	19693
899.873	19559
899.993	19616
900.113	19628
900.232	19624
900.352	19491
900.472	19495
900.591	19301
900.711	19510
900.83	19301
900.95	19540
901.069	19502
901.189	19217
901.308	19099
901.427	18779
901.546	18913
901.665	18981
901.784	18859
901.904	18757
902.023	18696
902.141	18604
902.26	18540
902.379	18589
902.498	18441
902.617	18429
902.735	18486
902.854	18395
902.973	18399
903.091	18239
903.21	18205
903.328	18186
903.446	18171
903.565	17961
903.683	17999
903.801	17843
903.919	17912
904.038	17969
904.156	17817
904.274	17824
904.392	17813
904.51	17767
904.627	17790
904.745	17767
904.863	17805
904.981	17615
905.098	17402
905.216	17455
905.334	17467
905.451	17516
905.569	17345
905.686	17463
905.803	17455
905.921	17280
906.038	17315
906.155	17235
906.272	17128
906.389	17174
906.506	16995
906.623	17075
906.74	17006
906.857	16797
906.974	16919
907.091	17052
907.208	17162
907.324	17113
907.441	16961
907.557	16710
907.674	16691
907.79	16622
907.907	16748
908.023	16706
908.139	16706
908.256	16611
908.372	16569
908.488	16527
908.604	16497
908.72	16516
908.836	16451
908.952	16447
909.068	16508
909.184	16535
909.3	16379
909.415	16459
909.531	16417
909.647	16181
909.762	16093
909.878	16188
909.993	16147
910.108	16112
910.224	16082
910.339	16101
910.454	15960
910.57	16101
910.685	15819
910.8	16158
910.915	16154
911.03	15895
911.145	15876
911.259	15819
911.374	15808
911.489	15644
911.604	15625
911.718	15469
911.833	15568
911.947	15283
912.062	15363
912.176	15424
912.291	15374
912.405	15477
912.519	15751
912.633	15633
912.748	15492
912.862	15485
912.976	15264
913.09	15192
913.204	15302
913.318	15348
913.431	15363
913.545	15321
913.659	15291
913.772	15180
913.886	15112
914	15218
914.113	15313
914.226	15207
914.34	15161
914.453	14914
914.566	15203
914.68	14994
914.793	14963
914.906	14788
915.019	14693
915.132	14697
915.245	14720
915.358	14811
915.47	14800
915.583	14705
915.696	14705
915.809	14895
915.921	14758
916.034	14674
916.146	14621
916.259	14606
916.371	14788
916.483	14739
916.595	14583
916.708	14545
916.82	14583
916.932	14507
917.044	14560
917.156	14522
917.268	14370
917.38	14492
917.491	14328
917.603	14446
917.715	14377
917.826	14404
917.938	14400
918.049	14237
918.161	14370
918.272	14533
918.384	14461
918.495	14408
918.606	14294
918.717	14111
918.828	14256
918.939	14119
919.05	14161
919.161	14183
919.272	13955
919.383	14092
919.494	14180
919.604	14400
919.715	14187
919.826	14103
919.936	14119
920.047	14248
920.157	14088
920.267	14233
920.378	14161
920.488	14077
920.598	14301
920.708	14434
920.818	14225
920.928	14339
921.038	14396
921.148	14294
921.258	14084
921.368	14005
921.477	13909
921.587	13959
921.697	13753
921.806	13947
921.916	13696
922.025	13476
922.134	13506
922.244	13506
922.353	13636
922.462	13369
922.571	13331
922.68	13259
922.789	13103
922.898	13194
923.007	13057
923.116	13171
923.224	13164
923.333	13149
923.442	13042
923.55	12970
923.659	12981
923.767	13023
923.876	12958
923.984	13084
924.092	12840
924.201	12989
924.309	12947
924.417	12970
924.525	12791
924.633	12821
924.741	13708
924.849	12654
924.956	12810
925.064	12681
925.172	12646
925.279	12639
925.387	12760
925.494	12597
925.602	12719
925.709	12608
925.816	12498
925.924	12498
926.031	12547
926.138	12456
926.245	12616
926.352	12448
926.459	12544
926.566	12627
926.673	12445
926.779	12311
926.886	12369
926.993	12201
927.099	12228
927.206	12121
927.312	12171
927.419	12201
927.525	12163
927.631	12251
927.737	12060
927.843	12110
927.95	11931
928.056	11977
928.162	12117
928.267	12121
928.373	12498
928.479	12095
928.585	11889
928.69	11973
928.796	11984
928.901	11897
929.007	11691
929.112	11863
929.218	11901
929.323	11764
929.428	11745
929.533	11897
929.638	11619
929.743	11657
929.848	11859
929.953	11714
930.058	11627
930.163	11433
930.267	11490
930.372	11566
930.477	11474
930.581	11573
930.685	11497
930.79	11311
930.894	11379
930.998	11318
931.103	11452
931.207	11117
931.311	11067
931.415	10965
931.519	10649
931.623	10675
