Data from test_V78500241_3088.txt Node
Date: Fri Mar 25 15:31:21 CST 2022
User: usil
Spectrometer: V785-0024
Trigger mode: 0
Integration Time (sec): 4.000000E-1
Scans to average: 1
Nonlinearity correction enabled: false
Boxcar width: 0
Storing dark spectrum: false
XAxis mode: Wavelengths
Number of Pixels in Spectrum: 1024
>>>>>Begin Spectral Data<<<<<
801.071	27230
801.214	27214
801.356	26982
801.499	26994
801.641	26857
801.783	26845
801.926	26906
802.068	26815
802.211	26762
802.353	26674
802.496	26545
802.638	26434
802.78	26374
802.923	26305
803.065	26294
803.208	26252
803.35	26514
803.492	26648
803.635	26670
803.777	26480
803.919	26571
804.061	26956
804.204	26621
804.346	26575
804.488	26533
804.63	26667
804.773	26499
804.915	26659
805.057	26758
805.199	26511
805.341	26651
805.483	26830
805.626	26606
805.768	26682
805.91	26731
806.052	26880
806.194	26708
806.336	26838
806.478	26750
806.62	26678
806.762	26804
806.904	26952
807.046	27317
807.188	27135
807.33	27173
807.472	27291
807.614	27017
807.756	27173
807.898	26967
808.04	26861
808.182	27032
808.324	27058
808.465	26918
808.607	27203
808.749	27443
808.891	27355
809.033	27443
809.174	27397
809.316	27397
809.458	27348
809.6	27249
809.741	27359
809.883	27488
810.025	27549
810.166	27644
810.308	27557
810.45	27420
810.591	27663
810.733	27370
810.875	27348
811.016	27226
811.158	27233
811.299	27427
811.441	27500
811.582	27439
811.724	27405
811.865	27294
812.007	27344
812.148	27306
812.29	27241
812.431	27447
812.573	27591
812.714	27785
812.855	27812
812.997	27975
813.138	27987
813.279	27941
813.421	27739
813.562	27854
813.703	27625
813.845	27485
813.986	27100
814.127	27165
814.268	26994
814.41	26940
814.551	26975
814.692	27112
814.833	26861
814.974	26834
815.115	26887
815.256	26857
815.397	26792
815.539	26948
815.68	26773
815.821	26712
815.962	26800
816.103	26667
816.244	26674
816.385	26522
816.526	26617
816.666	26332
816.807	26282
816.948	26275
817.089	26602
817.23	26244
817.371	26107
817.512	26275
817.653	26221
817.793	26168
817.934	26271
818.075	26317
818.216	26210
818.356	26210
818.497	26164
818.638	25986
818.778	25970
818.919	26024
819.06	26202
819.2	26081
819.341	26221
819.481	26237
819.622	26320
819.762	26484
819.903	26484
820.043	26385
820.184	26317
820.324	26358
820.465	26339
820.605	26275
820.746	26233
820.886	26214
821.026	26275
821.167	26210
821.307	26317
821.447	26237
821.588	26210
821.728	25928
821.868	25898
822.008	25750
822.149	25632
822.289	25681
822.429	25616
822.569	25384
822.709	25445
822.849	25152
822.99	25175
823.13	25088
823.27	25179
823.41	24954
823.55	25008
823.69	25141
823.83	25118
823.97	24970
824.11	24817
824.25	24913
824.389	24802
824.529	24935
824.669	24894
824.809	24867
824.949	24871
825.089	24802
825.228	24833
825.368	24669
825.508	24749
825.648	24570
825.787	24745
825.927	24719
826.067	24677
826.206	24604
826.346	24798
826.485	24802
826.625	24749
826.765	24764
826.904	24582
827.044	24544
827.183	24604
827.323	24437
827.462	24403
827.601	24426
827.741	24388
827.88	24353
828.02	24266
828.159	24357
828.298	24437
828.437	24422
828.577	24361
828.716	24551
828.855	24266
828.994	24197
829.134	24133
829.273	24159
829.412	24045
829.551	24087
829.69	24144
829.829	24091
829.968	24205
830.107	24235
830.246	24155
830.385	24045
830.524	24011
830.663	24060
830.802	23817
830.941	23646
831.08	23680
831.219	23851
831.357	23695
831.496	23878
831.635	23843
831.774	23589
831.913	23661
832.051	23524
832.19	23455
832.329	23436
832.467	23482
832.606	23273
832.744	23421
832.883	23372
833.022	23368
833.16	23341
833.299	23417
833.437	23349
833.576	23600
833.714	23429
833.852	23452
833.991	23570
834.129	23463
834.267	23668
834.406	23436
834.544	23482
834.682	23512
834.821	23474
834.959	23653
835.097	23360
835.235	23467
835.373	23448
835.511	23387
835.65	23261
835.788	23277
835.926	23189
836.064	23086
836.202	23166
836.34	23296
836.478	23433
836.615	23258
836.753	23356
836.891	23349
837.029	23292
837.167	23345
837.305	23128
837.443	23170
837.58	23098
837.718	23193
837.856	23204
837.993	23086
838.131	23181
838.269	23052
838.406	23109
838.544	22961
838.681	22805
838.819	22801
838.956	22580
839.094	22630
839.231	22668
839.369	22904
839.506	23048
839.643	22877
839.781	22569
839.918	22508
840.055	22672
840.193	22584
840.33	22603
840.467	22504
840.604	22470
840.742	22923
840.879	22546
841.016	22459
841.153	22390
841.29	22675
841.427	22557
841.564	22573
841.701	22672
841.838	22527
841.975	22554
842.112	22497
842.249	22474
842.385	22386
842.522	22527
842.659	22523
842.796	22169
842.933	22318
843.069	22185
843.206	22143
843.343	22303
843.479	22386
843.616	22253
843.752	22139
843.889	22154
844.025	22318
844.162	22082
844.298	22158
844.435	22097
844.571	22120
844.708	22200
844.844	22249
844.98	22291
845.117	22188
845.253	22082
845.389	21949
845.525	22002
845.661	21975
845.798	21854
845.934	21956
846.07	21827
846.206	21827
846.342	21945
846.478	21797
846.614	21629
846.75	21481
846.886	21614
847.022	21629
847.158	21553
847.294	21591
847.429	21641
847.565	21485
847.701	21690
847.837	21264
847.972	21230
848.108	21355
848.244	21321
848.379	21096
848.515	21195
848.65	21154
848.786	21039
848.921	21203
849.057	21123
849.192	21351
849.328	21218
849.463	21192
849.598	21142
849.734	21093
849.869	20944
850.004	20880
850.14	21077
850.275	20838
850.41	20921
850.545	20842
850.68	20842
850.815	20823
850.95	20925
851.085	21104
851.22	21074
851.355	20899
851.49	20914
851.625	20693
851.76	20876
851.895	20777
852.03	20864
852.165	20960
852.299	20971
852.434	20899
852.569	20921
852.703	20887
852.838	20971
852.973	20994
853.107	21020
853.242	20918
853.376	20697
853.511	20621
853.645	20678
853.78	20838
853.914	20697
854.048	20716
854.183	20697
854.317	20754
854.451	20979
854.585	20746
854.72	20876
854.854	20773
854.988	20621
855.122	20781
855.256	20674
855.39	20777
855.524	20883
855.658	20887
855.792	20777
855.926	20777
856.06	20800
856.194	20887
856.327	20693
856.461	20785
856.595	20830
856.729	20708
856.862	20788
856.996	20758
857.13	20632
857.263	20857
857.397	20876
857.53	20849
857.664	20743
857.797	20830
857.931	20826
858.064	20724
858.197	20800
858.331	20727
858.464	20720
858.597	20648
858.731	20678
858.864	20648
858.997	20659
859.13	20754
859.263	20773
859.396	20838
859.529	20697
859.662	20720
859.795	20541
859.928	20788
860.061	20868
860.194	20921
860.327	20868
860.46	20727
860.592	20834
860.725	20902
860.858	20883
860.99	20674
861.123	20655
861.256	20743
861.388	20705
861.521	21294
861.653	20689
861.786	20659
861.918	20552
862.05	20526
862.183	20735
862.315	20674
862.447	20708
862.58	20697
862.712	20503
862.844	20396
862.976	20613
863.108	20537
863.24	20830
863.372	20423
863.504	20442
863.636	20442
863.768	20499
863.9	20457
864.032	20362
864.164	20404
864.296	20556
864.428	20533
864.559	20636
864.691	20457
864.823	20492
864.954	20370
865.086	20404
865.217	20328
865.349	20225
865.48	20381
865.612	20400
865.743	20552
865.875	20328
866.006	20313
866.137	20377
866.269	20503
866.4	20290
866.531	20385
866.662	20339
866.793	20282
866.924	20317
867.055	20385
867.186	20366
867.317	20248
867.448	20233
867.579	20126
867.71	20252
867.841	20161
867.972	20286
868.103	20317
868.233	20278
868.364	20320
868.495	20320
868.625	20438
868.756	20629
868.886	20442
869.017	20431
869.147	20602
869.278	20701
869.408	20552
869.539	20518
869.669	20552
869.799	20473
869.929	20811
870.06	20716
870.19	20773
870.32	20811
870.45	20880
870.58	20937
870.71	21066
870.84	21036
870.97	20914
871.1	20982
871.23	21043
871.36	21207
871.489	21093
871.619	21051
871.749	21154
871.879	21081
872.008	21306
872.138	21203
872.267	21203
872.397	20963
872.526	20921
872.656	21062
872.785	21024
872.915	21161
873.044	21203
873.173	21169
873.303	21119
873.432	21241
873.561	21249
873.69	21245
873.819	21112
873.948	21150
874.077	21207
874.206	21081
874.335	21222
874.464	21233
874.593	21348
874.722	21355
874.851	21526
874.979	21416
875.108	21580
875.237	21439
875.365	21256
875.494	21359
875.623	21515
875.751	21428
875.88	21454
876.008	21606
876.136	21523
876.265	21937
876.393	22040
876.521	21987
876.65	21869
876.778	21789
876.906	21717
877.034	21705
877.162	21770
877.29	21686
877.418	21793
877.546	21759
877.674	21728
877.802	21797
877.93	21751
878.058	21694
878.185	21587
878.313	21682
878.441	21724
878.568	21614
878.696	21675
878.824	21850
878.951	21747
879.079	21968
879.206	22029
879.333	21899
879.461	21793
879.588	21903
879.715	21880
879.842	21998
879.97	21911
880.097	21720
880.224	21610
880.351	21431
880.478	21534
880.605	21572
880.732	21648
880.859	21819
880.986	21572
881.112	21580
881.239	21469
881.366	21374
881.493	21256
881.619	21085
881.746	21230
881.872	21207
881.999	21093
882.125	21233
882.252	21211
882.378	21066
882.505	21344
882.631	20895
882.757	20800
882.883	20906
883.01	20883
883.136	20830
883.262	20853
883.388	20765
883.514	20842
883.64	21001
883.766	20804
883.892	20644
884.018	20651
884.143	20777
884.269	20853
884.395	20632
884.52	20473
884.646	20541
884.772	20374
884.897	20412
885.023	20602
885.148	20735
885.274	20792
885.399	20651
885.524	20545
885.65	20541
885.775	20514
885.9	20537
886.025	20667
886.15	20579
886.275	20480
886.4	20389
886.525	20473
886.65	20419
886.775	20385
886.9	20499
887.025	20655
887.149	20454
887.274	20202
887.399	20320
887.523	20252
887.648	20305
887.773	20187
887.897	20309
888.021	20358
888.146	20252
888.27	20381
888.395	20476
888.519	20366
888.643	20492
888.767	20286
888.891	20012
889.015	20111
889.139	20221
889.263	20126
889.387	20278
889.511	20317
889.635	20115
889.759	20069
889.883	20103
890.006	20088
890.13	20058
890.254	20081
890.377	20008
890.501	19795
890.624	19822
890.748	19925
890.871	19715
890.995	19742
891.118	19742
891.241	19639
891.364	19753
891.488	19852
891.611	19525
891.734	19685
891.857	19662
891.98	19655
892.103	19655
892.226	19734
892.349	19632
892.471	19514
892.594	19518
892.717	19559
892.839	19708
892.962	19662
893.085	19575
893.207	19624
893.33	19460
893.452	19601
893.575	19632
893.697	19674
893.819	19917
893.941	19788
894.064	19700
894.186	19662
894.308	19632
894.43	19734
894.552	19693
894.674	19693
894.796	19609
894.918	19632
895.04	19502
895.161	19639
895.283	19791
895.405	19616
895.526	19677
895.648	19586
895.769	19578
895.891	19681
896.012	19818
896.134	19582
896.255	19575
896.376	19643
896.498	19674
896.619	19715
896.74	19681
896.861	19769
896.982	19989
897.103	20138
897.224	20027
897.345	19750
897.466	19715
897.587	19803
897.708	19997
897.828	19925
897.949	19791
898.07	19693
898.19	19894
898.311	19883
898.431	19814
898.552	19837
898.672	19978
898.792	19951
898.913	19879
899.033	19776
899.153	19696
899.273	19635
899.393	19624
899.513	19643
899.633	19635
899.753	19594
899.873	19510
899.993	19590
900.113	19613
900.232	19605
900.352	19578
900.472	19597
900.591	19365
900.711	19343
900.83	19483
900.95	19460
901.069	19510
901.189	19301
901.308	19171
901.427	19080
901.546	19061
901.665	19110
901.784	19023
901.904	18760
902.023	18745
902.141	18544
902.26	18570
902.379	18612
902.498	18513
902.617	18433
902.735	18498
902.854	18426
902.973	18555
903.091	18235
903.21	18384
903.328	18117
903.446	18159
903.565	18057
903.683	17961
903.801	17840
903.919	17863
904.038	17999
904.156	17874
904.274	17821
904.392	17760
904.51	17634
904.627	17771
904.745	17863
904.863	17904
904.981	17558
905.098	17505
905.216	17429
905.334	17463
905.451	17509
905.569	17414
905.686	17467
905.803	17566
905.921	17155
906.038	17402
906.155	17269
906.272	17159
906.389	17235
906.506	16991
906.623	16984
906.74	16938
906.857	16869
906.974	16911
907.091	16957
907.208	17128
907.324	17113
907.441	16805
907.557	16733
907.674	16771
907.79	16637
907.907	16691
908.023	16767
908.139	16706
908.256	16679
908.372	16607
908.488	16512
908.604	16531
908.72	16386
908.836	16375
908.952	16405
909.068	16413
909.184	16466
909.3	16314
909.415	16470
909.531	16322
909.647	16166
909.762	16086
909.878	16082
909.993	16063
910.108	16036
910.224	15945
910.339	16128
910.454	15979
910.57	15899
910.685	15876
910.8	16044
910.915	16143
911.03	15975
911.145	15717
911.259	15717
911.374	15766
911.489	15694
911.604	15599
911.718	15538
911.833	15553
911.947	15329
912.062	15359
912.176	15492
912.291	15595
912.405	15614
912.519	15827
912.633	15614
912.748	15561
912.862	15500
912.976	15294
913.09	15184
913.204	15252
913.318	15321
913.431	15386
913.545	15370
913.659	15435
913.772	15260
913.886	15157
914	15074
914.113	15207
914.226	15218
914.34	15249
914.453	15074
914.566	15180
914.68	15097
914.793	14982
914.906	14796
915.019	14629
915.132	14648
915.245	14716
915.358	14796
915.47	14697
915.583	14716
915.696	14773
915.809	14864
915.921	14864
916.034	14708
916.146	14587
916.259	14613
916.371	14792
916.483	14663
916.595	14670
916.708	14644
916.82	14587
916.932	14537
917.044	14495
917.156	14488
917.268	14473
917.38	14484
917.491	14362
917.603	14431
917.715	14507
917.826	14590
917.938	14328
918.049	14290
918.161	14263
918.272	14499
918.384	14511
918.495	14328
918.606	14111
918.717	14233
918.828	14187
918.939	14145
919.05	14096
919.161	14168
919.272	14062
919.383	14005
919.494	14218
919.604	14366
919.715	14115
919.826	13944
919.936	14107
920.047	14202
920.157	14142
920.267	14366
920.378	14138
920.488	14157
920.598	14225
920.708	14377
920.818	14275
920.928	14358
921.038	14514
921.148	14237
921.258	14206
921.368	14001
921.477	13909
921.587	13837
921.697	13715
921.806	13875
921.916	13643
922.025	13647
922.134	13537
922.244	13392
922.353	13510
922.462	13499
922.571	13285
922.68	13240
922.789	13206
922.898	13213
923.007	13126
923.116	13160
923.224	13164
923.333	13179
923.442	13031
923.55	13053
923.659	13103
923.767	13099
923.876	12924
923.984	13107
924.092	13000
924.201	12962
924.309	12947
924.417	12875
924.525	12920
924.633	12875
924.741	13700
924.849	12734
924.956	12745
925.064	12700
925.172	12540
925.279	12635
925.387	12654
925.494	12627
925.602	12749
925.709	12681
925.816	12555
925.924	12540
926.031	12620
926.138	12585
926.245	12696
926.352	12475
926.459	12616
926.566	12612
926.673	12448
926.779	12399
926.886	12277
926.993	12235
927.099	12228
927.206	12098
927.312	12117
927.419	12201
927.525	12136
927.631	12110
927.737	12068
927.843	12121
927.95	11897
928.056	12034
928.162	12015
928.267	12152
928.373	12642
928.479	12011
928.585	11927
928.69	12007
928.796	12038
928.901	11897
929.007	11729
929.112	11931
929.218	11798
929.323	11813
929.428	11718
929.533	11908
929.638	11688
929.743	11646
929.848	11745
929.953	11707
930.058	11566
930.163	11448
930.267	11459
930.372	11539
930.477	11303
930.581	11600
930.685	11581
930.79	11349
930.894	11376
930.998	11299
931.103	11444
931.207	11178
931.311	11037
931.415	10934
931.519	10664
931.623	10725
