Data from test_V78500241_2277.txt Node
Date: Fri Mar 25 15:25:42 CST 2022
User: usil
Spectrometer: V785-0024
Trigger mode: 0
Integration Time (sec): 4.000000E-1
Scans to average: 1
Nonlinearity correction enabled: false
Boxcar width: 0
Storing dark spectrum: false
XAxis mode: Wavelengths
Number of Pixels in Spectrum: 1024
>>>>>Begin Spectral Data<<<<<
801.071	27599
801.214	27622
801.356	27412
801.499	27310
801.641	27093
801.783	27218
801.926	27370
802.068	27256
802.211	27017
802.353	27180
802.496	26925
802.638	26940
802.78	26838
802.923	26910
803.065	26769
803.208	26750
803.35	26826
803.492	27024
803.635	26948
803.777	26899
803.919	27176
804.061	27408
804.204	27047
804.346	27001
804.488	26883
804.63	27062
804.773	26963
804.915	26982
805.057	27154
805.199	26986
805.341	27135
805.483	27123
805.626	27131
805.768	26937
805.91	27142
806.052	27199
806.194	27051
806.336	27268
806.478	27180
806.62	27184
806.762	27211
806.904	27382
807.046	27663
807.188	27660
807.33	27545
807.472	27648
807.614	27378
807.756	27614
807.898	27469
808.04	27454
808.182	27370
808.324	27431
808.465	27515
808.607	27724
808.749	27804
808.891	27846
809.033	27998
809.174	27789
809.316	27804
809.458	27850
809.6	27717
809.741	27884
809.883	27880
810.025	28109
810.166	28059
810.308	28109
810.45	27880
810.591	27892
810.733	27701
810.875	27789
811.016	27656
811.158	27675
811.299	27793
811.441	27968
811.582	27835
811.724	27739
811.865	27717
812.007	27618
812.148	27698
812.29	27755
812.431	27975
812.573	28044
812.714	28154
812.855	28226
812.997	28234
813.138	28417
813.279	28386
813.421	28204
813.562	28131
813.703	28131
813.845	27838
813.986	27709
814.127	27549
814.268	27511
814.41	27526
814.551	27374
814.692	27447
814.833	27359
814.974	27367
815.115	27530
815.256	27351
815.397	27389
815.539	27435
815.68	27249
815.821	27157
815.962	27260
816.103	27268
816.244	27192
816.385	27047
816.526	26982
816.666	26823
816.807	26674
816.948	26754
817.089	26720
817.23	26830
817.371	26609
817.512	26796
817.653	26655
817.793	26629
817.934	26701
818.075	26762
818.216	26693
818.356	26609
818.497	26526
818.638	26389
818.778	26461
818.919	26328
819.06	26579
819.2	26511
819.341	26640
819.481	26689
819.622	26891
819.762	27096
819.903	27024
820.043	26971
820.184	26769
820.324	26918
820.465	26880
820.605	26853
820.746	26648
820.886	26644
821.026	26731
821.167	26868
821.307	26883
821.447	26674
821.588	26621
821.728	26419
821.868	26267
822.008	26252
822.149	26153
822.289	26218
822.429	25982
822.569	25928
822.709	25944
822.849	25734
822.99	25525
823.13	25624
823.27	25616
823.41	25559
823.55	25438
823.69	25563
823.83	25491
823.97	25476
824.11	25175
824.25	25152
824.389	25343
824.529	25400
824.669	25331
824.809	25411
824.949	25388
825.089	25392
825.228	25358
825.368	25179
825.508	25118
825.648	25168
825.787	25168
825.927	25175
826.067	25122
826.206	25050
826.346	25225
826.485	25228
826.625	25080
826.765	25206
826.904	25263
827.044	24935
827.183	24905
827.323	24894
827.462	24951
827.601	24947
827.741	24943
827.88	24966
828.02	24840
828.159	24901
828.298	24909
828.437	24894
828.577	24821
828.716	25023
828.855	24779
828.994	24703
829.134	24627
829.273	24578
829.412	24391
829.551	24521
829.69	24688
829.829	24593
829.968	24692
830.107	24540
830.246	24616
830.385	24536
830.524	24414
830.663	24388
830.802	24403
830.941	24216
831.08	24125
831.219	24258
831.357	24289
831.496	24452
831.635	24057
831.774	24186
831.913	24076
832.051	23988
832.19	24011
832.329	24045
832.467	23813
832.606	23714
832.744	23779
832.883	23870
833.022	23882
833.16	23901
833.299	23847
833.437	23836
833.576	23912
833.714	23859
833.852	23999
833.991	23912
834.129	23996
834.267	24007
834.406	23935
834.544	23912
834.682	23901
834.821	23969
834.959	24015
835.097	23859
835.235	23889
835.373	23843
835.511	23942
835.65	23897
835.788	23642
835.926	23562
836.064	23581
836.202	23642
836.34	23809
836.478	23821
836.615	23752
836.753	23779
836.891	23802
837.029	23790
837.167	23699
837.305	23684
837.443	23676
837.58	23558
837.718	23668
837.856	23608
837.993	23478
838.131	23551
838.269	23478
838.406	23414
838.544	23452
838.681	23261
838.819	23193
838.956	23113
839.094	23102
839.231	23181
839.369	23223
839.506	23520
839.643	23372
839.781	22953
839.918	22965
840.055	23109
840.193	23102
840.33	23067
840.467	23018
840.604	23022
840.742	23273
840.879	22828
841.016	22843
841.153	22801
841.29	23071
841.427	23018
841.564	22816
841.701	22999
841.838	22911
841.975	22839
842.112	22877
842.249	22729
842.385	22653
842.522	22934
842.659	22938
842.796	22645
842.933	22748
843.069	22748
843.206	22778
843.343	22702
843.479	22672
843.616	22729
843.752	22497
843.889	22592
844.025	22740
844.162	22417
844.298	22618
844.435	22504
844.571	22367
844.708	22409
844.844	22736
844.98	22569
845.117	22611
845.253	22413
845.389	22386
845.525	22474
845.661	22337
845.798	22192
845.934	22310
846.07	22272
846.206	22188
846.342	22329
846.478	22303
846.614	22078
846.75	21945
846.886	21838
847.022	22101
847.158	22013
847.294	22021
847.429	22002
847.565	22086
847.701	22284
847.837	21880
847.972	21671
848.108	21747
848.244	21736
848.379	21629
848.515	21694
848.65	21622
848.786	21599
848.921	21690
849.057	21755
849.192	21663
849.328	21656
849.463	21583
849.598	21564
849.734	21557
849.869	21618
850.004	21313
850.14	21492
850.275	21408
850.41	21397
850.545	21378
850.68	21310
850.815	21325
850.95	21336
851.085	21534
851.22	21477
851.355	21496
851.49	21313
851.625	21329
851.76	21355
851.895	21252
852.03	21256
852.165	21321
852.299	21355
852.434	21511
852.569	21439
852.703	21424
852.838	21466
852.973	21542
853.107	21412
853.242	21291
853.376	21317
853.511	21043
853.645	21226
853.78	21264
853.914	21279
854.048	21165
854.183	21180
854.317	21161
854.451	21469
854.585	21294
854.72	21230
854.854	21188
854.988	21138
855.122	21237
855.256	21116
855.39	21169
855.524	21180
855.658	21180
855.792	21218
855.926	21256
856.06	21195
856.194	21256
856.327	21203
856.461	21058
856.595	21096
856.729	21070
856.862	21275
856.996	21135
857.13	21211
857.263	21252
857.397	21226
857.53	21112
857.664	21131
857.797	21233
857.931	21431
858.064	21047
858.197	21188
858.331	21104
858.464	21237
858.597	20963
858.731	21127
858.864	21161
858.997	21138
859.13	21222
859.263	21264
859.396	21325
859.529	21131
859.662	21207
859.795	21230
859.928	21252
860.061	21317
860.194	21408
860.327	21237
860.46	21108
860.592	21294
860.725	21405
860.858	21401
860.99	21207
861.123	21218
861.256	21230
861.388	21214
861.521	21994
861.653	21112
861.786	20963
861.918	20948
862.05	21051
862.183	21142
862.315	21108
862.447	21165
862.58	21123
862.712	20986
862.844	20887
862.976	21017
863.108	20952
863.24	21454
863.372	20895
863.504	20937
863.636	20990
863.768	20868
863.9	20937
864.032	20830
864.164	20876
864.296	20872
864.428	20933
864.559	20887
864.691	20883
864.823	20918
864.954	20849
865.086	20887
865.217	20777
865.349	20693
865.48	20686
865.612	20800
865.743	20941
865.875	20781
866.006	20731
866.137	20781
866.269	20765
866.4	20773
866.531	20632
866.662	20686
866.793	20705
866.924	20663
867.055	20712
867.186	20773
867.317	20613
867.448	20697
867.579	20640
867.71	20636
867.841	20731
867.972	20743
868.103	20571
868.233	20693
868.364	20746
868.495	20788
868.625	20944
868.756	20952
868.886	20956
869.017	20868
869.147	21093
869.278	21135
869.408	21009
869.539	20956
869.669	20979
869.799	20937
869.929	20975
870.06	21070
870.19	21332
870.32	21298
870.45	21306
870.58	21294
870.71	21374
870.84	21393
870.97	21393
871.1	21348
871.23	21515
871.36	21671
871.489	21568
871.619	21424
871.749	21538
871.879	21568
872.008	21671
872.138	21595
872.267	21591
872.397	21405
872.526	21329
872.656	21500
872.785	21443
872.915	21660
873.044	21583
873.173	21530
873.303	21576
873.432	21583
873.561	21633
873.69	21572
873.819	21644
873.948	21648
874.077	21473
874.206	21515
874.335	21679
874.464	21698
874.593	21774
874.722	21717
874.851	21838
874.979	21778
875.108	21850
875.237	21736
875.365	21793
875.494	21766
875.623	21934
875.751	21701
875.88	21930
876.008	21930
876.136	21964
876.265	22249
876.393	22413
876.521	22181
876.65	22284
876.778	22295
876.906	22017
877.034	22154
877.162	22086
877.29	22025
877.418	22207
877.546	22162
877.674	22078
877.802	22112
877.93	22223
878.058	22070
878.185	22032
878.313	21945
878.441	22154
878.568	21975
878.696	22090
878.824	22177
878.951	22280
879.079	22242
879.206	22462
879.333	22322
879.461	22139
879.588	22318
879.715	22257
879.842	22451
879.97	22207
880.097	21998
880.224	22002
880.351	22078
880.478	21983
880.605	22017
880.732	22032
880.859	22131
880.986	21892
881.112	21972
881.239	21766
881.366	21781
881.493	21671
881.619	21553
881.746	21587
881.872	21648
881.999	21538
882.125	21549
882.252	21591
882.378	21496
882.505	21656
882.631	21469
882.757	21260
882.883	21313
883.01	21363
883.136	21127
883.262	21104
883.388	20883
883.514	21260
883.64	21325
883.766	21176
883.892	21013
884.018	21028
884.143	21207
884.269	21283
884.395	21020
884.52	20918
884.646	20891
884.772	20876
884.897	20902
885.023	20921
885.148	21043
885.274	21070
885.399	20960
885.524	20739
885.65	20891
885.775	20895
885.9	20785
886.025	21032
886.15	21077
886.275	20834
886.4	20739
886.525	20823
886.65	20746
886.775	20807
886.9	20948
887.025	21020
887.149	20868
887.274	20625
887.399	20735
887.523	20697
887.648	20564
887.773	20522
887.897	20781
888.021	20640
888.146	20571
888.27	20674
888.395	20804
888.519	20762
888.643	20689
888.767	20735
888.891	20587
889.015	20408
889.139	20533
889.263	20400
889.387	20541
889.511	20625
889.635	20571
889.759	20381
889.883	20427
890.006	20469
890.13	20564
890.254	20374
890.377	20351
890.501	20355
890.624	20282
890.748	20362
890.871	20153
890.995	20149
891.118	19989
891.241	20065
891.364	20096
891.488	20145
891.611	20031
891.734	20020
891.857	19997
891.98	20001
892.103	19997
892.226	20024
892.349	19974
892.471	19814
892.594	19944
892.717	19986
892.839	19883
892.962	19879
893.085	20088
893.207	19940
893.33	19841
893.452	19841
893.575	19925
893.697	19951
893.819	20077
893.941	20145
894.064	20199
894.186	19883
894.308	19765
894.43	19845
894.552	20012
894.674	20054
894.796	19894
894.918	19963
895.04	20035
895.161	20077
895.283	19936
895.405	19723
895.526	19993
895.648	19841
895.769	19906
895.891	19936
896.012	20138
896.134	20012
896.255	19917
896.376	19974
896.498	19940
896.619	19997
896.74	19932
896.861	19970
896.982	20263
897.103	20457
897.224	20248
897.345	20142
897.466	20058
897.587	20206
897.708	20275
897.828	20244
897.949	20020
898.07	19970
898.19	20039
898.311	20210
898.431	20275
898.552	20168
898.672	20161
898.792	20286
898.913	20084
899.033	20020
899.153	19944
899.273	19894
899.393	19883
899.513	20027
899.633	20027
899.753	19883
899.873	19864
899.993	19944
900.113	19795
900.232	19955
900.352	19879
900.472	19708
900.591	19613
900.711	19826
900.83	19738
900.95	19894
901.069	19761
901.189	19567
901.308	19274
901.427	19278
901.546	19240
901.665	19362
901.784	19335
901.904	19107
902.023	19046
902.141	18882
902.26	18878
902.379	18852
902.498	18890
902.617	18802
902.735	18772
902.854	18840
902.973	18715
903.091	18437
903.21	18494
903.328	18433
903.446	18353
903.565	18357
903.683	18262
903.801	18197
903.919	18228
904.038	18178
904.156	18114
904.274	18091
904.392	18117
904.51	17999
904.627	18068
904.745	17992
904.863	18136
904.981	17855
905.098	17752
905.216	17623
905.334	17775
905.451	17634
905.569	17676
905.686	17779
905.803	17733
905.921	17493
906.038	17554
906.155	17646
906.272	17429
906.389	17452
906.506	17322
906.623	17113
906.74	17197
906.857	17105
906.974	17185
907.091	17261
907.208	17258
907.324	17280
907.441	17208
907.557	16995
907.674	17041
907.79	16812
907.907	16927
908.023	17083
908.139	17018
908.256	16889
908.372	16828
908.488	16809
908.604	16797
908.72	16710
908.836	16694
908.952	16729
909.068	16618
909.184	16854
909.3	16733
909.415	16687
909.531	16733
909.647	16462
909.762	16440
909.878	16382
909.993	16341
910.108	16409
910.224	16390
910.339	16409
910.454	16306
910.57	16249
910.685	16090
910.8	16390
910.915	16310
911.03	16219
911.145	16017
911.259	16093
911.374	15930
911.489	15869
911.604	15861
911.718	15781
911.833	15751
911.947	15656
912.062	15538
912.176	15713
912.291	15701
912.405	15762
912.519	15895
912.633	15960
912.748	15698
912.862	15690
912.976	15641
913.09	15485
913.204	15450
913.318	15561
913.431	15637
913.545	15679
913.659	15644
913.772	15572
913.886	15412
914	15336
914.113	15424
914.226	15477
914.34	15359
914.453	15321
914.566	15310
914.68	15256
914.793	15157
914.906	14963
915.019	14891
915.132	14887
915.245	14872
915.358	14937
915.47	15062
915.583	14929
915.696	14937
915.809	15097
915.921	15108
916.034	14906
916.146	15005
916.259	14807
916.371	15020
916.483	14914
916.595	14804
916.708	14849
916.82	14838
916.932	14731
917.044	14792
917.156	14769
917.268	14537
917.38	14705
917.491	14640
917.603	14670
917.715	14708
917.826	14686
917.938	14499
918.049	14533
918.161	14602
918.272	14655
918.384	14693
918.495	14640
918.606	14381
918.717	14317
918.828	14328
918.939	14385
919.05	14298
919.161	14343
919.272	14210
919.383	14252
919.494	14473
919.604	14670
919.715	14358
919.826	14328
919.936	14286
920.047	14431
920.157	14275
920.267	14484
920.378	14328
920.488	14240
920.598	14484
920.708	14708
920.818	14541
920.928	14499
921.038	14625
921.148	14556
921.258	14320
921.368	14172
921.477	14142
921.587	14107
921.697	13989
921.806	14145
921.916	13940
922.025	13738
922.134	13674
922.244	13670
922.353	13799
922.462	13609
922.571	13582
922.68	13403
922.789	13354
922.898	13373
923.007	13247
923.116	13350
923.224	13365
923.333	13331
923.442	13285
923.55	13270
923.659	13240
923.767	13232
923.876	13034
923.984	13236
924.092	13076
924.201	13160
924.309	13175
924.417	13149
924.525	13031
924.633	13072
924.741	13826
924.849	12905
924.956	12962
925.064	12886
925.172	12753
925.279	12757
925.387	12913
925.494	12848
925.602	13027
925.709	12901
925.816	12776
925.924	12703
926.031	12916
926.138	12745
926.245	12772
926.352	12608
926.459	12798
926.566	12859
926.673	12673
926.779	12502
926.886	12582
926.993	12418
927.099	12418
927.206	12361
927.312	12376
927.419	12433
927.525	12384
927.631	12334
927.737	12300
927.843	12262
927.95	12125
928.056	12224
928.162	12300
928.267	12304
928.373	12943
928.479	12296
928.585	11996
928.69	12121
928.796	12277
928.901	12011
929.007	11923
929.112	12114
929.218	12060
929.323	12064
929.428	11969
929.533	11973
929.638	11912
929.743	11973
929.848	11870
929.953	11809
930.058	11794
930.163	11554
930.267	11752
930.372	11783
930.477	11630
930.581	11840
930.685	11665
930.79	11592
930.894	11512
930.998	11459
931.103	11581
931.207	11364
931.311	11185
931.415	11075
931.519	10885
931.623	10820
