Data from test_V78500241_3211.txt Node
Date: Fri Mar 25 15:32:13 CST 2022
User: usil
Spectrometer: V785-0024
Trigger mode: 0
Integration Time (sec): 4.000000E-1
Scans to average: 1
Nonlinearity correction enabled: false
Boxcar width: 0
Storing dark spectrum: false
XAxis mode: Wavelengths
Number of Pixels in Spectrum: 1024
>>>>>Begin Spectral Data<<<<<
801.071	27058
801.214	26952
801.356	26937
801.499	26762
801.641	26598
801.783	26606
801.926	26613
802.068	26598
802.211	26632
802.353	26545
802.496	26339
802.638	26362
802.78	26130
802.923	26164
803.065	26115
803.208	26229
803.35	26248
803.492	26427
803.635	26412
803.777	26317
803.919	26427
804.061	26693
804.204	26571
804.346	26336
804.488	26355
804.63	26499
804.773	26400
804.915	26404
805.057	26442
805.199	26358
805.341	26317
805.483	26522
805.626	26473
805.768	26427
805.91	26583
806.052	26434
806.194	26362
806.336	26701
806.478	26606
806.62	26461
806.762	26594
806.904	26777
807.046	27055
807.188	26826
807.33	26899
807.472	26914
807.614	26845
807.756	26811
807.898	26705
808.04	26800
808.182	26587
808.324	26781
808.465	26807
808.607	26880
808.749	27146
808.891	27260
809.033	27214
809.174	27237
809.316	27009
809.458	27108
809.6	26998
809.741	27108
809.883	27207
810.025	27298
810.166	27264
810.308	27397
810.45	27310
810.591	27222
810.733	27165
810.875	27081
811.016	26971
811.158	27039
811.299	27138
811.441	27214
811.582	27370
811.724	27017
811.865	27009
812.007	27043
812.148	27058
812.29	27055
812.431	27180
812.573	27310
812.714	27351
812.855	27583
812.997	27564
813.138	27732
813.279	27641
813.421	27641
813.562	27488
813.703	27355
813.845	27180
813.986	26956
814.127	26883
814.268	26720
814.41	26705
814.551	26674
814.692	26781
814.833	26708
814.974	26640
815.115	26746
815.256	26598
815.397	26750
815.539	26495
815.68	26446
815.821	26381
815.962	26431
816.103	26434
816.244	26221
816.385	26355
816.526	26248
816.666	26130
816.807	26084
816.948	26134
817.089	26088
817.23	25997
817.371	25921
817.512	26065
817.653	25921
817.793	25925
817.934	26027
818.075	25940
818.216	26092
818.356	25913
818.497	25807
818.638	25807
818.778	25765
818.919	25761
819.06	25814
819.2	25833
819.341	25868
819.481	26005
819.622	26096
819.762	26263
819.903	26225
820.043	26122
820.184	26248
820.324	26054
820.465	26115
820.605	26069
820.746	26077
820.886	25955
821.026	25997
821.167	25932
821.307	26164
821.447	26027
821.588	25887
821.728	25776
821.868	25639
822.008	25563
822.149	25384
822.289	25266
822.429	25126
822.569	25103
822.709	25183
822.849	24817
822.99	24817
823.13	25038
823.27	24977
823.41	24669
823.55	24578
823.69	24730
823.83	24734
823.97	24734
824.11	24532
824.25	24578
824.389	24544
824.529	24658
824.669	24486
824.809	24669
824.949	24669
825.089	24597
825.228	24509
825.368	24429
825.508	24365
825.648	24475
825.787	24593
825.927	24479
826.067	24384
826.206	24429
826.346	24475
826.485	24486
826.625	24376
826.765	24589
826.904	24403
827.044	24235
827.183	24114
827.323	24079
827.462	24190
827.601	24079
827.741	24277
827.88	24159
828.02	24064
828.159	24159
828.298	24144
828.437	24228
828.577	24072
828.716	24197
828.855	24106
828.994	23855
829.134	23893
829.273	23859
829.412	23733
829.551	23809
829.69	23802
829.829	23824
829.968	23863
830.107	23954
830.246	23863
830.385	23878
830.524	23885
830.663	23649
830.802	23474
830.941	23395
831.08	23440
831.219	23676
831.357	23448
831.496	23722
831.635	23490
831.774	23246
831.913	23356
832.051	23288
832.19	23417
832.329	23364
832.467	23071
832.606	23136
832.744	23189
832.883	23174
833.022	23212
833.16	23124
833.299	23345
833.437	23162
833.576	23376
833.714	23326
833.852	23250
833.991	23284
834.129	23311
834.267	23417
834.406	23307
834.544	23220
834.682	23216
834.821	23178
834.959	23410
835.097	23208
835.235	23315
835.373	23136
835.511	23200
835.65	23216
835.788	23102
835.926	22881
836.064	22767
836.202	22896
836.34	23132
836.478	23140
836.615	23037
836.753	23041
836.891	23220
837.029	23143
837.167	23022
837.305	22961
837.443	23041
837.58	22889
837.718	22942
837.856	22900
837.993	22934
838.131	22946
838.269	22672
838.406	22824
838.544	22710
838.681	22649
838.819	22641
838.956	22417
839.094	22485
839.231	22447
839.369	22554
839.506	22900
839.643	22630
839.781	22519
839.918	22363
840.055	22402
840.193	22394
840.33	22466
840.467	22257
840.604	22386
840.742	22622
840.879	22276
841.016	22265
841.153	22261
841.29	22284
841.427	22348
841.564	22329
841.701	22329
841.838	22234
841.975	22257
842.112	22226
842.249	22223
842.385	22139
842.522	22375
842.659	22303
842.796	22234
842.933	22067
843.069	22070
843.206	22013
843.343	22234
843.479	22124
843.616	22135
843.752	21968
843.889	21861
844.025	21934
844.162	21793
844.298	22067
844.435	21941
844.571	21793
844.708	21895
844.844	22078
844.98	21991
845.117	21968
845.253	21755
845.389	21644
845.525	21823
845.661	21660
845.798	21633
845.934	21648
846.07	21618
846.206	21561
846.342	21720
846.478	21542
846.614	21359
846.75	21378
846.886	21237
847.022	21439
847.158	21412
847.294	21405
847.429	21519
847.565	21428
847.701	21572
847.837	21104
847.972	21036
848.108	21279
848.244	21222
848.379	21062
848.515	20998
848.65	20933
848.786	20979
848.921	20925
849.057	21039
849.192	21104
849.328	20956
849.463	21036
849.598	20853
849.734	20804
849.869	20754
850.004	20701
850.14	20777
850.275	20868
850.41	20682
850.545	20705
850.68	20632
850.815	20788
850.95	20777
851.085	20891
851.22	20765
851.355	20765
851.49	20853
851.625	20594
851.76	20663
851.895	20724
852.03	20587
852.165	20678
852.299	20773
852.434	20815
852.569	20781
852.703	20697
852.838	20724
852.973	20944
853.107	20819
853.242	20659
853.376	20545
853.511	20499
853.645	20446
853.78	20731
853.914	20503
854.048	20579
854.183	20530
854.317	20632
854.451	20617
854.585	20587
854.72	20560
854.854	20640
854.988	20358
855.122	20602
855.256	20419
855.39	20549
855.524	20625
855.658	20609
855.792	20552
855.926	20606
856.06	20571
856.194	20533
856.327	20541
856.461	20499
856.595	20613
856.729	20450
856.862	20670
856.996	20537
857.13	20617
857.263	20594
857.397	20606
857.53	20533
857.664	20609
857.797	20674
857.931	20632
858.064	20526
858.197	20636
858.331	20598
858.464	20499
858.597	20415
858.731	20579
858.864	20476
858.997	20518
859.13	20549
859.263	20556
859.396	20579
859.529	20503
859.662	20518
859.795	20469
859.928	20571
860.061	20697
860.194	20731
860.327	20533
860.46	20552
860.592	20602
860.725	20537
860.858	20693
860.99	20518
861.123	20415
861.256	20415
861.388	20499
861.521	21024
861.653	20366
861.786	20214
861.918	20438
862.05	20400
862.183	20507
862.315	20484
862.447	20476
862.58	20514
862.712	20252
862.844	20248
862.976	20347
863.108	20362
863.24	20602
863.372	20180
863.504	20271
863.636	20210
863.768	20412
863.9	20229
864.032	20134
864.164	20298
864.296	20271
864.428	20313
864.559	20362
864.691	20427
864.823	20339
864.954	20176
865.086	20210
865.217	20096
865.349	20153
865.48	20130
865.612	20214
865.743	20244
865.875	20305
866.006	20062
866.137	20229
866.269	20244
866.4	20031
866.531	19993
866.662	20092
866.793	20119
866.924	20115
867.055	20058
867.186	20191
867.317	20119
867.448	20172
867.579	20096
867.71	20035
867.841	20005
867.972	20039
868.103	20088
868.233	19986
868.364	20157
868.495	20176
868.625	20267
868.756	20396
868.886	20298
869.017	20317
869.147	20431
869.278	20556
869.408	20336
869.539	20298
869.669	20320
869.799	20355
869.929	20450
870.06	20461
870.19	20583
870.32	20667
870.45	20667
870.58	20781
870.71	20887
870.84	20849
870.97	20739
871.1	20815
871.23	20906
871.36	20971
871.489	20921
871.619	20998
871.749	21028
871.879	20914
872.008	21180
872.138	20887
872.267	21005
872.397	20739
872.526	20781
872.656	20720
872.785	20857
872.915	20960
873.044	21036
873.173	20925
873.303	21081
873.432	20914
873.561	21074
873.69	20967
873.819	20994
873.948	21180
874.077	20967
874.206	21020
874.335	20975
874.464	20994
874.593	21260
874.722	21100
874.851	21241
874.979	21199
875.108	21306
875.237	21203
875.365	21230
875.494	21157
875.623	21188
875.751	21272
875.88	21203
876.008	21405
876.136	21420
876.265	21690
876.393	21762
876.521	21751
876.65	21770
876.778	21561
876.906	21583
877.034	21428
877.162	21679
877.29	21530
877.418	21561
877.546	21564
877.674	21576
877.802	21568
877.93	21648
878.058	21583
878.185	21454
878.313	21519
878.441	21591
878.568	21397
878.696	21500
878.824	21564
878.951	21656
879.079	21690
879.206	21838
879.333	21709
879.461	21641
879.588	21884
879.715	21705
879.842	21949
879.97	21625
880.097	21431
880.224	21298
880.351	21526
880.478	21397
880.605	21412
880.732	21447
880.859	21564
880.986	21310
881.112	21378
881.239	21340
881.366	21074
881.493	21020
881.619	21058
881.746	21131
881.872	20990
881.999	20887
882.125	20925
882.252	20948
882.378	21058
882.505	21058
882.631	20670
882.757	20659
882.883	20750
883.01	20705
883.136	20708
883.262	20549
883.388	20564
883.514	20625
883.64	20667
883.766	20552
883.892	20533
884.018	20518
884.143	20625
884.269	20807
884.395	20339
884.52	20336
884.646	20393
884.772	20290
884.897	20157
885.023	20393
885.148	20408
885.274	20560
885.399	20450
885.524	20366
885.65	20374
885.775	20469
885.9	20370
886.025	20362
886.15	20484
886.275	20332
886.4	20309
886.525	20275
886.65	20320
886.775	20240
886.9	20457
887.025	20552
887.149	20415
887.274	20199
887.399	20081
887.523	20142
887.648	19963
887.773	20012
887.897	20237
888.021	20138
888.146	20043
888.27	20225
888.395	20157
888.519	20145
888.643	20214
888.767	20039
888.891	19970
889.015	19989
889.139	19978
889.263	19963
889.387	20077
889.511	20145
889.635	20024
889.759	19803
889.883	19845
890.006	19970
890.13	20092
890.254	19887
890.377	19849
890.501	19537
890.624	19750
890.748	19708
890.871	19643
890.995	19514
891.118	19529
891.241	19506
891.364	19483
891.488	19609
891.611	19441
891.734	19548
891.857	19537
891.98	19601
892.103	19563
892.226	19544
892.349	19544
892.471	19354
892.594	19434
892.717	19430
892.839	19491
892.962	19331
893.085	19457
893.207	19403
893.33	19274
893.452	19362
893.575	19533
893.697	19449
893.819	19613
893.941	19605
894.064	19567
894.186	19335
894.308	19285
894.43	19540
894.552	19510
894.674	19480
894.796	19365
894.918	19335
895.04	19403
895.161	19556
895.283	19514
895.405	19377
895.526	19480
895.648	19510
895.769	19400
895.891	19499
896.012	19537
896.134	19445
896.255	19563
896.376	19400
896.498	19312
896.619	19529
896.74	19430
896.861	19438
896.982	19765
897.103	19986
897.224	19742
897.345	19693
897.466	19559
897.587	19715
897.708	19731
897.828	19765
897.949	19693
898.07	19499
898.19	19655
898.311	19689
898.431	19582
898.552	19616
898.672	19670
898.792	19830
898.913	19780
899.033	19575
899.153	19483
899.273	19350
899.393	19396
899.513	19396
899.633	19426
899.753	19453
899.873	19312
899.993	19464
900.113	19381
900.232	19388
900.352	19270
900.472	19251
900.591	19263
900.711	19247
900.83	19122
900.95	19247
901.069	19202
901.189	19076
901.308	18882
901.427	18837
901.546	18734
901.665	18840
901.784	18859
901.904	18574
902.023	18551
902.141	18353
902.26	18365
902.379	18388
902.498	18254
902.617	18350
902.735	18437
902.854	18323
902.973	18216
903.091	18015
903.21	18102
903.328	18083
903.446	17897
903.565	17859
903.683	17874
903.801	17661
903.919	17828
904.038	17714
904.156	17566
904.274	17748
904.392	17547
904.51	17611
904.627	17634
904.745	17634
904.863	17627
904.981	17322
905.098	17200
905.216	17178
905.334	17299
905.451	17303
905.569	17239
905.686	17311
905.803	17239
905.921	17014
906.038	17094
906.155	17113
906.272	16942
906.389	16877
906.506	16786
906.623	16816
906.74	16744
906.857	16679
906.974	16717
907.091	16892
907.208	16946
907.324	16793
907.441	16729
907.557	16535
907.674	16531
907.79	16402
907.907	16466
908.023	16527
908.139	16550
908.256	16474
908.372	16481
908.488	16375
908.604	16329
908.72	16280
908.836	16291
908.952	16207
909.068	16226
909.184	16424
909.3	16265
909.415	16276
909.531	16226
909.647	16040
909.762	16025
909.878	15915
909.993	16105
910.108	15895
910.224	15838
910.339	15899
910.454	15751
910.57	15793
910.685	15682
910.8	15960
910.915	16032
911.03	15838
911.145	15564
911.259	15481
911.374	15549
911.489	15584
911.604	15504
911.718	15359
911.833	15363
911.947	15275
912.062	15176
912.176	15294
912.291	15393
912.405	15310
912.519	15644
912.633	15488
912.748	15378
912.862	15313
912.976	15112
913.09	15062
913.204	15138
913.318	15230
913.431	15268
913.545	15176
913.659	15192
913.772	15085
913.886	14960
914	14918
914.113	15074
914.226	15093
914.34	14963
914.453	14864
914.566	14872
914.68	14769
914.793	14785
914.906	14678
915.019	14552
915.132	14590
915.245	14545
915.358	14629
915.47	14537
915.583	14514
915.696	14621
915.809	14758
915.921	14750
916.034	14560
916.146	14511
916.259	14522
916.371	14511
916.483	14488
916.595	14404
916.708	14412
916.82	14473
916.932	14374
917.044	14309
917.156	14366
917.268	14218
917.38	14180
917.491	14191
917.603	14328
917.715	14298
917.826	14415
917.938	14202
918.049	14134
918.161	14180
918.272	14301
918.384	14313
918.495	14149
918.606	14077
918.717	14088
918.828	14039
918.939	14119
919.05	13940
919.161	13993
919.272	13788
919.383	13860
919.494	14069
919.604	14130
919.715	14046
919.826	13841
919.936	13917
920.047	14084
920.157	14005
920.267	14161
920.378	14001
920.488	13890
920.598	14206
920.708	14248
920.818	14115
920.928	14107
921.038	14332
921.148	14225
921.258	13974
921.368	13860
921.477	13742
921.587	13780
921.697	13559
921.806	13761
921.916	13563
922.025	13392
922.134	13381
922.244	13388
922.353	13403
922.462	13327
922.571	13118
922.68	12989
922.789	13072
922.898	13042
923.007	12973
923.116	12993
923.224	13012
923.333	12977
923.442	12897
923.55	12833
923.659	12954
923.767	12962
923.876	12829
923.984	12840
924.092	12757
924.201	12878
924.309	12848
924.417	12833
924.525	12726
924.633	12707
924.741	13643
924.849	12608
924.956	12574
925.064	12467
925.172	12418
925.279	12582
925.387	12555
925.494	12494
925.602	12585
925.709	12452
925.816	12353
925.924	12448
926.031	12547
926.138	12445
926.245	12445
926.352	12296
926.459	12445
926.566	12361
926.673	12437
926.779	12224
926.886	12304
926.993	12144
927.099	12106
927.206	12091
927.312	12091
927.419	12117
927.525	12026
927.631	11999
927.737	12015
927.843	11874
927.95	11752
928.056	11950
928.162	11912
928.267	11984
928.373	12597
928.479	11904
928.585	11737
928.69	11866
928.796	11920
928.901	11688
929.007	11638
929.112	11813
929.218	11691
929.323	11733
929.428	11615
929.533	11805
929.638	11653
929.743	11558
929.848	11657
929.953	11516
930.058	11474
930.163	11387
930.267	11349
930.372	11463
930.477	11292
930.581	11474
930.685	11440
930.79	11242
930.894	11296
930.998	11143
931.103	11349
931.207	10927
931.311	10953
931.415	10869
931.519	10649
931.623	10622
