Data from test_V78500241_1441.txt Node
Date: Fri Mar 25 15:19:53 CST 2022
User: usil
Spectrometer: V785-0024
Trigger mode: 0
Integration Time (sec): 4.000000E-1
Scans to average: 1
Nonlinearity correction enabled: false
Boxcar width: 0
Storing dark spectrum: false
XAxis mode: Wavelengths
Number of Pixels in Spectrum: 1024
>>>>>Begin Spectral Data<<<<<
801.071	28112
801.214	28139
801.356	27823
801.499	27724
801.641	27625
801.783	27618
801.926	27553
802.068	27648
802.211	27496
802.353	27568
802.496	27393
802.638	27355
802.78	27291
802.923	27306
803.065	27245
803.208	27344
803.35	27283
803.492	27492
803.635	27458
803.777	27340
803.919	27454
804.061	27835
804.204	27759
804.346	27523
804.488	27523
804.63	27557
804.773	27386
804.915	27526
805.057	27625
805.199	27561
805.341	27622
805.483	27667
805.626	27660
805.768	27538
805.91	27641
806.052	27652
806.194	27481
806.336	27892
806.478	27576
806.62	27686
806.762	27633
806.904	27956
807.046	28135
807.188	28070
807.33	27975
807.472	28173
807.614	28040
807.756	28017
807.898	27934
808.04	28017
808.182	27895
808.324	27960
808.465	28040
808.607	28158
808.749	28360
808.891	28382
809.033	28470
809.174	28440
809.316	28314
809.458	28322
809.6	28257
809.741	28527
809.883	28360
810.025	28611
810.166	28759
810.308	28618
810.45	28687
810.591	28607
810.733	28398
810.875	28303
811.016	28314
811.158	28325
811.299	28382
811.441	28466
811.582	28519
811.724	28333
811.865	28287
812.007	28375
812.148	28310
812.29	28375
812.431	28580
812.573	28729
812.714	28782
812.855	28816
812.997	28839
813.138	29109
813.279	29124
813.421	28896
813.562	28790
813.703	28679
813.845	28561
813.986	28348
814.127	28158
814.268	27991
814.41	27914
814.551	27972
814.692	28124
814.833	28101
814.974	28074
815.115	28013
815.256	27956
815.397	27945
815.539	27956
815.68	27937
815.821	27823
815.962	27759
816.103	27903
816.244	27774
816.385	27656
816.526	27625
816.666	27496
816.807	27310
816.948	27439
817.089	27435
817.23	27233
817.371	27313
817.512	27317
817.653	27450
817.793	27252
817.934	27302
818.075	27431
818.216	27367
818.356	27389
818.497	27211
818.638	27089
818.778	27085
818.919	27218
819.06	27108
819.2	27260
819.341	27340
819.481	27275
819.622	27564
819.762	27671
819.903	27717
820.043	27500
820.184	27435
820.324	27420
820.465	27427
820.605	27435
820.746	27439
820.886	27268
821.026	27382
821.167	27447
821.307	27424
821.447	27291
821.588	27313
821.728	27108
821.868	27017
822.008	26830
822.149	26796
822.289	26735
822.429	26575
822.569	26522
822.709	26537
822.849	26427
822.99	26301
823.13	26336
823.27	26225
823.41	26176
823.55	26088
823.69	26130
823.83	26206
823.97	26168
824.11	26020
824.25	25795
824.389	25921
824.529	26054
824.669	25932
824.809	26122
824.949	25894
825.089	26157
825.228	25997
825.368	25906
825.508	25906
825.648	25906
825.787	25719
825.927	25803
826.067	25822
826.206	25871
826.346	25909
826.485	25883
826.625	25795
826.765	26008
826.904	25936
827.044	25655
827.183	25605
827.323	25514
827.462	25556
827.601	25510
827.741	25567
827.88	25525
828.02	25464
828.159	25529
828.298	25533
828.437	25556
828.577	25392
828.716	25635
828.855	25533
828.994	25209
829.134	25327
829.273	25316
829.412	25156
829.551	25175
829.69	25217
829.829	25213
829.968	25274
830.107	25236
830.246	25133
830.385	25110
830.524	25133
830.663	24958
830.802	24935
830.941	24810
831.08	24757
831.219	24970
831.357	24981
831.496	25164
831.635	24848
831.774	24802
831.913	24563
832.051	24677
832.19	24608
832.329	24589
832.467	24563
832.606	24422
832.744	24369
832.883	24517
833.022	24483
833.16	24479
833.299	24593
833.437	24437
833.576	24604
833.714	24532
833.852	24593
833.991	24540
834.129	24749
834.267	24627
834.406	24665
834.544	24646
834.682	24570
834.821	24555
834.959	24715
835.097	24517
835.235	24616
835.373	24414
835.511	24418
835.65	24395
835.788	24357
835.926	24315
836.064	24224
836.202	24323
836.34	24376
836.478	24369
836.615	24407
836.753	24384
836.891	24608
837.029	24433
837.167	24296
837.305	24247
837.443	24224
837.58	24102
837.718	24300
837.856	24232
837.993	24095
838.131	24205
838.269	24148
838.406	24045
838.544	23939
838.681	23855
838.819	23790
838.956	23665
839.094	23585
839.231	23798
839.369	23733
839.506	24079
839.643	23863
839.781	23741
839.918	23714
840.055	23520
840.193	23710
840.33	23592
840.467	23638
840.604	23570
840.742	23866
840.879	23459
841.016	23535
841.153	23486
841.29	23596
841.427	23684
841.564	23611
841.701	23634
841.838	23585
841.975	23463
842.112	23596
842.249	23417
842.385	23280
842.522	23421
842.659	23463
842.796	23242
842.933	23402
843.069	23341
843.206	23296
843.343	23402
843.479	23345
843.616	23303
843.752	23258
843.889	23174
844.025	23341
844.162	23079
844.298	23193
844.435	23037
844.571	23033
844.708	23185
844.844	23311
844.98	23216
845.117	23170
845.253	23162
845.389	23044
845.525	22930
845.661	22946
845.798	22900
845.934	22923
846.07	22949
846.206	22862
846.342	23056
846.478	22793
846.614	22550
846.75	22512
846.886	22637
847.022	22554
847.158	22504
847.294	22573
847.429	22550
847.565	22474
847.701	22828
847.837	22367
847.972	22234
848.108	22314
848.244	22382
848.379	22291
848.515	22219
848.65	22181
848.786	22169
848.921	22295
849.057	22322
849.192	22257
849.328	22181
849.463	22097
849.598	22219
849.734	21930
849.869	22070
850.004	22032
850.14	22074
850.275	21926
850.41	21781
850.545	21903
850.68	21884
850.815	21831
850.95	21797
851.085	22162
851.22	22101
851.355	21892
851.49	22025
851.625	21857
851.76	21854
851.895	21873
852.03	21808
852.165	22006
852.299	21934
852.434	22002
852.569	21956
852.703	21835
852.838	21991
852.973	22082
853.107	22010
853.242	21892
853.376	21728
853.511	21637
853.645	21770
853.78	21808
853.914	21819
854.048	21660
854.183	21736
854.317	21739
854.451	21941
854.585	21827
854.72	21682
854.854	21895
854.988	21724
855.122	21793
855.256	21675
855.39	21766
855.524	21816
855.658	21846
855.792	21743
855.926	21800
856.06	21865
856.194	21983
856.327	21766
856.461	21641
856.595	21652
856.729	21705
856.862	21991
856.996	21823
857.13	21880
857.263	21816
857.397	21854
857.53	21865
857.664	21873
857.797	21895
857.931	21835
858.064	21812
858.197	21907
858.331	21751
858.464	21751
858.597	21622
858.731	21800
858.864	21648
858.997	21766
859.13	21854
859.263	21854
859.396	21755
859.529	21785
859.662	21728
859.795	21724
859.928	21728
860.061	21911
860.194	21979
860.327	21778
860.46	21812
860.592	21979
860.725	21880
860.858	21960
860.99	21838
861.123	21690
861.256	21690
861.388	21770
861.521	22356
861.653	21781
861.786	21458
861.918	21568
862.05	21660
862.183	21686
862.315	21694
862.447	21751
862.58	21663
862.712	21454
862.844	21618
862.976	21435
863.108	21511
863.24	21865
863.372	21382
863.504	21454
863.636	21447
863.768	21542
863.9	21447
864.032	21329
864.164	21477
864.296	21450
864.428	21428
864.559	21557
864.691	21603
864.823	21526
864.954	21466
865.086	21367
865.217	21447
865.349	21298
865.48	21428
865.612	21526
865.743	21526
865.875	21420
866.006	21298
866.137	21538
866.269	21401
866.4	21378
866.531	21313
866.662	21207
866.793	21252
866.924	21344
867.055	21272
867.186	21329
867.317	21405
867.448	21176
867.579	21214
867.71	21199
867.841	21203
867.972	21298
868.103	21264
868.233	21332
868.364	21165
868.495	21325
868.625	21450
868.756	21698
868.886	21561
869.017	21466
869.147	21644
869.278	21652
869.408	21523
869.539	21591
869.669	21595
869.799	21633
869.929	21660
870.06	21679
870.19	21800
870.32	21808
870.45	21869
870.58	21953
870.71	22055
870.84	22093
870.97	21888
871.1	21880
871.23	22074
871.36	22120
871.489	22078
871.619	22246
871.749	22124
871.879	22139
872.008	22268
872.138	22173
872.267	22120
872.397	21945
872.526	21850
872.656	21968
872.785	21956
872.915	22306
873.044	22272
873.173	22059
873.303	22272
873.432	22109
873.561	22211
873.69	22029
873.819	22147
873.948	22192
874.077	22059
874.206	22025
874.335	21991
874.464	22284
874.593	22375
874.722	22306
874.851	22322
874.979	22382
875.108	22428
875.237	22185
875.365	22234
875.494	22234
875.623	22371
875.751	22432
875.88	22329
876.008	22455
876.136	22577
876.265	22759
876.393	22656
876.521	22672
876.65	22869
876.778	22759
876.906	22729
877.034	22694
877.162	22660
877.29	22508
877.418	22694
877.546	22725
877.674	22759
877.802	22634
877.93	22660
878.058	22607
878.185	22622
878.313	22596
878.441	22729
878.568	22546
878.696	22664
878.824	22664
878.951	22729
879.079	22968
879.206	23052
879.333	22877
879.461	22729
879.588	22725
879.715	22782
879.842	22892
879.97	22691
880.097	22386
880.224	22649
880.351	22622
880.478	22451
880.605	22485
880.732	22542
880.859	22755
880.986	22542
881.112	22577
881.239	22200
881.366	22249
881.493	22261
881.619	22105
881.746	22196
881.872	22086
881.999	22135
882.125	22013
882.252	22097
882.378	22177
882.505	22238
882.631	21994
882.757	21857
882.883	21857
883.01	21945
883.136	21625
883.262	21599
883.388	21622
883.514	21816
883.64	21819
883.766	21622
883.892	21485
884.018	21591
884.143	21679
884.269	21793
884.395	21496
884.52	21351
884.646	21492
884.772	21401
884.897	21321
885.023	21386
885.148	21477
885.274	21519
885.399	21530
885.524	21344
885.65	21412
885.775	21485
885.9	21386
886.025	21542
886.15	21428
886.275	21367
886.4	21332
886.525	21481
886.65	21332
886.775	21272
886.9	21405
887.025	21599
887.149	21367
887.274	21287
887.399	21127
887.523	21291
887.648	21192
887.773	21108
887.897	21249
888.021	21214
888.146	21157
888.27	21317
888.395	21180
888.519	21233
888.643	21173
888.767	21252
888.891	21039
889.015	20967
889.139	21112
889.263	20975
889.387	21165
889.511	21230
889.635	21066
889.759	20944
889.883	20857
890.006	21116
890.13	21104
890.254	20823
890.377	20861
890.501	20823
890.624	20781
890.748	20765
890.871	20583
890.995	20450
891.118	20434
891.241	20461
891.364	20480
891.488	20644
891.611	20533
891.734	20461
891.857	20655
891.98	20465
892.103	20579
892.226	20511
892.349	20545
892.471	20267
892.594	20469
892.717	20415
892.839	20431
892.962	20442
893.085	20552
893.207	20484
893.33	20377
893.452	20415
893.575	20461
893.697	20476
893.819	20556
893.941	20648
894.064	20537
894.186	20415
894.308	20377
894.43	20446
894.552	20537
894.674	20518
894.796	20237
894.918	20324
895.04	20339
895.161	20434
895.283	20343
895.405	20347
895.526	20393
895.648	20415
895.769	20339
895.891	20423
896.012	20522
896.134	20438
896.255	20442
896.376	20332
896.498	20419
896.619	20465
896.74	20427
896.861	20522
896.982	20739
897.103	20906
897.224	20621
897.345	20587
897.466	20606
897.587	20575
897.708	20739
897.828	20651
897.949	20556
898.07	20412
898.19	20625
898.311	20678
898.431	20621
898.552	20579
898.672	20629
898.792	20777
898.913	20648
899.033	20419
899.153	20408
899.273	20336
899.393	20362
899.513	20415
899.633	20370
899.753	20423
899.873	20374
899.993	20434
900.113	20339
900.232	20374
900.352	20282
900.472	20202
900.591	20183
900.711	20187
900.83	20043
900.95	20233
901.069	20172
901.189	19959
901.308	19932
901.427	19784
901.546	19769
901.665	19772
901.784	19822
901.904	19613
902.023	19506
902.141	19392
902.26	19304
902.379	19324
902.498	19194
902.617	19320
902.735	19240
902.854	19202
902.973	19168
903.091	18875
903.21	18848
903.328	18875
903.446	18760
903.565	18696
903.683	18681
903.801	18741
903.919	18616
904.038	18646
904.156	18532
904.274	18597
904.392	18445
904.51	18525
904.627	18471
904.745	18407
904.863	18426
904.981	18258
905.098	18125
905.216	18159
905.334	18159
905.451	18190
905.569	18152
905.686	18167
905.803	18068
905.921	17961
906.038	17912
906.155	17863
906.272	17794
906.389	17824
906.506	17638
906.623	17794
906.74	17634
906.857	17592
906.974	17619
907.091	17619
907.208	17779
907.324	17714
907.441	17566
907.557	17455
907.674	17433
907.79	17353
907.907	17303
908.023	17402
908.139	17277
908.256	17334
908.372	17299
908.488	17159
908.604	17113
908.72	16995
908.836	17155
908.952	17071
909.068	17159
909.184	17311
909.3	17174
909.415	17193
909.531	17132
909.647	16847
909.762	16797
909.878	16805
909.993	16805
910.108	16710
910.224	16725
910.339	16675
910.454	16675
910.57	16599
910.685	16527
910.8	16797
910.915	16710
911.03	16618
911.145	16481
911.259	16424
911.374	16421
911.489	16333
911.604	16303
911.718	16124
911.833	16154
911.947	16116
912.062	15892
912.176	16032
912.291	16097
912.405	16158
912.519	16310
912.633	16421
912.748	16204
912.862	16112
912.976	15972
913.09	15804
913.204	15911
913.318	16063
913.431	16025
913.545	15941
913.659	16021
913.772	15926
913.886	15804
914	15747
914.113	15918
914.226	15812
914.34	15876
914.453	15614
914.566	15819
914.68	15755
914.793	15599
914.906	15526
915.019	15359
915.132	15325
915.245	15329
915.358	15389
915.47	15447
915.583	15283
915.696	15405
915.809	15447
915.921	15450
916.034	15260
916.146	15291
916.259	15279
916.371	15283
916.483	15256
916.595	15180
916.708	15363
916.82	15161
916.932	15055
917.044	15169
917.156	15154
917.268	15024
917.38	15062
917.491	15013
917.603	15020
917.715	15112
917.826	15066
917.938	14941
918.049	14826
918.161	14880
918.272	15062
918.384	15009
918.495	14952
918.606	14868
918.717	14640
918.828	14769
918.939	14667
919.05	14613
919.161	14705
919.272	14556
919.383	14590
919.494	14804
919.604	14857
919.715	14762
919.826	14617
919.936	14724
920.047	14857
920.157	14758
920.267	14883
920.378	14716
920.488	14682
920.598	14921
920.708	14960
920.818	14849
920.928	14849
921.038	14990
921.148	15032
921.258	14670
921.368	14480
921.477	14396
921.587	14393
921.697	14400
921.806	14476
921.916	14267
922.025	14252
922.134	14164
922.244	14012
922.353	14123
922.462	14005
922.571	13826
922.68	13784
922.789	13666
922.898	13723
923.007	13636
923.116	13677
923.224	13712
923.333	13727
923.442	13571
923.55	13506
923.659	13601
923.767	13590
923.876	13533
923.984	13624
924.092	13506
924.201	13460
924.309	13495
924.417	13460
924.525	13362
924.633	13320
924.741	14138
924.849	13141
924.956	13285
925.064	13129
925.172	12996
925.279	13057
925.387	13156
925.494	13034
925.602	13263
925.709	13190
925.816	13004
925.924	13019
926.031	13061
926.138	13103
926.245	13069
926.352	12966
926.459	13095
926.566	13217
926.673	12970
926.779	12848
926.886	12844
926.993	12745
927.099	12711
927.206	12585
927.312	12658
927.419	12779
927.525	12654
927.631	12608
927.737	12532
927.843	12517
927.95	12448
928.056	12437
928.162	12517
928.267	12498
928.373	13038
928.479	12589
928.585	12403
928.69	12509
928.796	12479
928.901	12357
929.007	12300
929.112	12323
929.218	12311
929.323	12228
929.428	12327
929.533	12338
929.638	12232
929.743	12209
929.848	12167
929.953	12178
930.058	12079
930.163	11961
930.267	11946
930.372	12068
930.477	11942
930.581	12072
930.685	11958
930.79	11748
930.894	11760
930.998	11703
931.103	11893
931.207	11551
931.311	11539
931.415	11410
931.519	11201
931.623	11170
