Data from test_V78500241_2145.txt Node
Date: Fri Mar 25 15:24:47 CST 2022
User: usil
Spectrometer: V785-0024
Trigger mode: 0
Integration Time (sec): 4.000000E-1
Scans to average: 1
Nonlinearity correction enabled: false
Boxcar width: 0
Storing dark spectrum: false
XAxis mode: Wavelengths
Number of Pixels in Spectrum: 1024
>>>>>Begin Spectral Data<<<<<
801.071	27313
801.214	27370
801.356	27135
801.499	27001
801.641	26899
801.783	26982
801.926	26891
802.068	26902
802.211	26876
802.353	26845
802.496	26587
802.638	26670
802.78	26545
802.923	26564
803.065	26503
803.208	26476
803.35	26526
803.492	26670
803.635	26773
803.777	26765
803.919	26781
804.061	27085
804.204	26853
804.346	26735
804.488	26632
804.63	26914
804.773	26667
804.915	26781
805.057	26792
805.199	26739
805.341	26864
805.483	26902
805.626	26834
805.768	26754
805.91	26998
806.052	26940
806.194	26765
806.336	26880
806.478	26940
806.62	26785
806.762	27005
806.904	27020
807.046	27252
807.188	27374
807.33	27275
807.472	27268
807.614	27131
807.756	27275
807.898	27127
808.04	27142
808.182	27157
808.324	27211
808.465	27279
808.607	27382
808.749	27622
808.891	27515
809.033	27523
809.174	27724
809.316	27424
809.458	27523
809.6	27511
809.741	27561
809.883	27469
810.025	27739
810.166	27880
810.308	27812
810.45	27572
810.591	27755
810.733	27477
810.875	27329
811.016	27416
811.158	27340
811.299	27561
811.441	27564
811.582	27542
811.724	27500
811.865	27496
812.007	27477
812.148	27424
812.29	27530
812.431	27500
812.573	27774
812.714	27835
812.855	27968
812.997	28158
813.138	28204
813.279	28078
813.421	28040
813.562	27846
813.703	27899
813.845	27686
813.986	27317
814.127	27066
814.268	27154
814.41	27173
814.551	27150
814.692	27241
814.833	27066
814.974	27058
815.115	27268
815.256	26998
815.397	26937
815.539	26925
815.68	26925
815.821	26876
815.962	26918
816.103	26876
816.244	26796
816.385	26739
816.526	26602
816.666	26492
816.807	26381
816.948	26613
817.089	26492
817.23	26465
817.371	26366
817.512	26438
817.653	26415
817.793	26408
817.934	26400
818.075	26358
818.216	26396
818.356	26332
818.497	26229
818.638	26157
818.778	26050
818.919	26157
819.06	26206
819.2	26214
819.341	26434
819.481	26298
819.622	26446
819.762	26693
819.903	26648
820.043	26419
820.184	26511
820.324	26419
820.465	26590
820.605	26537
820.746	26480
820.886	26412
821.026	26606
821.167	26389
821.307	26606
821.447	26412
821.588	26309
821.728	26248
821.868	26058
822.008	25868
822.149	25978
822.289	25727
822.429	25506
822.569	25422
822.709	25483
822.849	25400
822.99	25350
823.13	25464
823.27	25335
823.41	25168
823.55	25069
823.69	25217
823.83	25251
823.97	25080
824.11	25031
824.25	25023
824.389	24954
824.529	24958
824.669	25129
824.809	25126
824.949	25095
825.089	25050
825.228	24989
825.368	24719
825.508	24802
825.648	24844
825.787	24924
825.927	24920
826.067	24734
826.206	24749
826.346	24837
826.485	24825
826.625	24859
826.765	24958
826.904	24859
827.044	24669
827.183	24631
827.323	24669
827.462	24669
827.601	24559
827.741	24490
827.88	24555
828.02	24376
828.159	24665
828.298	24631
828.437	24589
828.577	24525
828.716	24650
828.855	24448
828.994	24304
829.134	24251
829.273	24281
829.412	24197
829.551	24235
829.69	24300
829.829	24178
829.968	24380
830.107	24205
830.246	24190
830.385	24239
830.524	24133
830.663	23980
830.802	23980
830.941	24049
831.08	23866
831.219	23965
831.357	23992
831.496	24079
831.635	23904
831.774	23836
831.913	23752
832.051	23737
832.19	23547
832.329	23668
832.467	23566
832.606	23398
832.744	23528
832.883	23379
833.022	23452
833.16	23554
833.299	23657
833.437	23486
833.576	23528
833.714	23691
833.852	23802
833.991	23600
834.129	23638
834.267	23741
834.406	23551
834.544	23665
834.682	23482
834.821	23615
834.959	23676
835.097	23493
835.235	23562
835.373	23535
835.511	23634
835.65	23440
835.788	23349
835.926	23235
836.064	23280
836.202	23288
836.34	23562
836.478	23516
836.615	23391
836.753	23524
836.891	23512
837.029	23402
837.167	23379
837.305	23387
837.443	23341
837.58	23280
837.718	23208
837.856	23296
837.993	23254
838.131	23212
838.269	23189
838.406	23231
838.544	23086
838.681	22953
838.819	23022
838.956	22733
839.094	22717
839.231	22771
839.369	22957
839.506	23178
839.643	23006
839.781	22687
839.918	22656
840.055	22736
840.193	22664
840.33	22725
840.467	22683
840.604	22656
840.742	22892
840.879	22481
841.016	22611
841.153	22413
841.29	22828
841.427	22721
841.564	22706
841.701	22592
841.838	22489
841.975	22573
842.112	22577
842.249	22554
842.385	22360
842.522	22577
842.659	22371
842.796	22253
842.933	22390
843.069	22291
843.206	22394
843.343	22428
843.479	22436
843.616	22531
843.752	22135
843.889	22192
844.025	22318
844.162	22150
844.298	22211
844.435	22162
844.571	22090
844.708	22188
844.844	22238
844.98	22451
845.117	22287
845.253	22036
845.389	22025
845.525	22124
845.661	21983
845.798	21888
845.934	22032
846.07	21899
846.206	21922
846.342	22025
846.478	21972
846.614	21698
846.75	21686
846.886	21667
847.022	21690
847.158	21637
847.294	21603
847.429	21732
847.565	21568
847.701	22059
847.837	21393
847.972	21389
848.108	21443
848.244	21389
848.379	21298
848.515	21294
848.65	21180
848.786	21249
848.921	21226
849.057	21272
849.192	21367
849.328	21249
849.463	21294
849.598	21272
849.734	21127
849.869	21085
850.004	21036
850.14	21074
850.275	21043
850.41	20902
850.545	21055
850.68	21017
850.815	21024
850.95	20921
851.085	21245
851.22	21070
851.355	20948
851.49	20990
851.625	20895
851.76	21070
851.895	20876
852.03	20857
852.165	21070
852.299	21036
852.434	21058
852.569	20960
852.703	20880
852.838	21089
852.973	21192
853.107	21055
853.242	20944
853.376	20807
853.511	20765
853.645	20739
853.78	21032
853.914	20823
854.048	20716
854.183	20815
854.317	20864
854.451	20921
854.585	20834
854.72	20697
854.854	20967
854.988	20769
855.122	20773
855.256	20697
855.39	20876
855.524	20792
855.658	20941
855.792	20906
855.926	20735
856.06	20914
856.194	20921
856.327	20857
856.461	20861
856.595	20693
856.729	20823
856.862	20910
856.996	20800
857.13	20823
857.263	20937
857.397	20906
857.53	20876
857.664	20826
857.797	20952
857.931	20925
858.064	20880
858.197	20963
858.331	20724
858.464	20686
858.597	20693
858.731	20830
858.864	20819
858.997	20838
859.13	20811
859.263	20815
859.396	20842
859.529	20815
859.662	20773
859.795	20826
859.928	20857
860.061	20921
860.194	21024
860.327	20826
860.46	20785
860.592	20979
860.725	21055
860.858	20921
860.99	20887
861.123	20788
861.256	20758
861.388	20765
861.521	21458
861.653	20674
861.786	20606
861.918	20659
862.05	20712
862.183	20667
862.315	20842
862.447	20838
862.58	20697
862.712	20556
862.844	20568
862.976	20697
863.108	20617
863.24	20994
863.372	20488
863.504	20560
863.636	20480
863.768	20587
863.9	20537
864.032	20495
864.164	20480
864.296	20625
864.428	20579
864.559	20530
864.691	20632
864.823	20541
864.954	20495
865.086	20530
865.217	20480
865.349	20374
865.48	20442
865.612	20488
865.743	20609
865.875	20488
866.006	20415
866.137	20415
866.269	20370
866.4	20454
866.531	20339
866.662	20313
866.793	20278
866.924	20309
867.055	20324
867.186	20298
867.317	20385
867.448	20298
867.579	20377
867.71	20271
867.841	20259
867.972	20393
868.103	20454
868.233	20396
868.364	20343
868.495	20511
868.625	20537
868.756	20724
868.886	20537
869.017	20678
869.147	20636
869.278	20765
869.408	20590
869.539	20609
869.669	20689
869.799	20545
869.929	20773
870.06	20731
870.19	20838
870.32	20891
870.45	20994
870.58	21081
870.71	21074
870.84	21062
870.97	20960
871.1	20906
871.23	21169
871.36	21222
871.489	21142
871.619	21055
871.749	21138
871.879	21230
872.008	21386
872.138	21291
872.267	21161
872.397	21116
872.526	21024
872.656	21138
872.785	21100
872.915	21173
873.044	21302
873.173	21359
873.303	21264
873.432	21321
873.561	21370
873.69	21264
873.819	21230
873.948	21268
874.077	21264
874.206	21096
874.335	21211
874.464	21363
874.593	21428
874.722	21428
874.851	21439
874.979	21545
875.108	21538
875.237	21348
875.365	21348
875.494	21344
875.623	21523
875.751	21469
875.88	21583
876.008	21595
876.136	21526
876.265	21842
876.393	21987
876.521	21835
876.65	21888
876.778	21926
876.906	21854
877.034	21819
877.162	21804
877.29	21793
877.418	21755
877.546	21823
877.674	21694
877.802	21880
877.93	22002
878.058	21831
878.185	21785
878.313	21778
878.441	21759
878.568	21561
878.696	21717
878.824	21934
878.951	21876
879.079	22051
879.206	22154
879.333	21934
879.461	21808
879.588	21850
879.715	22070
879.842	22188
879.97	21835
880.097	21580
880.224	21595
880.351	21686
880.478	21660
880.605	21583
880.732	21633
880.859	21998
880.986	21675
881.112	21530
881.239	21500
881.366	21344
881.493	21306
881.619	21256
881.746	21233
881.872	21203
881.999	21237
882.125	21146
882.252	21317
882.378	21256
882.505	21218
882.631	21157
882.757	21085
882.883	20963
883.01	20925
883.136	20796
883.262	20823
883.388	20838
883.514	21009
883.64	20918
883.766	20994
883.892	20765
884.018	20609
884.143	20864
884.269	20876
884.395	20678
884.52	20617
884.646	20526
884.772	20431
884.897	20526
885.023	20594
885.148	20670
885.274	20655
885.399	20632
885.524	20526
885.65	20549
885.775	20571
885.9	20549
886.025	20678
886.15	20678
886.275	20575
886.4	20499
886.525	20469
886.65	20568
886.775	20492
886.9	20682
887.025	20765
887.149	20549
887.274	20332
887.399	20332
887.523	20301
887.648	20244
887.773	20294
887.897	20552
888.021	20385
888.146	20339
888.27	20457
888.395	20495
888.519	20374
888.643	20305
888.767	20393
888.891	20221
889.015	20218
889.139	20275
889.263	20107
889.387	20290
889.511	20393
889.635	20237
889.759	20138
889.883	20164
890.006	20195
890.13	20233
890.254	20008
890.377	20100
890.501	19936
890.624	19830
890.748	20016
890.871	19818
890.995	19738
891.118	19723
891.241	19765
891.364	19674
891.488	19799
891.611	19700
891.734	19719
891.857	19666
891.98	19757
892.103	19700
892.226	19719
892.349	19605
892.471	19582
892.594	19537
892.717	19666
892.839	19620
892.962	19647
893.085	19772
893.207	19666
893.33	19518
893.452	19495
893.575	19662
893.697	19605
893.819	19913
893.941	19856
894.064	19704
894.186	19559
894.308	19533
894.43	19715
894.552	19712
894.674	19704
894.796	19506
894.918	19658
895.04	19693
895.161	19685
895.283	19700
895.405	19571
895.526	19601
895.648	19681
895.769	19681
895.891	19696
896.012	19776
896.134	19655
896.255	19677
896.376	19655
896.498	19674
896.619	19696
896.74	19613
896.861	19822
896.982	19986
897.103	20062
897.224	19947
897.345	19932
897.466	19757
897.587	19791
897.708	20050
897.828	19856
897.949	19864
898.07	19769
898.19	19879
898.311	19982
898.431	19830
898.552	19879
898.672	19917
898.792	19925
898.913	19986
899.033	19708
899.153	19609
899.273	19685
899.393	19655
899.513	19670
899.633	19761
899.753	19624
899.873	19537
899.993	19723
900.113	19563
900.232	19628
900.352	19495
900.472	19483
900.591	19373
900.711	19434
900.83	19369
900.95	19567
901.069	19556
901.189	19327
901.308	19141
901.427	18939
901.546	19057
901.665	19076
901.784	19080
901.904	18913
902.023	18745
902.141	18631
902.26	18559
902.379	18661
902.498	18726
902.617	18566
902.735	18585
902.854	18544
902.973	18502
903.091	18247
903.21	18258
903.328	18270
903.446	18152
903.565	18034
903.683	18019
903.801	17984
903.919	18049
904.038	17878
904.156	17904
904.274	17897
904.392	17859
904.51	17843
904.627	17866
904.745	17764
904.863	17737
904.981	17600
905.098	17410
905.216	17543
905.334	17547
905.451	17573
905.569	17436
905.686	17570
905.803	17448
905.921	17162
906.038	17383
906.155	17288
906.272	17079
906.389	17220
906.506	17029
906.623	17052
906.74	16968
906.857	16835
906.974	16919
907.091	17086
907.208	17132
907.324	16957
907.441	16885
907.557	16736
907.674	16778
907.79	16649
907.907	16755
908.023	16763
908.139	16694
908.256	16679
908.372	16637
908.488	16592
908.604	16470
908.72	16535
908.836	16417
908.952	16386
909.068	16489
909.184	16455
909.3	16405
909.415	16447
909.531	16386
909.647	16192
909.762	16120
909.878	16139
909.993	16116
910.108	16120
910.224	16196
910.339	16185
910.454	16025
910.57	15930
910.685	15956
910.8	16143
910.915	16169
911.03	16013
911.145	15724
911.259	15759
911.374	15694
911.489	15682
911.604	15564
911.718	15469
911.833	15561
911.947	15386
912.062	15287
912.176	15462
912.291	15473
912.405	15424
912.519	15751
912.633	15656
912.748	15534
912.862	15466
912.976	15233
913.09	15146
913.204	15260
913.318	15348
913.431	15389
913.545	15405
913.659	15355
913.772	15142
913.886	15199
914	15176
914.113	15245
914.226	15249
914.34	15142
914.453	15032
914.566	15161
914.68	14998
914.793	14914
914.906	14830
915.019	14777
915.132	14712
915.245	14769
915.358	14705
915.47	14686
915.583	14712
915.696	14712
915.809	14872
915.921	14895
916.034	14720
916.146	14716
916.259	14625
916.371	14651
916.483	14670
916.595	14613
916.708	14579
916.82	14427
916.932	14492
917.044	14461
917.156	14514
917.268	14396
917.38	14431
917.491	14400
917.603	14396
917.715	14377
917.826	14465
917.938	14324
918.049	14233
918.161	14412
918.272	14571
918.384	14457
918.495	14286
918.606	14195
918.717	14237
918.828	14214
918.939	14161
919.05	14130
919.161	14195
919.272	13997
919.383	13982
919.494	14161
919.604	14332
919.715	14168
919.826	14031
919.936	13955
920.047	14275
920.157	14187
920.267	14320
920.378	14164
920.488	14157
920.598	14301
920.708	14400
920.818	14267
920.928	14210
921.038	14431
921.148	14374
921.258	14024
921.368	14065
921.477	13921
921.587	13932
921.697	13750
921.806	13871
921.916	13788
922.025	13670
922.134	13476
922.244	13480
922.353	13559
922.462	13445
922.571	13365
922.68	13198
922.789	13107
922.898	13129
923.007	13164
923.116	13126
923.224	13213
923.333	13103
923.442	13198
923.55	12973
923.659	13072
923.767	13137
923.876	12958
923.984	12966
924.092	12966
924.201	12962
924.309	12817
924.417	13008
924.525	12856
924.633	12882
924.741	13685
924.849	12681
924.956	12867
925.064	12726
925.172	12536
925.279	12566
925.387	12654
925.494	12639
925.602	12700
925.709	12665
925.816	12585
925.924	12608
926.031	12684
926.138	12559
926.245	12604
926.352	12467
926.459	12593
926.566	12745
926.673	12479
926.779	12410
926.886	12445
926.993	12251
927.099	12171
927.206	12216
927.312	12136
927.419	12281
927.525	12285
927.631	12216
927.737	12095
927.843	12117
927.95	12053
928.056	12121
928.162	12041
928.267	12026
928.373	12673
928.479	12125
928.585	11813
928.69	11935
928.796	11958
928.901	11893
929.007	11741
929.112	11866
929.218	11821
929.323	11714
929.428	11783
929.533	11908
929.638	11733
929.743	11726
929.848	11722
929.953	11714
930.058	11589
930.163	11501
930.267	11425
930.372	11566
930.477	11360
930.581	11691
930.685	11532
930.79	11307
930.894	11356
930.998	11250
931.103	11455
931.207	11037
931.311	11003
931.415	10896
931.519	10702
931.623	10717
