Data from test_V78500241_10.txt Node
Date: Fri Mar 25 15:09:56 CST 2022
User: usil
Spectrometer: V785-0024
Trigger mode: 0
Integration Time (sec): 4.000000E-1
Scans to average: 1
Nonlinearity correction enabled: false
Boxcar width: 0
Storing dark spectrum: false
XAxis mode: Wavelengths
Number of Pixels in Spectrum: 1024
>>>>>Begin Spectral Data<<<<<
801.071	27755
801.214	27496
801.356	27424
801.499	27294
801.641	27161
801.783	27032
801.926	27131
802.068	27176
802.211	27043
802.353	26998
802.496	26849
802.638	26716
802.78	26765
802.923	26689
803.065	26644
803.208	26678
803.35	26750
803.492	26750
803.635	26823
803.777	26708
803.919	26842
804.061	27077
804.204	26731
804.346	26613
804.488	26693
804.63	26701
804.773	26629
804.915	26727
805.057	26765
805.199	26594
805.341	26693
805.483	26781
805.626	26705
805.768	26682
805.91	26670
806.052	26876
806.194	26644
806.336	26750
806.478	26724
806.62	26720
806.762	26826
806.904	26918
807.046	27047
807.188	26986
807.33	26940
807.472	27058
807.614	26963
807.756	26963
807.898	26804
808.04	26895
808.182	26727
808.324	26811
808.465	26891
808.607	26834
808.749	26963
808.891	27161
809.033	27230
809.174	27169
809.316	27176
809.458	27119
809.6	27154
809.741	27093
809.883	27233
810.025	27370
810.166	27363
810.308	27431
810.45	27435
810.591	27431
810.733	27055
810.875	26986
811.016	27066
811.158	26918
811.299	26998
811.441	27119
811.582	27119
811.724	27062
811.865	27028
812.007	26971
812.148	26994
812.29	26982
812.431	27089
812.573	27332
812.714	27405
812.855	27435
812.997	27610
813.138	27705
813.279	27732
813.421	27500
813.562	27370
813.703	27252
813.845	27298
813.986	26906
814.127	26811
814.268	26697
814.41	26663
814.551	26526
814.692	26644
814.833	26537
814.974	26590
815.115	26507
815.256	26404
815.397	26419
815.539	26431
815.68	26313
815.821	26210
815.962	26393
816.103	26320
816.244	26115
816.385	25997
816.526	25921
816.666	25795
816.807	25738
816.948	25776
817.089	25807
817.23	25852
817.371	25647
817.512	25639
817.653	25601
817.793	25624
817.934	25620
818.075	25674
818.216	25624
818.356	25628
818.497	25464
818.638	25274
818.778	25373
818.919	25396
819.06	25354
819.2	25358
819.341	25415
819.481	25483
819.622	25753
819.762	25917
819.903	25811
820.043	25753
820.184	25746
820.324	25597
820.465	25750
820.605	25586
820.746	25662
820.886	25552
821.026	25525
821.167	25544
821.307	25700
821.447	25537
821.588	25479
821.728	25263
821.868	25179
822.008	25000
822.149	24920
822.289	24989
822.429	24764
822.569	24669
822.709	24711
822.849	24483
822.99	24445
823.13	24452
823.27	24418
823.41	24190
823.55	24095
823.69	24384
823.83	24281
823.97	24064
824.11	23920
824.25	23984
824.389	23870
824.529	24148
824.669	24034
824.809	24201
824.949	24003
825.089	24106
825.228	24011
825.368	23901
825.508	23980
825.648	23672
825.787	23767
825.927	23950
826.067	23729
826.206	23699
826.346	23897
826.485	23790
826.625	23741
826.765	23889
826.904	23798
827.044	23566
827.183	23543
827.323	23414
827.462	23531
827.601	23531
827.741	23406
827.88	23501
828.02	23223
828.159	23376
828.298	23516
828.437	23444
828.577	23448
828.716	23486
828.855	23406
828.994	23204
829.134	23121
829.273	23193
829.412	23086
829.551	23075
829.69	23132
829.829	23170
829.968	23155
830.107	23102
830.246	23117
830.385	23132
830.524	22984
830.663	22957
830.802	22866
830.941	22752
831.08	22679
831.219	22778
831.357	22713
831.496	22938
831.635	22790
831.774	22535
831.913	22565
832.051	22424
832.19	22432
832.329	22451
832.467	22272
832.606	22299
832.744	22318
832.883	22280
833.022	22177
833.16	22341
833.299	22173
833.437	22272
833.576	22226
833.714	22284
833.852	22394
833.991	22352
834.129	22363
834.267	22363
834.406	22318
834.544	22356
834.682	22314
834.821	22219
834.959	22527
835.097	22230
835.235	22405
835.373	22284
835.511	22211
835.65	22128
835.788	22124
835.926	21953
836.064	21876
836.202	22010
836.34	22192
836.478	22246
836.615	22029
836.753	22055
836.891	22139
837.029	22090
837.167	22166
837.305	22090
837.443	21945
837.58	21903
837.718	22017
837.856	21975
837.993	21907
838.131	21766
838.269	21789
838.406	21903
838.544	21846
838.681	21515
838.819	21625
838.956	21500
839.094	21344
839.231	21450
839.369	21469
839.506	21717
839.643	21549
839.781	21450
839.918	21283
840.055	21344
840.193	21325
840.33	21279
840.467	21313
840.604	21252
840.742	21618
840.879	21184
841.016	21123
841.153	21211
841.29	21386
841.427	21291
841.564	21355
841.701	21306
841.838	21245
841.975	21161
842.112	21142
842.249	20994
842.385	21036
842.522	21226
842.659	20918
842.796	20944
842.933	20956
843.069	20914
843.206	20925
843.343	20971
843.479	21005
843.616	20990
843.752	20765
843.889	20716
844.025	20895
844.162	20640
844.298	20746
844.435	20754
844.571	20632
844.708	20788
844.844	20807
844.98	20834
845.117	20781
845.253	20648
845.389	20674
845.525	20606
845.661	20522
845.798	20431
845.934	20537
846.07	20404
846.206	20396
846.342	20571
846.478	20537
846.614	20415
846.75	20214
846.886	20180
847.022	20229
847.158	20252
847.294	20142
847.429	20202
847.565	20214
847.701	20408
847.837	19864
847.972	19841
848.108	19982
848.244	20012
848.379	19791
848.515	19795
848.65	19723
848.786	19795
848.921	19643
849.057	19868
849.192	19788
849.328	19784
849.463	19750
849.598	19613
849.734	19647
849.869	19571
850.004	19480
850.14	19514
850.275	19464
850.41	19270
850.545	19407
850.68	19453
850.815	19415
850.95	19339
851.085	19704
851.22	19616
851.355	19403
851.49	19365
851.625	19331
851.76	19388
851.895	19316
852.03	19320
852.165	19441
852.299	19426
852.434	19468
852.569	19365
852.703	19480
852.838	19407
852.973	19556
853.107	19487
853.242	19320
853.376	19202
853.511	19217
853.645	19202
853.78	19369
853.914	19259
854.048	19236
854.183	19190
854.317	19148
854.451	19354
854.585	19221
854.72	19187
854.854	19354
854.988	19183
855.122	19080
855.256	19110
855.39	19213
855.524	19278
855.658	19282
855.792	19263
855.926	19324
856.06	19327
856.194	19308
856.327	19175
856.461	19232
856.595	19095
856.729	19236
856.862	19335
856.996	19206
857.13	19259
857.263	19316
857.397	19232
857.53	19343
857.664	19213
857.797	19247
857.931	19388
858.064	19168
858.197	19415
858.331	19206
858.464	19069
858.597	19156
858.731	19164
858.864	19103
858.997	19183
859.13	19232
859.263	19152
859.396	19202
859.529	19095
859.662	19031
859.795	19114
859.928	19206
860.061	19316
860.194	19392
860.327	19091
860.46	19148
860.592	19350
860.725	19213
860.858	19213
860.99	19137
861.123	19038
861.256	18977
861.388	19129
861.521	19651
861.653	19076
861.786	19088
861.918	19000
862.05	19107
862.183	19198
862.315	19240
862.447	19377
862.58	19190
862.712	19023
862.844	18966
862.976	18928
863.108	18973
863.24	19415
863.372	18863
863.504	18867
863.636	18810
863.768	18954
863.9	18932
864.032	18715
864.164	18730
864.296	18897
864.428	18871
864.559	18894
864.691	18920
864.823	18878
864.954	18833
865.086	18901
865.217	18779
865.349	18757
865.48	18696
865.612	18821
865.743	18867
865.875	18753
866.006	18738
866.137	18817
866.269	18734
866.4	18696
866.531	18696
866.662	18661
866.793	18696
866.924	18612
867.055	18814
867.186	18703
867.317	18696
867.448	18517
867.579	18696
867.71	18627
867.841	18551
867.972	18730
868.103	18658
868.233	18658
868.364	18612
868.495	18768
868.625	18989
868.756	19065
868.886	18833
869.017	19000
869.147	19034
869.278	19065
869.408	18981
869.539	18859
869.669	19012
869.799	18913
869.929	19050
870.06	19057
870.19	19213
870.32	19217
870.45	19274
870.58	19293
870.71	19434
870.84	19403
870.97	19354
871.1	19373
871.23	19411
871.36	19559
871.489	19491
871.619	19613
871.749	19544
871.879	19529
872.008	19635
872.138	19635
872.267	19460
872.397	19362
872.526	19308
872.656	19206
872.785	19324
872.915	19651
873.044	19563
873.173	19514
873.303	19529
873.432	19582
873.561	19670
873.69	19605
873.819	19582
873.948	19658
874.077	19514
874.206	19601
874.335	19548
874.464	19807
874.593	19757
874.722	19818
874.851	19974
874.979	19890
875.108	19909
875.237	19784
875.365	19784
875.494	19795
875.623	19849
875.751	19849
875.88	19830
876.008	20035
876.136	20035
876.265	20324
876.393	20358
876.521	20381
876.65	20237
876.778	20332
876.906	20161
877.034	20126
877.162	20164
877.29	20077
877.418	20122
877.546	20248
877.674	20214
877.802	20210
877.93	20187
878.058	20100
878.185	20039
878.313	20065
878.441	20107
878.568	19932
878.696	20092
878.824	20282
878.951	20313
879.079	20355
879.206	20377
879.333	20377
879.461	20161
879.588	20286
879.715	20465
879.842	20488
879.97	20172
880.097	20005
880.224	20024
880.351	20138
880.478	20027
880.605	19986
880.732	19951
880.859	20206
880.986	20100
881.112	20058
881.239	19928
881.366	19871
881.493	19639
881.619	19685
881.746	19750
881.872	19575
881.999	19586
882.125	19529
882.252	19655
882.378	19639
882.505	19715
882.631	19537
882.757	19297
882.883	19468
883.01	19358
883.136	19346
883.262	19324
883.388	19320
883.514	19392
883.64	19358
883.766	19346
883.892	19194
884.018	19274
884.143	19430
884.269	19499
884.395	19198
884.52	19069
884.646	19072
884.772	18989
884.897	18935
885.023	19114
885.148	19160
885.274	19297
885.399	19190
885.524	19084
885.65	19141
885.775	19198
885.9	19050
886.025	19198
886.15	19164
886.275	18939
886.4	18890
886.525	18996
886.65	18882
886.775	18954
886.9	19175
887.025	19274
887.149	19072
887.274	18863
887.399	18787
887.523	18867
887.648	18715
887.773	18642
887.897	18810
888.021	18772
888.146	18916
888.27	18821
888.395	18939
888.519	18829
888.643	18920
888.767	18814
888.891	18722
889.015	18658
889.139	18646
889.263	18608
889.387	18631
889.511	18894
889.635	18669
889.759	18673
889.883	18566
890.006	18635
890.13	18696
890.254	18441
890.377	18460
890.501	18338
890.624	18403
890.748	18494
890.871	18327
890.995	18342
891.118	18213
891.241	18224
891.364	18209
891.488	18353
891.611	18330
891.734	18243
891.857	18266
891.98	18315
892.103	18220
892.226	18224
892.349	18220
892.471	18060
892.594	18140
892.717	18239
892.839	18171
892.962	18159
893.085	18182
893.207	18049
893.33	18038
893.452	18087
893.575	18308
893.697	18197
893.819	18315
893.941	18441
894.064	18270
894.186	18129
894.308	18155
894.43	18281
894.552	18369
894.674	18209
894.796	18041
894.918	18243
895.04	18114
895.161	18342
895.283	18163
895.405	18110
895.526	18148
895.648	18251
895.769	18205
895.891	18251
896.012	18281
896.134	18239
896.255	18273
896.376	18190
896.498	18304
896.619	18380
896.74	18277
896.861	18361
896.982	18665
897.103	18844
897.224	18555
897.345	18422
897.466	18452
897.587	18486
897.708	18642
897.828	18544
897.949	18445
898.07	18292
898.19	18361
898.311	18589
898.431	18475
898.552	18365
898.672	18486
898.792	18445
898.913	18437
899.033	18372
899.153	18311
899.273	18095
899.393	18228
899.513	18201
899.633	18178
899.753	18216
899.873	18129
899.993	18186
900.113	18167
900.232	18209
900.352	18007
900.472	18034
900.591	17984
900.711	18011
900.83	17897
900.95	18106
901.069	18140
901.189	17958
901.308	17764
901.427	17608
901.546	17684
901.665	17745
901.784	17699
901.904	17528
902.023	17349
902.141	17223
902.26	17155
902.379	17254
902.498	17079
902.617	17079
902.735	17181
902.854	17083
902.973	17064
903.091	16889
903.21	16828
903.328	16733
903.446	16733
903.565	16793
903.683	16713
903.801	16489
903.919	16607
904.038	16630
904.156	16398
904.274	16607
904.392	16402
904.51	16466
904.627	16276
904.745	16413
904.863	16447
904.981	16238
905.098	16105
905.216	16048
905.334	16128
905.451	16181
905.569	16086
905.686	16246
905.803	16097
905.921	15812
906.038	16017
906.155	15960
906.272	15831
906.389	15774
906.506	15652
906.623	15606
906.74	15614
906.857	15610
906.974	15603
907.091	15701
907.208	15865
907.324	15667
907.441	15496
907.557	15386
907.674	15416
907.79	15279
907.907	15245
908.023	15428
908.139	15336
908.256	15237
908.372	15245
908.488	15249
908.604	15097
908.72	15074
908.836	15047
908.952	15039
909.068	15055
909.184	15108
909.3	15043
909.415	15024
909.531	15081
909.647	14868
909.762	14678
909.878	14708
909.993	14785
910.108	14785
910.224	14781
910.339	14750
910.454	14640
910.57	14667
910.685	14537
910.8	14788
910.915	14754
911.03	14621
911.145	14412
911.259	14396
911.374	14385
911.489	14278
911.604	14256
911.718	14069
911.833	14199
911.947	13967
912.062	13932
912.176	14043
912.291	14008
912.405	14031
912.519	14267
912.633	14328
912.748	14130
912.862	14081
912.976	13967
913.09	13791
913.204	13947
913.318	13860
913.431	14043
913.545	14027
913.659	13925
913.772	13959
913.886	13784
914	13738
914.113	13906
914.226	13944
914.34	13890
914.453	13609
914.566	13883
914.68	13674
914.793	13658
914.906	13499
915.019	13457
915.132	13335
915.245	13430
915.358	13430
915.47	13460
915.583	13415
915.696	13495
915.809	13559
915.921	13594
916.034	13354
916.146	13377
916.259	13247
916.371	13419
916.483	13403
916.595	13236
916.708	13263
916.82	13373
916.932	13255
917.044	13247
917.156	13247
917.268	13149
917.38	13152
917.491	13103
917.603	13107
917.715	13293
917.826	13282
917.938	13080
918.049	13031
918.161	13118
918.272	13225
918.384	13232
918.495	13152
918.606	12901
918.717	12897
918.828	12894
918.939	12916
919.05	12863
919.161	12913
919.272	12741
919.383	12837
919.494	12962
919.604	13069
919.715	12909
919.826	12730
919.936	12817
920.047	12989
920.157	12924
920.267	13042
920.378	12928
920.488	12787
920.598	13023
920.708	13175
920.818	13084
920.928	13015
921.038	13168
921.148	13171
921.258	12932
921.368	12768
921.477	12692
921.587	12601
921.697	12544
921.806	12662
921.916	12475
922.025	12289
922.134	12311
922.244	12327
922.353	12361
922.462	12228
922.571	12060
922.68	11996
922.789	11961
922.898	11980
923.007	11878
923.116	12079
923.224	11935
923.333	11893
923.442	11786
923.55	11775
923.659	11805
923.767	12015
923.876	11840
923.984	11802
924.092	11672
924.201	11790
924.309	11737
924.417	11710
924.525	11691
924.633	11752
924.741	12479
924.849	11448
924.956	11547
925.064	11532
925.172	11402
925.279	11406
925.387	11535
925.494	11600
925.602	11634
925.709	11615
925.816	11360
925.924	11398
926.031	11585
926.138	11452
926.245	11429
926.352	11356
926.459	11528
926.566	11554
926.673	11341
926.779	11288
926.886	11239
926.993	11166
927.099	11052
927.206	11064
927.312	11060
927.419	11117
927.525	11166
927.631	11151
927.737	11033
927.843	10965
927.95	10805
928.056	10869
928.162	10927
928.267	10972
928.373	11615
928.479	10987
928.585	10782
928.69	10881
928.796	10957
928.901	10820
929.007	10733
929.112	10797
929.218	10771
929.323	10763
929.428	10618
929.533	10805
929.638	10615
929.743	10634
929.848	10710
929.953	10714
930.058	10554
930.163	10436
930.267	10443
930.372	10527
930.477	10356
930.581	10630
930.685	10561
930.79	10322
930.894	10352
930.998	10306
931.103	10421
931.207	10051
931.311	10074
931.415	9884
931.519	9686
931.623	9652
