Data from test_V78500241_2487.txt Node
Date: Fri Mar 25 15:27:10 CST 2022
User: usil
Spectrometer: V785-0024
Trigger mode: 0
Integration Time (sec): 4.000000E-1
Scans to average: 1
Nonlinearity correction enabled: false
Boxcar width: 0
Storing dark spectrum: false
XAxis mode: Wavelengths
Number of Pixels in Spectrum: 1024
>>>>>Begin Spectral Data<<<<<
801.071	27135
801.214	26990
801.356	26769
801.499	26731
801.641	26792
801.783	26442
801.926	26587
802.068	26648
802.211	26568
802.353	26507
802.496	26408
802.638	26324
802.78	26263
802.923	26088
803.065	26001
803.208	26187
803.35	26278
803.492	26271
803.635	26408
803.777	26267
803.919	26271
804.061	26769
804.204	26374
804.346	26366
804.488	26305
804.63	26317
804.773	26355
804.915	26370
805.057	26328
805.199	26320
805.341	26396
805.483	26457
805.626	26507
805.768	26294
805.91	26461
806.052	26446
806.194	26473
806.336	26609
806.478	26480
806.62	26431
806.762	26522
806.904	26830
807.046	26887
807.188	26979
807.33	26838
807.472	27013
807.614	26902
807.756	26910
807.898	26708
808.04	26659
808.182	26686
808.324	26655
808.465	26811
808.607	27017
808.749	27024
808.891	27119
809.033	27237
809.174	27074
809.316	27024
809.458	27005
809.6	27207
809.741	27116
809.883	27150
810.025	27260
810.166	27374
810.308	27325
810.45	27325
810.591	27256
810.733	27055
810.875	26986
811.016	27055
811.158	26906
811.299	27237
811.441	27359
811.582	27233
811.724	27005
811.865	27112
812.007	27089
812.148	27032
812.29	27020
812.431	27252
812.573	27439
812.714	27507
812.855	27595
812.997	27622
813.138	27842
813.279	27641
813.421	27622
813.562	27447
813.703	27310
813.845	27180
813.986	26857
814.127	26834
814.268	26765
814.41	26762
814.551	26587
814.692	26872
814.833	26708
814.974	26674
815.115	26731
815.256	26632
815.397	26594
815.539	26609
815.68	26556
815.821	26480
815.962	26568
816.103	26488
816.244	26355
816.385	26225
816.526	26180
816.666	26069
816.807	26046
816.948	26035
817.089	26046
817.23	26077
817.371	26008
817.512	25917
817.653	25936
817.793	25864
817.934	25894
818.075	26062
818.216	25970
818.356	25909
818.497	25879
818.638	25616
818.778	25708
818.919	25841
819.06	25795
819.2	25788
819.341	25890
819.481	25856
819.622	26180
819.762	26233
819.903	26183
820.043	26050
820.184	26012
820.324	26077
820.465	26069
820.605	26172
820.746	26058
820.886	25921
821.026	26035
821.167	26081
821.307	26210
821.447	26001
821.588	25902
821.728	25776
821.868	25635
822.008	25537
822.149	25567
822.289	25430
822.429	25263
822.569	25141
822.709	25129
822.849	24935
822.99	24962
823.13	24878
823.27	25091
823.41	24913
823.55	24768
823.69	24700
823.83	24779
823.97	24631
824.11	24467
824.25	24483
824.389	24616
824.529	24536
824.669	24517
824.809	24681
824.949	24665
825.089	24669
825.228	24661
825.368	24403
825.508	24433
825.648	24456
825.787	24544
825.927	24498
826.067	24361
826.206	24448
826.346	24525
826.485	24540
826.625	24471
826.765	24536
826.904	24540
827.044	24365
827.183	24167
827.323	24125
827.462	24292
827.601	24152
827.741	24152
827.88	24251
828.02	23977
828.159	24068
828.298	24186
828.437	24201
828.577	24018
828.716	24068
828.855	24144
828.994	23821
829.134	23798
829.273	23954
829.412	23802
829.551	23828
829.69	23843
829.829	23904
829.968	24072
830.107	23954
830.246	23939
830.385	23828
830.524	23752
830.663	23764
830.802	23687
830.941	23486
831.08	23410
831.219	23589
831.357	23695
831.496	23722
831.635	23490
831.774	23379
831.913	23512
832.051	23307
832.19	23204
832.329	23315
832.467	23197
832.606	23132
832.744	23121
832.883	23064
833.022	23071
833.16	23105
833.299	23284
833.437	23159
833.576	23235
833.714	23246
833.852	23376
833.991	23223
834.129	23341
834.267	23273
834.406	23220
834.544	23277
834.682	23204
834.821	23220
834.959	23459
835.097	23299
835.235	23334
835.373	23239
835.511	23208
835.65	23143
835.788	23136
835.926	22987
836.064	22820
836.202	22946
836.34	23079
836.478	23204
836.615	23006
836.753	23037
836.891	23166
837.029	23102
837.167	23033
837.305	23052
837.443	22869
837.58	23083
837.718	23056
837.856	22896
837.993	22930
838.131	22896
838.269	22725
838.406	22896
838.544	22740
838.681	22588
838.819	22462
838.956	22436
839.094	22447
839.231	22550
839.369	22599
839.506	22809
839.643	22580
839.781	22424
839.918	22204
840.055	22348
840.193	22348
840.33	22344
840.467	22390
840.604	22356
840.742	22679
840.879	22310
841.016	22226
841.153	22181
841.29	22550
841.427	22287
841.564	22413
841.701	22375
841.838	22219
841.975	22272
842.112	22177
842.249	22272
842.385	22181
842.522	22402
842.659	22253
842.796	22120
842.933	22143
843.069	22032
843.206	22021
843.343	22265
843.479	22067
843.616	22124
843.752	21918
843.889	21934
844.025	21918
844.162	21816
844.298	21991
844.435	21857
844.571	21915
844.708	21895
844.844	21987
844.98	22055
845.117	22013
845.253	21739
845.389	21656
845.525	21743
845.661	21625
845.798	21644
845.934	21690
846.07	21507
846.206	21599
846.342	21793
846.478	21603
846.614	21325
846.75	21393
846.886	21348
847.022	21450
847.158	21283
847.294	21401
847.429	21355
847.565	21397
847.701	21610
847.837	21104
847.972	21135
848.108	21199
848.244	21287
848.379	20975
848.515	20944
848.65	20895
848.786	21013
848.921	20948
849.057	20941
849.192	21176
849.328	20990
849.463	20868
849.598	20883
849.734	20899
849.869	20842
850.004	20788
850.14	20788
850.275	20773
850.41	20632
850.545	20731
850.68	20712
850.815	20750
850.95	20727
851.085	20929
851.22	20788
851.355	20705
851.49	20682
851.625	20773
851.76	20705
851.895	20697
852.03	20587
852.165	20785
852.299	20754
852.434	20792
852.569	20746
852.703	20746
852.838	20777
852.973	20758
853.107	20929
853.242	20689
853.376	20549
853.511	20480
853.645	20549
853.78	20708
853.914	20518
854.048	20514
854.183	20648
854.317	20609
854.451	20693
854.585	20564
854.72	20454
854.854	20674
854.988	20541
855.122	20560
855.256	20377
855.39	20594
855.524	20682
855.658	20564
855.792	20602
855.926	20549
856.06	20625
856.194	20507
856.327	20556
856.461	20507
856.595	20415
856.729	20541
856.862	20674
856.996	20507
857.13	20518
857.263	20731
857.397	20537
857.53	20404
857.664	20507
857.797	20594
857.931	20583
858.064	20583
858.197	20651
858.331	20583
858.464	20492
858.597	20423
858.731	20648
858.864	20480
858.997	20564
859.13	20533
859.263	20549
859.396	20526
859.529	20518
859.662	20564
859.795	20602
859.928	20613
860.061	20689
860.194	20739
860.327	20632
860.46	20552
860.592	20727
860.725	20579
860.858	20644
860.99	20526
861.123	20571
861.256	20431
861.388	20541
861.521	21077
861.653	20431
861.786	20370
861.918	20374
862.05	20450
862.183	20396
862.315	20454
862.447	20549
862.58	20389
862.712	20400
862.844	20313
862.976	20259
863.108	20355
863.24	20769
863.372	20206
863.504	20454
863.636	20286
863.768	20362
863.9	20214
864.032	20130
864.164	20362
864.296	20298
864.428	20408
864.559	20377
864.691	20233
864.823	20385
864.954	20336
865.086	20294
865.217	20199
865.349	20107
865.48	20180
865.612	20157
865.743	20366
865.875	20259
866.006	20183
866.137	20271
866.269	20084
866.4	20183
866.531	20039
866.662	20183
866.793	20172
866.924	20046
867.055	20176
867.186	19986
867.317	20077
867.448	20012
867.579	20107
867.71	20005
867.841	20027
867.972	20134
868.103	20103
868.233	20195
868.364	20088
868.495	20225
868.625	20305
868.756	20533
868.886	20225
869.017	20427
869.147	20446
869.278	20427
869.408	20282
869.539	20336
869.669	20385
869.799	20423
869.929	20408
870.06	20408
870.19	20640
870.32	20705
870.45	20686
870.58	20663
870.71	20826
870.84	20929
870.97	20724
871.1	20773
871.23	20956
871.36	21001
871.489	20948
871.619	20697
871.749	21036
871.879	20971
872.008	21112
872.138	20906
872.267	20883
872.397	20769
872.526	20788
872.656	20781
872.785	20800
872.915	21058
873.044	21036
873.173	21051
873.303	20956
873.432	21005
873.561	21173
873.69	20994
873.819	20941
873.948	21119
874.077	20990
874.206	20861
874.335	21009
874.464	21112
874.593	21218
874.722	21173
874.851	21279
874.979	21230
875.108	21252
875.237	21218
875.365	21066
875.494	21203
875.623	21256
875.751	21173
875.88	21302
876.008	21424
876.136	21477
876.265	21572
876.393	21755
876.521	21736
876.65	21656
876.778	21709
876.906	21606
877.034	21492
877.162	21549
877.29	21523
877.418	21637
877.546	21504
877.674	21466
877.802	21557
877.93	21545
878.058	21386
878.185	21477
878.313	21420
878.441	21526
878.568	21302
878.696	21481
878.824	21549
878.951	21648
879.079	21778
879.206	21842
879.333	21728
879.461	21595
879.588	21709
879.715	21717
879.842	21831
879.97	21572
880.097	21325
880.224	21412
880.351	21351
880.478	21367
880.605	21272
880.732	21420
880.859	21610
880.986	21431
881.112	21477
881.239	21317
881.366	21089
881.493	21028
881.619	20925
881.746	20956
881.872	20960
881.999	20990
882.125	20872
882.252	21039
882.378	21024
882.505	21028
882.631	20838
882.757	20765
882.883	20826
883.01	20602
883.136	20667
883.262	20530
883.388	20533
883.514	20765
883.64	20655
883.766	20552
883.892	20347
884.018	20492
884.143	20758
884.269	20796
884.395	20412
884.52	20393
884.646	20412
884.772	20347
884.897	20202
885.023	20267
885.148	20457
885.274	20552
885.399	20408
885.524	20423
885.65	20324
885.775	20351
885.9	20240
886.025	20415
886.15	20423
886.275	20339
886.4	20275
886.525	20225
886.65	20214
886.775	20301
886.9	20332
887.025	20503
887.149	20339
887.274	20187
887.399	20187
887.523	20107
887.648	20142
887.773	19978
887.897	20233
888.021	20138
888.146	20088
888.27	20252
888.395	20229
888.519	20149
888.643	20103
888.767	20107
888.891	19932
889.015	19909
889.139	20039
889.263	19902
889.387	20062
889.511	20062
889.635	19982
889.759	19875
889.883	19849
890.006	19868
890.13	20005
890.254	19799
890.377	19906
890.501	19655
890.624	19723
890.748	19731
890.871	19533
890.995	19518
891.118	19476
891.241	19525
891.364	19575
891.488	19586
891.611	19533
891.734	19468
891.857	19559
891.98	19529
892.103	19590
892.226	19495
892.349	19434
892.471	19320
892.594	19358
892.717	19388
892.839	19464
892.962	19426
893.085	19480
893.207	19358
893.33	19301
893.452	19441
893.575	19540
893.697	19327
893.819	19597
893.941	19487
894.064	19556
894.186	19301
894.308	19472
894.43	19472
894.552	19582
894.674	19422
894.796	19396
894.918	19312
895.04	19350
895.161	19529
895.283	19453
895.405	19339
895.526	19358
895.648	19320
895.769	19438
895.891	19552
896.012	19403
896.134	19384
896.255	19521
896.376	19289
896.498	19396
896.619	19518
896.74	19400
896.861	19472
896.982	19795
897.103	19871
897.224	19731
897.345	19613
897.466	19605
897.587	19693
897.708	19689
897.828	19746
897.949	19578
898.07	19422
898.19	19643
898.311	19788
898.431	19685
898.552	19628
898.672	19772
898.792	19772
898.913	19559
899.033	19483
899.153	19403
899.273	19282
899.393	19278
899.513	19502
899.633	19331
899.753	19388
899.873	19434
899.993	19468
900.113	19346
900.232	19438
900.352	19403
900.472	19202
900.591	19072
900.711	19228
900.83	19263
900.95	19240
901.069	19175
901.189	19213
901.308	18890
901.427	18802
901.546	18878
901.665	18715
901.784	18684
901.904	18665
902.023	18536
902.141	18285
902.26	18319
902.379	18365
902.498	18338
902.617	18243
902.735	18277
902.854	18308
902.973	18281
903.091	17916
903.21	18076
903.328	18049
903.446	17885
903.565	17870
903.683	17855
903.801	17718
903.919	17733
904.038	17707
904.156	17665
904.274	17676
904.392	17566
904.51	17402
904.627	17592
904.745	17710
904.863	17649
904.981	17433
905.098	17307
905.216	17288
905.334	17296
905.451	17208
905.569	17246
905.686	17235
905.803	17261
905.921	17064
906.038	17151
906.155	16995
906.272	16968
906.389	16934
906.506	16885
906.623	16812
906.74	16858
906.857	16733
906.974	16790
907.091	16854
907.208	16953
907.324	16793
907.441	16634
907.557	16577
907.674	16546
907.79	16447
907.907	16443
908.023	16569
908.139	16542
908.256	16447
908.372	16481
908.488	16409
908.604	16322
908.72	16158
908.836	16215
908.952	16234
909.068	16238
909.184	16276
909.3	16200
909.415	16215
909.531	16150
909.647	16090
909.762	15926
909.878	15907
909.993	15926
910.108	15987
910.224	15907
910.339	15949
910.454	15770
910.57	15816
910.685	15713
910.8	15975
910.915	16036
911.03	15739
911.145	15534
911.259	15473
911.374	15523
911.489	15450
911.604	15450
911.718	15386
911.833	15397
911.947	15344
912.062	15241
912.176	15424
912.291	15454
912.405	15431
912.519	15599
912.633	15553
912.748	15401
912.862	15313
912.976	15211
913.09	15089
913.204	15116
913.318	15188
913.431	15192
913.545	15173
913.659	15268
913.772	15127
913.886	14944
914	14937
914.113	15097
914.226	15001
914.34	14971
914.453	14967
914.566	14982
914.68	14754
914.793	14811
914.906	14610
915.019	14552
915.132	14556
915.245	14552
915.358	14518
915.47	14651
915.583	14495
915.696	14514
915.809	14644
915.921	14636
916.034	14434
916.146	14454
916.259	14457
916.371	14568
916.483	14465
916.595	14518
916.708	14431
916.82	14412
916.932	14427
917.044	14374
917.156	14374
917.268	14278
917.38	14218
917.491	14218
917.603	14142
917.715	14244
917.826	14313
917.938	14096
918.049	14153
918.161	14157
918.272	14271
918.384	14256
918.495	14161
918.606	14149
918.717	13902
918.828	14103
918.939	14035
919.05	13913
919.161	13978
919.272	13803
919.383	13875
919.494	14016
919.604	14100
919.715	14012
919.826	13852
919.936	13963
920.047	14092
920.157	13917
920.267	14301
920.378	13974
920.488	13963
920.598	14107
920.708	14358
920.818	14180
920.928	14142
921.038	14218
921.148	14256
921.258	13967
921.368	13868
921.477	13738
921.587	13636
921.697	13746
921.806	13753
921.916	13594
922.025	13510
922.134	13441
922.244	13415
922.353	13525
922.462	13255
922.571	13206
922.68	13088
922.789	13065
922.898	13061
923.007	13000
923.116	13042
923.224	13031
923.333	13038
923.442	12996
923.55	12939
923.659	12867
923.767	12920
923.876	12890
923.984	12916
924.092	12806
924.201	12825
924.309	12779
924.417	12829
924.525	12741
924.633	12768
924.741	13571
924.849	12448
924.956	12658
925.064	12498
925.172	12384
925.279	12452
925.387	12532
925.494	12490
925.602	12578
925.709	12517
925.816	12361
925.924	12410
926.031	12490
926.138	12319
926.245	12414
926.352	12330
926.459	12452
926.566	12540
926.673	12289
926.779	12251
926.886	12186
926.993	12087
927.099	12060
927.206	12045
927.312	12034
927.419	12049
927.525	12038
927.631	12102
927.737	11984
927.843	12003
927.95	11817
928.056	11954
928.162	11923
928.267	11942
928.373	12486
928.479	11996
928.585	11714
928.69	11874
928.796	11840
928.901	11767
929.007	11726
929.112	11840
929.218	11623
929.323	11688
929.428	11596
929.533	11764
929.638	11551
929.743	11649
929.848	11535
929.953	11566
930.058	11524
930.163	11368
930.267	11288
930.372	11497
930.477	11246
930.581	11471
930.685	11334
930.79	11216
930.894	11223
930.998	11204
931.103	11326
931.207	11048
931.311	10934
931.415	10717
931.519	10599
931.623	10554
