Data from test_V78500241_1133.txt Node
Date: Fri Mar 25 15:17:44 CST 2022
User: usil
Spectrometer: V785-0024
Trigger mode: 0
Integration Time (sec): 4.000000E-1
Scans to average: 1
Nonlinearity correction enabled: false
Boxcar width: 0
Storing dark spectrum: false
XAxis mode: Wavelengths
Number of Pixels in Spectrum: 1024
>>>>>Begin Spectral Data<<<<<
801.071	28401
801.214	28360
801.356	28013
801.499	28032
801.641	27945
801.783	27918
801.926	27956
802.068	27926
802.211	27888
802.353	27736
802.496	27545
802.638	27671
802.78	27435
802.923	27576
803.065	27481
803.208	27435
803.35	27507
803.492	27812
803.635	27861
803.777	27739
803.919	27713
804.061	28048
804.204	27842
804.346	27778
804.488	27819
804.63	27907
804.773	27720
804.915	27804
805.057	27781
805.199	27823
805.341	28029
805.483	27880
805.626	27922
805.768	27892
805.91	27785
806.052	27972
806.194	28002
806.336	28093
806.478	28059
806.62	28002
806.762	28048
806.904	28150
807.046	28314
807.188	28428
807.33	28379
807.472	28379
807.614	28249
807.756	28322
807.898	28398
808.04	28169
808.182	28211
808.324	28219
808.465	28242
808.607	28390
808.749	28622
808.891	28584
809.033	28668
809.174	28664
809.316	28504
809.458	28527
809.6	28580
809.741	28611
809.883	28698
810.025	28942
810.166	28900
810.308	28790
810.45	28778
810.591	28687
810.733	28615
810.875	28478
811.016	28561
811.158	28443
811.299	28675
811.441	28866
811.582	28828
811.724	28523
811.865	28634
812.007	28645
812.148	28607
812.29	28550
812.431	28824
812.573	29056
812.714	29067
812.855	29318
812.997	29273
813.138	29391
813.279	29185
813.421	29128
813.562	29147
813.703	29033
813.845	28972
813.986	28634
814.127	28493
814.268	28367
814.41	28481
814.551	28356
814.692	28287
814.833	28188
814.974	28265
815.115	28440
815.256	28253
815.397	28249
815.539	28223
815.68	28204
815.821	28082
815.962	28246
816.103	28093
816.244	28082
816.385	28124
816.526	27888
816.666	27709
816.807	27633
816.948	27812
817.089	27846
817.23	27724
817.371	27580
817.512	27713
817.653	27652
817.793	27515
817.934	27812
818.075	27778
818.216	27728
818.356	27842
818.497	27583
818.638	27389
818.778	27507
818.919	27344
819.06	27462
819.2	27488
819.341	27545
819.481	27530
819.622	27838
819.762	28002
819.903	27800
820.043	27831
820.184	27873
820.324	27762
820.465	27888
820.605	27686
820.746	27911
820.886	27652
821.026	27793
821.167	27785
821.307	27778
821.447	27572
821.588	27466
821.728	27443
821.868	27252
822.008	27260
822.149	27077
822.289	27116
822.429	26883
822.569	26819
822.709	26975
822.849	26765
822.99	26648
823.13	26682
823.27	26530
823.41	26579
823.55	26385
823.69	26461
823.83	26480
823.97	26381
824.11	26256
824.25	26168
824.389	26320
824.529	26347
824.669	26347
824.809	26358
824.949	26385
825.089	26358
825.228	26324
825.368	26168
825.508	26214
825.648	26199
825.787	26259
825.927	26278
826.067	26187
826.206	26180
826.346	26153
826.485	26286
826.625	26050
826.765	26374
826.904	26130
827.044	25947
827.183	25940
827.323	25993
827.462	25982
827.601	26001
827.741	25864
827.88	25963
828.02	25750
828.159	25887
828.298	25936
828.437	25921
828.577	25963
828.716	25993
828.855	25791
828.994	25624
829.134	25632
829.273	25559
829.412	25731
829.551	25594
829.69	25731
829.829	25605
829.968	25769
830.107	25765
830.246	25559
830.385	25594
830.524	25426
830.663	25422
830.802	25350
830.941	25255
831.08	25255
831.219	25392
831.357	25343
831.496	25441
831.635	25274
831.774	25012
831.913	25099
832.051	25156
832.19	24992
832.329	25213
832.467	25080
832.606	24932
832.744	24867
832.883	24932
833.022	24894
833.16	24985
833.299	25069
833.437	24909
833.576	25023
833.714	25000
833.852	25023
833.991	25145
834.129	25053
834.267	25053
834.406	24935
834.544	25038
834.682	25015
834.821	24951
834.959	25202
835.097	24973
835.235	25091
835.373	25008
835.511	24840
835.65	24913
835.788	25000
835.926	24829
836.064	24639
836.202	24665
836.34	24764
836.478	24989
836.615	24852
836.753	24886
836.891	24848
837.029	24920
837.167	24882
837.305	24779
837.443	24593
837.58	24726
837.718	24585
837.856	24730
837.993	24722
838.131	24700
838.269	24483
838.406	24757
838.544	24445
838.681	24350
838.819	24224
838.956	24235
839.094	24159
839.231	24197
839.369	24281
839.506	24544
839.643	24460
839.781	24155
839.918	24068
840.055	24068
840.193	24155
840.33	24060
840.467	24125
840.604	24174
840.742	24361
840.879	23851
841.016	23916
841.153	23851
841.29	24106
841.427	24057
841.564	24110
841.701	24038
841.838	23961
841.975	23977
842.112	23988
842.249	23965
842.385	23931
842.522	23999
842.659	23752
842.796	23916
842.933	23851
843.069	23741
843.206	23756
843.343	23851
843.479	23790
843.616	23889
843.752	23611
843.889	23543
844.025	23661
844.162	23474
844.298	23623
844.435	23630
844.571	23661
844.708	23646
844.844	23695
844.98	23737
845.117	23691
845.253	23619
845.389	23455
845.525	23493
845.661	23345
845.798	23326
845.934	23307
846.07	23311
846.206	23292
846.342	23421
846.478	23216
846.614	23064
846.75	23083
846.886	23132
847.022	23155
847.158	23079
847.294	23094
847.429	23025
847.565	23060
847.701	23258
847.837	22702
847.972	22721
848.108	22904
848.244	22854
848.379	22527
848.515	22618
848.65	22653
848.786	22649
848.921	22683
849.057	22679
849.192	22733
849.328	22683
849.463	22656
849.598	22687
849.734	22630
849.869	22481
850.004	22432
850.14	22390
850.275	22519
850.41	22386
850.545	22352
850.68	22405
850.815	22394
850.95	22333
851.085	22630
851.22	22573
851.355	22352
851.49	22382
851.625	22344
851.76	22295
851.895	22291
852.03	22325
852.165	22310
852.299	22402
852.434	22508
852.569	22428
852.703	22466
852.838	22455
852.973	22592
853.107	22523
853.242	22382
853.376	22268
853.511	22219
853.645	22158
853.78	22409
853.914	22265
854.048	22188
854.183	22230
854.317	22284
854.451	22493
854.585	22173
854.72	22185
854.854	22257
854.988	22150
855.122	22131
855.256	22116
855.39	22226
855.524	22246
855.658	22341
855.792	22341
855.926	22287
856.06	22215
856.194	22272
856.327	22177
856.461	22158
856.595	22173
856.729	22261
856.862	22428
856.996	22188
857.13	22299
857.263	22223
857.397	22196
857.53	22249
857.664	22162
857.797	22226
857.931	22230
858.064	22375
858.197	22234
858.331	22204
858.464	22223
858.597	22116
858.731	22211
858.864	22166
858.997	22105
859.13	22188
859.263	22303
859.396	22329
859.529	22181
859.662	22261
859.795	22234
859.928	22063
860.061	22333
860.194	22596
860.327	22272
860.46	22310
860.592	22249
860.725	22398
860.858	22257
860.99	22333
861.123	22150
861.256	22215
861.388	22394
861.521	22999
861.653	22135
861.786	21987
861.918	22082
862.05	22059
862.183	22036
862.315	22135
862.447	22192
862.58	22124
862.712	21926
862.844	21831
862.976	22135
863.108	22051
863.24	22375
863.372	21819
863.504	21915
863.636	21907
863.768	21972
863.9	21850
864.032	21846
864.164	21903
864.296	22059
864.428	22040
864.559	22013
864.691	21895
864.823	21926
864.954	21880
865.086	21774
865.217	21823
865.349	21701
865.48	21781
865.612	21812
865.743	21979
865.875	21720
866.006	21766
866.137	21823
866.269	21838
866.4	21861
866.531	21793
866.662	21641
866.793	21679
866.924	21732
867.055	21770
867.186	21747
867.317	21720
867.448	21652
867.579	21717
867.71	21663
867.841	21614
867.972	21724
868.103	21774
868.233	21641
868.364	21892
868.495	21956
868.625	21873
868.756	22059
868.886	21804
869.017	21960
869.147	22051
869.278	22105
869.408	21857
869.539	21987
869.669	22093
869.799	22002
869.929	22215
870.06	22067
870.19	22211
870.32	22169
870.45	22314
870.58	22356
870.71	22436
870.84	22500
870.97	22367
871.1	22455
871.23	22500
871.36	22634
871.489	22504
871.619	22432
871.749	22531
871.879	22622
872.008	22668
872.138	22462
872.267	22611
872.397	22310
872.526	22287
872.656	22481
872.785	22390
872.915	22622
873.044	22622
873.173	22569
873.303	22611
873.432	22672
873.561	22691
873.69	22596
873.819	22531
873.948	22710
874.077	22626
874.206	22531
874.335	22523
874.464	22687
874.593	22835
874.722	22847
874.851	22790
874.979	22694
875.108	22729
875.237	22790
875.365	22694
875.494	22721
875.623	22816
875.751	22679
875.88	22835
876.008	22881
876.136	22984
876.265	23121
876.393	23269
876.521	23303
876.65	23254
876.778	23318
876.906	23204
877.034	23094
877.162	23143
877.29	23124
877.418	23083
877.546	23292
877.674	23212
877.802	23105
877.93	23056
878.058	23079
878.185	23052
878.313	23018
878.441	23090
878.568	22976
878.696	23041
878.824	23140
878.951	23216
879.079	23220
879.206	23353
879.333	23368
879.461	23189
879.588	23277
879.715	23269
879.842	23414
879.97	23246
880.097	22946
880.224	22968
880.351	22908
880.478	23033
880.605	22965
880.732	22995
880.859	23121
880.986	22953
881.112	22889
881.239	22771
881.366	22660
881.493	22664
881.619	22599
881.746	22424
881.872	22523
881.999	22360
882.125	22516
882.252	22497
882.378	22523
882.505	22470
882.631	22333
882.757	22265
882.883	22325
883.01	22230
883.136	22051
883.262	22036
883.388	22025
883.514	22158
883.64	22284
883.766	22078
883.892	21876
884.018	21991
884.143	22097
884.269	22181
884.395	21956
884.52	21816
884.646	21819
884.772	21785
884.897	21762
885.023	21747
885.148	21911
885.274	22017
885.399	21911
885.524	21835
885.65	21835
885.775	21827
885.9	21895
886.025	21880
886.15	21903
886.275	21785
886.4	21747
886.525	21781
886.65	21831
886.775	21705
886.9	22048
887.025	21975
887.149	21755
887.274	21698
887.399	21701
887.523	21538
887.648	21545
887.773	21599
887.897	21686
888.021	21679
888.146	21526
888.27	21652
888.395	21568
888.519	21553
888.643	21660
888.767	21591
888.891	21408
889.015	21332
889.139	21412
889.263	21439
889.387	21458
889.511	21572
889.635	21416
889.759	21302
889.883	21378
890.006	21363
890.13	21466
890.254	21176
890.377	21329
890.501	21184
890.624	21146
890.748	21214
890.871	21028
890.995	20895
891.118	20956
891.241	20944
891.364	20914
891.488	21047
891.611	20952
891.734	20952
891.857	20925
891.98	20994
892.103	21036
892.226	20902
892.349	20845
892.471	20754
892.594	20697
892.717	20849
892.839	20724
892.962	20887
893.085	20792
893.207	20773
893.33	20727
893.452	20750
893.575	20952
893.697	20777
893.819	21013
893.941	21058
894.064	21043
894.186	20762
894.308	20750
894.43	20823
894.552	21058
894.674	20864
894.796	20743
894.918	20849
895.04	20807
895.161	20876
895.283	20765
895.405	20792
895.526	20788
895.648	20632
895.769	20788
895.891	20716
896.012	20994
896.134	20754
896.255	20781
896.376	20743
896.498	20864
896.619	20853
896.74	20796
896.861	20826
896.982	21096
897.103	21195
897.224	21123
897.345	20975
897.466	20921
897.587	21036
897.708	21051
897.828	21131
897.949	20948
898.07	20918
898.19	21047
898.311	21169
898.431	20887
898.552	21020
898.672	21020
898.792	21009
898.913	20937
899.033	20830
899.153	20796
899.273	20750
899.393	20708
899.513	20777
899.633	20823
899.753	20845
899.873	20693
899.993	20765
900.113	20762
900.232	20716
900.352	20617
900.472	20541
900.591	20533
900.711	20514
900.83	20537
900.95	20644
901.069	20594
901.189	20355
901.308	20202
901.427	20122
901.546	20065
901.665	20096
901.784	20084
901.904	19856
902.023	19757
902.141	19594
902.26	19605
902.379	19651
902.498	19700
902.617	19594
902.735	19757
902.854	19506
902.973	19449
903.091	19289
903.21	19274
903.328	19255
903.446	19114
903.565	19050
903.683	18981
903.801	18909
903.919	18989
904.038	18951
904.156	18779
904.274	18863
904.392	18840
904.51	18817
904.627	18814
904.745	18886
904.863	18859
904.981	18502
905.098	18460
905.216	18464
905.334	18441
905.451	18494
905.569	18422
905.686	18544
905.803	18433
905.921	18220
906.038	18380
906.155	18311
906.272	18167
906.389	18167
906.506	17999
906.623	18072
906.74	18003
906.857	17851
906.974	17783
907.091	18159
907.208	18003
907.324	18049
907.441	17904
907.557	17836
907.674	17665
907.79	17642
907.907	17729
908.023	17665
908.139	17611
908.256	17653
908.372	17577
908.488	17539
908.604	17497
908.72	17433
908.836	17505
908.952	17421
909.068	17608
909.184	17524
909.3	17501
909.415	17429
909.531	17493
909.647	17204
909.762	17162
909.878	17170
909.993	17079
910.108	17048
910.224	17041
910.339	17113
910.454	16976
910.57	16972
910.685	16839
910.8	17155
910.915	17048
911.03	17006
911.145	16790
911.259	16713
911.374	16805
911.489	16675
911.604	16588
911.718	16371
911.833	16481
911.947	16402
912.062	16265
912.176	16417
912.291	16462
912.405	16402
912.519	16698
912.633	16649
912.748	16500
912.862	16421
912.976	16185
913.09	16234
913.204	16253
913.318	16268
913.431	16314
913.545	16299
913.659	16352
913.772	16135
913.886	16124
914	16013
914.113	16120
914.226	16196
914.34	16101
914.453	15857
914.566	16074
914.68	15956
914.793	15960
914.906	15778
915.019	15701
915.132	15663
915.245	15720
915.358	15701
915.47	15644
915.583	15591
915.696	15614
915.809	15717
915.921	15728
916.034	15614
916.146	15580
916.259	15523
916.371	15584
916.483	15686
916.595	15511
916.708	15408
916.82	15424
916.932	15424
917.044	15416
917.156	15450
917.268	15275
917.38	15241
917.491	15336
917.603	15287
917.715	15310
917.826	15344
917.938	15237
918.049	15119
918.161	15127
918.272	15306
918.384	15355
918.495	15207
918.606	15043
918.717	14971
918.828	15123
918.939	15055
919.05	14830
919.161	14971
919.272	14807
919.383	14868
919.494	15036
919.604	15214
919.715	14971
919.826	14857
919.936	14944
920.047	14963
920.157	15009
920.267	15074
920.378	15036
920.488	14868
920.598	15192
920.708	15245
920.818	15131
920.928	15150
921.038	15325
921.148	15116
921.258	14910
921.368	14762
921.477	14727
921.587	14686
921.697	14579
921.806	14625
921.916	14587
922.025	14320
922.134	14389
922.244	14317
922.353	14301
922.462	14199
922.571	14161
922.68	14001
922.789	13940
922.898	14035
923.007	13909
923.116	14046
923.224	13906
923.333	13906
923.442	13822
923.55	13909
923.659	13811
923.767	13871
923.876	13788
923.984	13856
924.092	13765
924.201	13780
924.309	13677
924.417	13742
924.525	13529
924.633	13677
924.741	14659
924.849	13434
924.956	13616
925.064	13449
925.172	13350
925.279	13377
925.387	13400
925.494	13426
925.602	13441
925.709	13411
925.816	13206
925.924	13324
926.031	13335
926.138	13297
926.245	13358
926.352	13187
926.459	13434
926.566	13377
926.673	13198
926.779	13122
926.886	13175
926.993	12913
927.099	12909
927.206	12897
927.312	12810
927.419	12913
927.525	12928
927.631	12947
927.737	12806
927.843	12745
927.95	12642
928.056	12738
928.162	12757
928.267	12795
928.373	13206
928.479	12764
928.585	12521
928.69	12749
928.796	12715
928.901	12612
929.007	12460
929.112	12566
929.218	12582
929.323	12467
929.428	12350
929.533	12566
929.638	12399
929.743	12330
929.848	12441
929.953	12426
930.058	12277
930.163	12057
930.267	12125
930.372	12182
930.477	12117
930.581	12270
930.685	12201
930.79	12030
930.894	12007
930.998	11973
931.103	12038
931.207	11729
931.311	11718
931.415	11573
931.519	11349
931.623	11414
