Data from test_V78500241_3010.txt Node
Date: Fri Mar 25 15:30:49 CST 2022
User: usil
Spectrometer: V785-0024
Trigger mode: 0
Integration Time (sec): 4.000000E-1
Scans to average: 1
Nonlinearity correction enabled: false
Boxcar width: 0
Storing dark spectrum: false
XAxis mode: Wavelengths
Number of Pixels in Spectrum: 1024
>>>>>Begin Spectral Data<<<<<
801.071	27317
801.214	27272
801.356	26956
801.499	26918
801.641	26826
801.783	26880
801.926	26872
802.068	26811
802.211	26636
802.353	26590
802.496	26530
802.638	26537
802.78	26526
802.923	26385
803.065	26324
803.208	26278
803.35	26389
803.492	26575
803.635	26590
803.777	26423
803.919	26670
804.061	26891
804.204	26651
804.346	26583
804.488	26503
804.63	26613
804.773	26469
804.915	26602
805.057	26724
805.199	26476
805.341	26613
805.483	26868
805.626	26785
805.768	26499
805.91	26545
806.052	26746
806.194	26712
806.336	26887
806.478	26800
806.62	26594
806.762	26754
806.904	26967
807.046	27329
807.188	27214
807.33	27214
807.472	27180
807.614	27131
807.756	27028
807.898	27001
808.04	26925
808.182	27009
808.324	26986
808.465	27085
808.607	27119
808.749	27302
808.891	27424
809.033	27549
809.174	27389
809.316	27275
809.458	27287
809.6	27283
809.741	27427
809.883	27431
810.025	27496
810.166	27720
810.308	27610
810.45	27469
810.591	27367
810.733	27336
810.875	27382
811.016	27184
811.158	27264
811.299	27363
811.441	27553
811.582	27485
811.724	27317
811.865	27393
812.007	27412
812.148	27298
812.29	27454
812.431	27469
812.573	27625
812.714	27682
812.855	27816
812.997	27816
813.138	28051
813.279	27953
813.421	27667
813.562	27793
813.703	27519
813.845	27530
813.986	27176
814.127	27028
814.268	27043
814.41	26925
814.551	26883
814.692	27055
814.833	26948
814.974	26998
815.115	26914
815.256	26758
815.397	26800
815.539	26914
815.68	26796
815.821	26663
815.962	26724
816.103	26655
816.244	26587
816.385	26575
816.526	26446
816.666	26259
816.807	26138
816.948	26229
817.089	26267
817.23	26206
817.371	26199
817.512	26195
817.653	26446
817.793	26282
817.934	26221
818.075	26259
818.216	26187
818.356	26275
818.497	26100
818.638	25966
818.778	25928
818.919	25871
819.06	26157
819.2	26157
819.341	26149
819.481	26149
819.622	26294
819.762	26518
819.903	26294
820.043	26457
820.184	26324
820.324	26267
820.465	26309
820.605	26339
820.746	26202
820.886	26153
821.026	26355
821.167	26229
821.307	26400
821.447	26122
821.588	26168
821.728	26046
821.868	25826
822.008	25700
822.149	25704
822.289	25632
822.429	25468
822.569	25411
822.709	25206
822.849	25080
822.99	25118
823.13	25213
823.27	25053
823.41	24981
823.55	24882
823.69	25004
823.83	24935
823.97	25000
824.11	24859
824.25	24890
824.389	24871
824.529	24947
824.669	24681
824.809	24962
824.949	24973
825.089	24837
825.228	24749
825.368	24707
825.508	24620
825.648	24787
825.787	24722
825.927	24589
826.067	24639
826.206	24700
826.346	24711
826.485	24681
826.625	24779
826.765	24890
826.904	24798
827.044	24361
827.183	24505
827.323	24369
827.462	24426
827.601	24372
827.741	24319
827.88	24433
828.02	24220
828.159	24380
828.298	24410
828.437	24410
828.577	24445
828.716	24513
828.855	24361
828.994	24087
829.134	24125
829.273	24201
829.412	23984
829.551	24110
829.69	24095
829.829	24083
829.968	24136
830.107	24140
830.246	24106
830.385	24060
830.524	23935
830.663	23802
830.802	23866
830.941	23779
831.08	23649
831.219	23836
831.357	23821
831.496	24041
831.635	23634
831.774	23589
831.913	23596
832.051	23554
832.19	23505
832.329	23417
832.467	23455
832.606	23318
832.744	23337
832.883	23303
833.022	23337
833.16	23239
833.299	23436
833.437	23345
833.576	23433
833.714	23406
833.852	23501
833.991	23452
834.129	23383
834.267	23535
834.406	23349
834.544	23455
834.682	23402
834.821	23387
834.959	23646
835.097	23417
835.235	23372
835.373	23436
835.511	23376
835.65	23216
835.788	23330
835.926	23140
836.064	23048
836.202	23044
836.34	23204
836.478	23322
836.615	23258
836.753	23364
836.891	23398
837.029	23334
837.167	23330
837.305	23075
837.443	23143
837.58	23025
837.718	23208
837.856	23143
837.993	23006
838.131	23094
838.269	23025
838.406	22892
838.544	23014
838.681	22843
838.819	22805
838.956	22565
839.094	22618
839.231	22561
839.369	22710
839.506	23006
839.643	22790
839.781	22561
839.918	22390
840.055	22577
840.193	22516
840.33	22550
840.467	22580
840.604	22649
840.742	22660
840.879	22291
841.016	22565
841.153	22489
841.29	22679
841.427	22455
841.564	22561
841.701	22493
841.838	22466
841.975	22337
842.112	22470
842.249	22455
842.385	22314
842.522	22451
842.659	22322
842.796	22226
842.933	22329
843.069	22109
843.206	22242
843.343	22246
843.479	22242
843.616	22299
843.752	22101
843.889	22173
844.025	22128
844.162	22025
844.298	22124
844.435	22013
844.571	22006
844.708	22200
844.844	22147
844.98	22101
845.117	22150
845.253	21842
845.389	21857
845.525	21983
845.661	21861
845.798	21698
845.934	21770
846.07	21701
846.206	21770
846.342	21915
846.478	21671
846.614	21428
846.75	21557
846.886	21428
847.022	21542
847.158	21534
847.294	21500
847.429	21591
847.565	21549
847.701	21804
847.837	21272
847.972	21192
848.108	21344
848.244	21340
848.379	21150
848.515	21051
848.65	21131
848.786	21112
848.921	21077
849.057	21161
849.192	21176
849.328	21169
849.463	21119
849.598	21100
849.734	21070
849.869	20849
850.004	20845
850.14	20872
850.275	20864
850.41	20842
850.545	20659
850.68	20708
850.815	20944
850.95	20842
851.085	21085
851.22	20994
851.355	20933
851.49	20914
851.625	20811
851.76	20746
851.895	20842
852.03	20769
852.165	20887
852.299	20819
852.434	20941
852.569	20872
852.703	20914
852.838	20758
852.973	21055
853.107	20975
853.242	20697
853.376	20682
853.511	20594
853.645	20705
853.78	20735
853.914	20899
854.048	20640
854.183	20606
854.317	20735
854.451	20880
854.585	20750
854.72	20731
854.854	20838
854.988	20602
855.122	20686
855.256	20492
855.39	20777
855.524	20811
855.658	20712
855.792	20678
855.926	20811
856.06	20838
856.194	20750
856.327	20731
856.461	20514
856.595	20602
856.729	20720
856.862	20762
856.996	20781
857.13	20697
857.263	20777
857.397	20765
857.53	20705
857.664	20861
857.797	20769
857.931	20918
858.064	20777
858.197	20929
858.331	20720
858.464	20613
858.597	20549
858.731	20705
858.864	20773
858.997	20670
859.13	20773
859.263	20716
859.396	20754
859.529	20598
859.662	20598
859.795	20663
859.928	20754
860.061	20948
860.194	20826
860.327	20697
860.46	20716
860.592	20777
860.725	20921
860.858	20796
860.99	20773
861.123	20564
861.256	20590
861.388	20804
861.521	21180
861.653	20533
861.786	20507
861.918	20454
862.05	20583
862.183	20594
862.315	20651
862.447	20678
862.58	20659
862.712	20526
862.844	20248
862.976	20514
863.108	20511
863.24	20971
863.372	20252
863.504	20461
863.636	20492
863.768	20412
863.9	20476
864.032	20332
864.164	20419
864.296	20514
864.428	20526
864.559	20419
864.691	20507
864.823	20454
864.954	20438
865.086	20343
865.217	20294
865.349	20240
865.48	20244
865.612	20248
865.743	20469
865.875	20328
866.006	20294
866.137	20290
866.269	20305
866.4	20252
866.531	20248
866.662	20298
866.793	20221
866.924	20301
867.055	20351
867.186	20324
867.317	20252
867.448	20176
867.579	20286
867.71	20244
867.841	20149
867.972	20233
868.103	20282
868.233	20305
868.364	20180
868.495	20336
868.625	20514
868.756	20667
868.886	20446
869.017	20400
869.147	20712
869.278	20629
869.408	20385
869.539	20488
869.669	20541
869.799	20526
869.929	20549
870.06	20636
870.19	20872
870.32	20708
870.45	20788
870.58	20906
870.71	20998
870.84	20868
870.97	20868
871.1	20902
871.23	21142
871.36	21051
871.489	20895
871.619	20990
871.749	20967
871.879	21096
872.008	21340
872.138	21043
872.267	21104
872.397	20929
872.526	21039
872.656	20899
872.785	20906
872.915	21009
873.044	21131
873.173	21096
873.303	21192
873.432	21176
873.561	21142
873.69	21074
873.819	21062
873.948	21169
874.077	21066
874.206	21089
874.335	21108
874.464	21188
874.593	21507
874.722	21249
874.851	21431
874.979	21367
875.108	21538
875.237	21317
875.365	21176
875.494	21435
875.623	21477
875.751	21408
875.88	21538
876.008	21496
876.136	21534
876.265	21850
876.393	21857
876.521	21778
876.65	21793
876.778	21759
876.906	21660
877.034	21747
877.162	21751
877.29	21690
877.418	21705
877.546	21785
877.674	21713
877.802	21682
877.93	21747
878.058	21720
878.185	21561
878.313	21663
878.441	21682
878.568	21599
878.696	21595
878.824	21793
878.951	21819
879.079	21766
879.206	21979
879.333	21762
879.461	21759
879.588	21857
879.715	21781
879.842	21983
879.97	21812
880.097	21507
880.224	21564
880.351	21652
880.478	21610
880.605	21481
880.732	21542
880.859	21751
880.986	21542
881.112	21629
881.239	21264
881.366	21412
881.493	21195
881.619	21100
881.746	21062
881.872	21116
881.999	21036
882.125	21032
882.252	21207
882.378	21070
882.505	21150
882.631	20941
882.757	20815
882.883	20990
883.01	20838
883.136	20735
883.262	20792
883.388	20788
883.514	20777
883.64	20819
883.766	20701
883.892	20568
884.018	20659
884.143	20823
884.269	20785
884.395	20499
884.52	20332
884.646	20552
884.772	20275
884.897	20393
885.023	20533
885.148	20522
885.274	20651
885.399	20579
885.524	20575
885.65	20469
885.775	20461
885.9	20457
886.025	20571
886.15	20575
886.275	20298
886.4	20263
886.525	20438
886.65	20412
886.775	20461
886.9	20522
887.025	20720
887.149	20465
887.274	20256
887.399	20214
887.523	20214
887.648	20077
887.773	20145
887.897	20374
888.021	20294
888.146	20233
888.27	20370
888.395	20351
888.519	20252
888.643	20301
888.767	20221
888.891	20218
889.015	20122
889.139	20122
889.263	20058
889.387	20058
889.511	20244
889.635	20225
889.759	19993
889.883	19993
890.006	20039
890.13	20233
890.254	20084
890.377	19898
890.501	19906
890.624	19856
890.748	19917
890.871	19704
890.995	19677
891.118	19578
891.241	19658
891.364	19681
891.488	19799
891.611	19597
891.734	19632
891.857	19753
891.98	19681
892.103	19613
892.226	19460
892.349	19559
892.471	19400
892.594	19643
892.717	19567
892.839	19662
892.962	19624
893.085	19529
893.207	19544
893.33	19499
893.452	19525
893.575	19594
893.697	19563
893.819	19651
893.941	19830
894.064	19666
894.186	19597
894.308	19613
894.43	19609
894.552	19689
894.674	19620
894.796	19499
894.918	19506
895.04	19430
895.161	19597
895.283	19506
895.405	19506
895.526	19552
895.648	19495
895.769	19529
895.891	19578
896.012	19715
896.134	19651
896.255	19529
896.376	19514
896.498	19510
896.619	19601
896.74	19521
896.861	19704
896.982	19864
897.103	19936
897.224	19814
897.345	19795
897.466	19795
897.587	19799
897.708	19902
897.828	19807
897.949	19723
898.07	19727
898.19	19746
898.311	19871
898.431	19628
898.552	19734
898.672	19890
898.792	19807
898.913	19791
899.033	19662
899.153	19750
899.273	19552
899.393	19594
899.513	19597
899.633	19506
899.753	19480
899.873	19457
899.993	19624
900.113	19434
900.232	19525
900.352	19521
900.472	19430
900.591	19270
900.711	19293
900.83	19285
900.95	19438
901.069	19445
901.189	19202
901.308	18856
901.427	18932
901.546	18985
901.665	18859
901.784	18943
901.904	18795
902.023	18715
902.141	18513
902.26	18479
902.379	18563
902.498	18517
902.617	18323
902.735	18460
902.854	18391
902.973	18266
903.091	18076
903.21	18174
903.328	18152
903.446	17988
903.565	17885
903.683	17977
903.801	17737
903.919	18019
904.038	17961
904.156	17767
904.274	17832
904.392	17729
904.51	17604
904.627	17627
904.745	17760
904.863	17859
904.981	17562
905.098	17364
905.216	17402
905.334	17376
905.451	17395
905.569	17326
905.686	17299
905.803	17315
905.921	17098
906.038	17307
906.155	17151
906.272	17037
906.389	16980
906.506	16980
906.623	16896
906.74	16809
906.857	16831
906.974	16672
907.091	16900
907.208	16965
907.324	16850
907.441	16866
907.557	16713
907.674	16637
907.79	16558
907.907	16538
908.023	16694
908.139	16653
908.256	16630
908.372	16584
908.488	16523
908.604	16356
908.72	16230
908.836	16318
908.952	16261
909.068	16409
909.184	16527
909.3	16436
909.415	16478
909.531	16352
909.647	16185
909.762	16059
909.878	16071
909.993	16101
910.108	15998
910.224	16105
910.339	16086
910.454	16032
910.57	15941
910.685	15797
910.8	16029
910.915	16006
911.03	15956
911.145	15663
911.259	15724
911.374	15622
911.489	15694
911.604	15553
911.718	15473
911.833	15412
911.947	15332
912.062	15230
912.176	15523
912.291	15496
912.405	15382
912.519	15682
912.633	15530
912.748	15488
912.862	15424
912.976	15252
913.09	15062
913.204	15169
913.318	15302
913.431	15325
913.545	15340
913.659	15332
913.772	15211
913.886	15074
914	15017
914.113	15127
914.226	15241
914.34	15154
914.453	14849
914.566	15036
914.68	14971
914.793	14918
914.906	14773
915.019	14617
915.132	14648
915.245	14712
915.358	14674
915.47	14594
915.583	14743
915.696	14689
915.809	14773
915.921	14845
916.034	14651
916.146	14507
916.259	14651
916.371	14564
916.483	14590
916.595	14549
916.708	14499
916.82	14674
916.932	14507
917.044	14389
917.156	14461
917.268	14351
917.38	14374
917.491	14309
917.603	14362
917.715	14450
917.826	14492
917.938	14233
918.049	14233
918.161	14275
918.272	14480
918.384	14396
918.495	14282
918.606	14115
918.717	13993
918.828	14202
918.939	14168
919.05	13913
919.161	14077
919.272	13818
919.383	13989
919.494	14183
919.604	14294
919.715	14069
919.826	14035
919.936	14084
920.047	14164
920.157	14157
920.267	14195
920.378	14157
920.488	14115
920.598	14267
920.708	14366
920.818	14298
920.928	14252
921.038	14343
921.148	14339
921.258	14005
921.368	13898
921.477	13871
921.587	13750
921.697	13689
921.806	13753
921.916	13632
922.025	13556
922.134	13499
922.244	13453
922.353	13457
922.462	13388
922.571	13289
922.68	13187
922.789	13133
922.898	13088
923.007	13126
923.116	13152
923.224	13122
923.333	13091
923.442	12954
923.55	12939
923.659	13053
923.767	12947
923.876	12905
923.984	13012
924.092	12840
924.201	12916
924.309	12798
924.417	12890
924.525	12856
924.633	12821
924.741	13582
924.849	12612
924.956	12658
925.064	12532
925.172	12418
925.279	12563
925.387	12528
925.494	12654
925.602	12639
925.709	12601
925.816	12490
925.924	12448
926.031	12563
926.138	12479
926.245	12547
926.352	12388
926.459	12574
926.566	12578
926.673	12414
926.779	12342
926.886	12334
926.993	12285
927.099	12148
927.206	12140
927.312	12102
927.419	12117
927.525	12110
927.631	12087
927.737	12072
927.843	12022
927.95	11874
928.056	11870
928.162	12015
928.267	12038
928.373	12589
928.479	12076
928.585	11771
928.69	11901
928.796	11969
928.901	11912
929.007	11661
929.112	11821
929.218	11851
929.323	11752
929.428	11741
929.533	11855
929.638	11676
929.743	11653
929.848	11771
929.953	11570
930.058	11505
930.163	11356
930.267	11474
930.372	11532
930.477	11345
930.581	11589
930.685	11474
930.79	11299
930.894	11421
930.998	11322
931.103	11402
931.207	10999
931.311	10900
931.415	10930
931.519	10698
931.623	10698
