Data from test_V78500241_3030.txt Node
Date: Fri Mar 25 15:30:57 CST 2022
User: usil
Spectrometer: V785-0024
Trigger mode: 0
Integration Time (sec): 4.000000E-1
Scans to average: 1
Nonlinearity correction enabled: false
Boxcar width: 0
Storing dark spectrum: false
XAxis mode: Wavelengths
Number of Pixels in Spectrum: 1024
>>>>>Begin Spectral Data<<<<<
801.071	27367
801.214	27237
801.356	27051
801.499	26960
801.641	26906
801.783	26933
801.926	26750
802.068	26800
802.211	26712
802.353	26686
802.496	26446
802.638	26434
802.78	26408
802.923	26453
803.065	26214
803.208	26385
803.35	26298
803.492	26488
803.635	26518
803.777	26549
803.919	26522
804.061	26876
804.204	26659
804.346	26442
804.488	26450
804.63	26533
804.773	26522
804.915	26503
805.057	26606
805.199	26564
805.341	26564
805.483	26644
805.626	26697
805.768	26568
805.91	26701
806.052	26670
806.194	26526
806.336	26796
806.478	26644
806.62	26701
806.762	26777
806.904	26861
807.046	27211
807.188	26998
807.33	27005
807.472	27154
807.614	27131
807.756	26982
807.898	26948
808.04	26845
808.182	27001
808.324	26914
808.465	26899
808.607	27096
808.749	27355
808.891	27203
809.033	27408
809.174	27325
809.316	27214
809.458	27252
809.6	27195
809.741	27420
809.883	27363
810.025	27656
810.166	27606
810.308	27557
810.45	27401
810.591	27458
810.733	27233
810.875	27245
811.016	27127
811.158	27310
811.299	27313
811.441	27279
811.582	27561
811.724	27146
811.865	27188
812.007	27252
812.148	27203
812.29	27237
812.431	27431
812.573	27603
812.714	27679
812.855	27759
812.997	27926
813.138	27934
813.279	27831
813.421	27934
813.562	27732
813.703	27545
813.845	27310
813.986	27127
814.127	27058
814.268	26895
814.41	26967
814.551	26956
814.692	27009
814.833	26937
814.974	26933
815.115	26940
815.256	26811
815.397	26781
815.539	26807
815.68	26689
815.821	26632
815.962	26716
816.103	26651
816.244	26423
816.385	26453
816.526	26480
816.666	26301
816.807	26039
816.948	26111
817.089	26187
817.23	26332
817.371	26199
817.512	26103
817.653	26259
817.793	26020
817.934	26176
818.075	26267
818.216	26191
818.356	26172
818.497	25921
818.638	25993
818.778	25974
818.919	25822
819.06	25902
819.2	26016
819.341	26077
819.481	26221
819.622	26301
819.762	26590
819.903	26530
820.043	26324
820.184	26161
820.324	26218
820.465	26336
820.605	26191
820.746	26233
820.886	26073
821.026	26195
821.167	26199
821.307	26206
821.447	26191
821.588	25944
821.728	25917
821.868	25799
822.008	25525
822.149	25628
822.289	25662
822.429	25476
822.569	25331
822.709	25179
822.849	25114
822.99	25255
823.13	25141
823.27	25122
823.41	24947
823.55	24916
823.69	24977
823.83	25027
823.97	24829
824.11	24764
824.25	24623
824.389	24749
824.529	24932
824.669	24776
824.809	24909
824.949	24810
825.089	24886
825.228	24741
825.368	24589
825.508	24635
825.648	24631
825.787	24536
825.927	24749
826.067	24669
826.206	24612
826.346	24635
826.485	24597
826.625	24574
826.765	24703
826.904	24517
827.044	24323
827.183	24540
827.323	24353
827.462	24372
827.601	24380
827.741	24357
827.88	24300
828.02	24254
828.159	24254
828.298	24266
828.437	24266
828.577	24281
828.716	24429
828.855	24262
828.994	24007
829.134	24003
829.273	24072
829.412	23935
829.551	23973
829.69	24030
829.829	23996
829.968	24064
830.107	24148
830.246	23935
830.385	23961
830.524	23889
830.663	23722
830.802	23745
830.941	23707
831.08	23623
831.219	23699
831.357	23760
831.496	23939
831.635	23596
831.774	23509
831.913	23528
832.051	23501
832.19	23421
832.329	23379
832.467	23216
832.606	23223
832.744	23181
832.883	23284
833.022	23185
833.16	23303
833.299	23235
833.437	23395
833.576	23299
833.714	23322
833.852	23459
833.991	23440
834.129	23429
834.267	23425
834.406	23345
834.544	23554
834.682	23414
834.821	23376
834.959	23551
835.097	23345
835.235	23398
835.373	23360
835.511	23402
835.65	23193
835.788	23178
835.926	23086
836.064	22934
836.202	23060
836.34	23216
836.478	23273
836.615	23208
836.753	23261
836.891	23231
837.029	23261
837.167	23136
837.305	23033
837.443	23124
837.58	22896
837.718	23041
837.856	22991
837.993	22984
838.131	23071
838.269	22942
838.406	22908
838.544	22828
838.681	22755
838.819	22580
838.956	22565
839.094	22516
839.231	22523
839.369	22626
839.506	22915
839.643	22774
839.781	22580
839.918	22447
840.055	22577
840.193	22481
840.33	22356
840.467	22470
840.604	22508
840.742	22656
840.879	22234
841.016	22360
841.153	22360
841.29	22443
841.427	22512
841.564	22497
841.701	22421
841.838	22337
841.975	22382
842.112	22436
842.249	22211
842.385	22276
842.522	22493
842.659	22242
842.796	22287
842.933	22128
843.069	22101
843.206	22116
843.343	22421
843.479	22211
843.616	22341
843.752	22055
843.889	21918
844.025	22090
844.162	21899
844.298	22090
844.435	21869
844.571	21972
844.708	21930
844.844	22109
844.98	22074
845.117	21903
845.253	21937
845.389	21793
845.525	21888
845.661	21812
845.798	21686
845.934	21755
846.07	21660
846.206	21717
846.342	21846
846.478	21679
846.614	21564
846.75	21420
846.886	21386
847.022	21485
847.158	21545
847.294	21481
847.429	21325
847.565	21367
847.701	21622
847.837	21142
847.972	21184
848.108	21332
848.244	21245
848.379	20971
848.515	21077
848.65	21005
848.786	21036
848.921	20986
849.057	21188
849.192	21074
849.328	21093
849.463	21001
849.598	20845
849.734	21032
849.869	20914
850.004	20781
850.14	20887
850.275	20777
850.41	20796
850.545	20849
850.68	20678
850.815	20815
850.95	20838
851.085	21081
851.22	20883
851.355	20819
851.49	20781
851.625	20705
851.76	20708
851.895	20670
852.03	20807
852.165	20765
852.299	20788
852.434	20872
852.569	20941
852.703	20708
852.838	20788
852.973	20910
853.107	20941
853.242	20781
853.376	20773
853.511	20454
853.645	20667
853.78	20746
853.914	20712
854.048	20571
854.183	20518
854.317	20754
854.451	20823
854.585	20606
854.72	20663
854.854	20598
854.988	20602
855.122	20693
855.256	20507
855.39	20625
855.524	20750
855.658	20743
855.792	20689
855.926	20693
856.06	20720
856.194	20686
856.327	20670
856.461	20533
856.595	20526
856.729	20689
856.862	20792
856.996	20659
857.13	20724
857.263	20739
857.397	20659
857.53	20716
857.664	20731
857.797	20716
857.931	20720
858.064	20705
858.197	20724
858.331	20617
858.464	20602
858.597	20579
858.731	20606
858.864	20750
858.997	20640
859.13	20701
859.263	20575
859.396	20739
859.529	20598
859.662	20651
859.795	20625
859.928	20606
860.061	20834
860.194	20788
860.327	20629
860.46	20708
860.592	20731
860.725	20838
860.858	20697
860.99	20659
861.123	20484
861.256	20602
861.388	20587
861.521	21321
861.653	20537
861.786	20533
861.918	20454
862.05	20579
862.183	20545
862.315	20571
862.447	20598
862.58	20636
862.712	20415
862.844	20328
862.976	20332
863.108	20362
863.24	20750
863.372	20336
863.504	20419
863.636	20343
863.768	20317
863.9	20370
864.032	20240
864.164	20381
864.296	20484
864.428	20362
864.559	20370
864.691	20465
864.823	20419
864.954	20362
865.086	20419
865.217	20256
865.349	20210
865.48	20278
865.612	20248
865.743	20377
865.875	20240
866.006	20142
866.137	20393
866.269	20324
866.4	20214
866.531	20202
866.662	20176
866.793	20267
866.924	20100
867.055	20275
867.186	20267
867.317	20183
867.448	20073
867.579	20149
867.71	20092
867.841	20100
867.972	20214
868.103	20172
868.233	20126
868.364	20172
868.495	20328
868.625	20423
868.756	20503
868.886	20480
869.017	20499
869.147	20541
869.278	20564
869.408	20507
869.539	20541
869.669	20644
869.799	20541
869.929	20594
870.06	20560
870.19	20788
870.32	20724
870.45	20868
870.58	20853
870.71	20849
870.84	20872
870.97	20887
871.1	20876
871.23	21074
871.36	21150
871.489	20937
871.619	20994
871.749	21066
871.879	21077
872.008	21043
872.138	21070
872.267	20975
872.397	20785
872.526	20902
872.656	20929
872.785	20880
872.915	21032
873.044	21157
873.173	21123
873.303	21184
873.432	21108
873.561	21176
873.69	21154
873.819	21074
873.948	21066
874.077	21116
874.206	21074
874.335	21161
874.464	21165
874.593	21447
874.722	21180
874.851	21370
874.979	21279
875.108	21355
875.237	21355
875.365	21287
875.494	21226
875.623	21264
875.751	21245
875.88	21329
876.008	21481
876.136	21408
876.265	21660
876.393	21800
876.521	21873
876.65	21838
876.778	21751
876.906	21698
877.034	21603
877.162	21660
877.29	21561
877.418	21667
877.546	21728
877.674	21690
877.802	21675
877.93	21622
878.058	21663
878.185	21454
878.313	21492
878.441	21622
878.568	21374
878.696	21618
878.824	21789
878.951	21793
879.079	21823
879.206	21876
879.333	21907
879.461	21682
879.588	21827
879.715	21911
879.842	21888
879.97	21690
880.097	21485
880.224	21526
880.351	21614
880.478	21553
880.605	21340
880.732	21458
880.859	21732
880.986	21595
881.112	21545
881.239	21302
881.366	21287
881.493	21192
881.619	21192
881.746	21104
881.872	21096
881.999	21077
882.125	20941
882.252	21131
882.378	21017
882.505	21047
882.631	20887
882.757	20788
882.883	20891
883.01	20876
883.136	20792
883.262	20705
883.388	20621
883.514	20735
883.64	20826
883.766	20731
883.892	20507
884.018	20499
884.143	20670
884.269	20769
884.395	20450
884.52	20415
884.646	20438
884.772	20336
884.897	20370
885.023	20427
885.148	20518
885.274	20499
885.399	20648
885.524	20412
885.65	20484
885.775	20530
885.9	20301
886.025	20533
886.15	20530
886.275	20465
886.4	20419
886.525	20408
886.65	20271
886.775	20225
886.9	20541
887.025	20678
887.149	20457
887.274	20259
887.399	20119
887.523	20142
887.648	20195
887.773	20100
887.897	20290
888.021	20172
888.146	20183
888.27	20366
888.395	20278
888.519	20229
888.643	20252
888.767	20248
888.891	20107
889.015	19997
889.139	19989
889.263	19989
889.387	20058
889.511	20233
889.635	20046
889.759	19963
889.883	19970
890.006	19993
890.13	20161
890.254	19772
890.377	19871
890.501	19795
890.624	19704
890.748	19807
890.871	19693
890.995	19495
891.118	19601
891.241	19616
891.364	19635
891.488	19727
891.611	19537
891.734	19632
891.857	19700
891.98	19597
892.103	19552
892.226	19540
892.349	19430
892.471	19350
892.594	19480
892.717	19426
892.839	19548
892.962	19529
893.085	19605
893.207	19510
893.33	19343
893.452	19457
893.575	19559
893.697	19441
893.819	19605
893.941	19674
894.064	19548
894.186	19468
894.308	19392
894.43	19537
894.552	19776
894.674	19556
894.796	19411
894.918	19540
895.04	19407
895.161	19533
895.283	19635
895.405	19502
895.526	19594
895.648	19422
895.769	19480
895.891	19453
896.012	19495
896.134	19601
896.255	19502
896.376	19430
896.498	19510
896.619	19552
896.74	19472
896.861	19540
896.982	19944
897.103	19875
897.224	19746
897.345	19662
897.466	19601
897.587	19776
897.708	19925
897.828	19826
897.949	19693
898.07	19632
898.19	19594
898.311	19776
898.431	19658
898.552	19780
898.672	19864
898.792	19860
898.913	19822
899.033	19491
899.153	19590
899.273	19426
899.393	19715
899.513	19609
899.633	19578
899.753	19400
899.873	19472
899.993	19533
900.113	19464
900.232	19487
900.352	19533
900.472	19293
900.591	19335
900.711	19270
900.83	19168
900.95	19381
901.069	19419
901.189	19148
901.308	18954
901.427	18821
901.546	18932
901.665	18973
901.784	18875
901.904	18757
902.023	18684
902.141	18536
902.26	18361
902.379	18547
902.498	18376
902.617	18338
902.735	18479
902.854	18551
902.973	18304
903.091	18117
903.21	18140
903.328	18087
903.446	17969
903.565	17988
903.683	17866
903.801	17767
903.919	17866
904.038	17775
904.156	17703
904.274	17718
904.392	17653
904.51	17558
904.627	17619
904.745	17714
904.863	17779
904.981	17505
905.098	17299
905.216	17303
905.334	17467
905.451	17311
905.569	17353
905.686	17322
905.803	17387
905.921	16999
906.038	17208
906.155	17128
906.272	16976
906.389	17018
906.506	16809
906.623	16930
906.74	16854
906.857	16816
906.974	16812
907.091	17003
907.208	16805
907.324	16927
907.441	16752
907.557	16577
907.674	16599
907.79	16459
907.907	16611
908.023	16649
908.139	16577
908.256	16455
908.372	16459
908.488	16405
908.604	16402
908.72	16329
908.836	16344
908.952	16276
909.068	16234
909.184	16318
909.3	16390
909.415	16280
909.531	16329
909.647	16169
909.762	16032
909.878	16029
909.993	16021
910.108	16017
910.224	15876
910.339	16029
910.454	15823
910.57	15835
910.685	15793
910.8	15979
910.915	15998
911.03	15770
911.145	15637
911.259	15587
911.374	15606
911.489	15519
911.604	15557
911.718	15355
911.833	15317
911.947	15313
912.062	15283
912.176	15424
912.291	15450
912.405	15496
912.519	15644
912.633	15557
912.748	15462
912.862	15336
912.976	15294
913.09	15093
913.204	15138
913.318	15180
913.431	15249
913.545	15279
913.659	15367
913.772	15066
913.886	15070
914	14933
914.113	15024
914.226	15100
914.34	15036
914.453	14883
914.566	15017
914.68	14861
914.793	14910
914.906	14708
915.019	14705
915.132	14522
915.245	14602
915.358	14522
915.47	14571
915.583	14606
915.696	14617
915.809	14754
915.921	14769
916.034	14522
916.146	14533
916.259	14507
916.371	14663
916.483	14560
916.595	14492
916.708	14476
916.82	14533
916.932	14514
917.044	14427
917.156	14465
917.268	14313
917.38	14328
917.491	14294
917.603	14339
917.715	14400
917.826	14301
917.938	14286
918.049	14126
918.161	14237
918.272	14370
918.384	14355
918.495	14202
918.606	14016
918.717	14024
918.828	14088
918.939	14084
919.05	13986
919.161	14020
919.272	13852
919.383	13936
919.494	14054
919.604	14263
919.715	14081
919.826	13906
919.936	14039
920.047	14039
920.157	14058
920.267	14263
920.378	14050
920.488	14024
920.598	14218
920.708	14355
920.818	14100
920.928	14138
921.038	14298
921.148	14366
921.258	13997
921.368	13868
921.477	13780
921.587	13837
921.697	13677
921.806	13742
921.916	13666
922.025	13491
922.134	13407
922.244	13430
922.353	13548
922.462	13255
922.571	13247
922.68	13084
922.789	13031
922.898	13034
923.007	13050
923.116	13099
923.224	13061
923.333	12996
923.442	12886
923.55	12875
923.659	12939
923.767	12981
923.876	12825
923.984	12920
924.092	12882
924.201	12840
924.309	12913
924.417	12928
924.525	12749
924.633	12753
924.741	13472
924.849	12597
924.956	12722
925.064	12582
925.172	12490
925.279	12532
925.387	12582
925.494	12570
925.602	12654
925.709	12593
925.816	12456
925.924	12528
926.031	12601
926.138	12456
926.245	12437
926.352	12372
926.459	12486
926.566	12544
926.673	12403
926.779	12258
926.886	12285
926.993	12091
927.099	12159
927.206	12079
927.312	12041
927.419	12178
927.525	12110
927.631	12026
927.737	12049
927.843	11980
927.95	11828
928.056	11912
928.162	11961
928.267	11923
928.373	12631
928.479	11988
928.585	11805
928.69	11832
928.796	11965
928.901	11874
929.007	11661
929.112	11714
929.218	11752
929.323	11657
929.428	11672
929.533	11817
929.638	11638
929.743	11604
929.848	11695
929.953	11497
930.058	11543
930.163	11303
930.267	11372
930.372	11520
930.477	11383
930.581	11604
930.685	11482
930.79	11292
930.894	11227
930.998	11258
931.103	11429
931.207	10923
931.311	10957
931.415	10805
931.519	10698
931.623	10618
