Data from test_V78500241_3562.txt Node
Date: Fri Mar 25 15:34:39 CST 2022
User: usil
Spectrometer: V785-0024
Trigger mode: 0
Integration Time (sec): 4.000000E-1
Scans to average: 1
Nonlinearity correction enabled: false
Boxcar width: 0
Storing dark spectrum: false
XAxis mode: Wavelengths
Number of Pixels in Spectrum: 1024
>>>>>Begin Spectral Data<<<<<
801.071	27332
801.214	27367
801.356	27096
801.499	26963
801.641	26807
801.783	26921
801.926	26804
802.068	26849
802.211	26788
802.353	26705
802.496	26640
802.638	26473
802.78	26393
802.923	26339
803.065	26419
803.208	26225
803.35	26530
803.492	26453
803.635	26625
803.777	26530
803.919	26632
804.061	26876
804.204	26606
804.346	26587
804.488	26461
804.63	26613
804.773	26594
804.915	26621
805.057	26781
805.199	26549
805.341	26670
805.483	26613
805.626	26785
805.768	26587
805.91	26765
806.052	26796
806.194	26651
806.336	26880
806.478	26769
806.62	26659
806.762	26750
806.904	26918
807.046	27279
807.188	27176
807.33	27127
807.472	27173
807.614	26937
807.756	27039
807.898	27020
808.04	26906
808.182	26899
808.324	26921
808.465	27157
808.607	27188
808.749	27351
808.891	27294
809.033	27485
809.174	27272
809.316	27252
809.458	27313
809.6	27203
809.741	27359
809.883	27408
810.025	27606
810.166	27526
810.308	27606
810.45	27549
810.591	27652
810.733	27367
810.875	27351
811.016	27207
811.158	27154
811.299	27370
811.441	27401
811.582	27408
811.724	27378
811.865	27203
812.007	27340
812.148	27260
812.29	27226
812.431	27405
812.573	27595
812.714	27736
812.855	27816
812.997	28013
813.138	28010
813.279	28040
813.421	27694
813.562	27698
813.703	27633
813.845	27397
813.986	27313
814.127	27119
814.268	27036
814.41	26868
814.551	26868
814.692	27104
814.833	26952
814.974	26960
815.115	26902
815.256	26815
815.397	26872
815.539	26925
815.68	26807
815.821	26689
815.962	26746
816.103	26811
816.244	26697
816.385	26396
816.526	26434
816.666	26256
816.807	26248
816.948	26442
817.089	26393
817.23	26275
817.371	26199
817.512	26164
817.653	26225
817.793	26233
817.934	26218
818.075	26221
818.216	26328
818.356	26138
818.497	26069
818.638	25951
818.778	26058
818.919	25989
819.06	26119
819.2	26069
819.341	26294
819.481	26134
819.622	26461
819.762	26522
819.903	26442
820.043	26313
820.184	26339
820.324	26442
820.465	26503
820.605	26301
820.746	26221
820.886	26077
821.026	26309
821.167	26320
821.307	26434
821.447	26271
821.588	25989
821.728	26126
821.868	25887
822.008	25765
822.149	25620
822.289	25700
822.429	25400
822.569	25312
822.709	25506
822.849	25209
822.99	25274
823.13	25156
823.27	25225
823.41	24996
823.55	24875
823.69	25031
823.83	25145
823.97	25088
824.11	24962
824.25	24795
824.389	24909
824.529	24962
824.669	24970
824.809	25088
824.949	24913
825.089	24897
825.228	24901
825.368	24631
825.508	24677
825.648	24863
825.787	24810
825.927	24741
826.067	24650
826.206	24772
826.346	24654
826.485	24833
826.625	24692
826.765	24814
826.904	24897
827.044	24582
827.183	24441
827.323	24395
827.462	24395
827.601	24452
827.741	24422
827.88	24391
828.02	24338
828.159	24410
828.298	24399
828.437	24471
828.577	24304
828.716	24494
828.855	24289
828.994	24144
829.134	24121
829.273	24155
829.412	24045
829.551	24133
829.69	24186
829.829	24228
829.968	24285
830.107	24159
830.246	24114
830.385	24148
830.524	23988
830.663	24026
830.802	23931
830.941	23821
831.08	23843
831.219	23897
831.357	23942
831.496	23988
831.635	23863
831.774	23737
831.913	23699
832.051	23619
832.19	23577
832.329	23558
832.467	23551
832.606	23372
832.744	23395
832.883	23596
833.022	23410
833.16	23452
833.299	23512
833.437	23516
833.576	23570
833.714	23459
833.852	23570
833.991	23585
834.129	23608
834.267	23695
834.406	23577
834.544	23600
834.682	23543
834.821	23509
834.959	23672
835.097	23345
835.235	23543
835.373	23551
835.511	23482
835.65	23322
835.788	23433
835.926	23181
836.064	23105
836.202	23109
836.34	23425
836.478	23455
836.615	23231
836.753	23387
836.891	23440
837.029	23398
837.167	23433
837.305	23330
837.443	23147
837.58	23265
837.718	23345
837.856	23189
837.993	23102
838.131	23189
838.269	23193
838.406	23170
838.544	23071
838.681	22858
838.819	22790
838.956	22702
839.094	22725
839.231	22721
839.369	22911
839.506	23064
839.643	23037
839.781	22710
839.918	22607
840.055	22611
840.193	22752
840.33	22645
840.467	22664
840.604	22710
840.742	22949
840.879	22405
841.016	22531
841.153	22527
841.29	22736
841.427	22713
841.564	22687
841.701	22672
841.838	22538
841.975	22706
842.112	22489
842.249	22504
842.385	22322
842.522	22672
842.659	22542
842.796	22394
842.933	22538
843.069	22409
843.206	22367
843.343	22371
843.479	22424
843.616	22280
843.752	22257
843.889	22154
844.025	22291
844.162	22097
844.298	22223
844.435	22166
844.571	22291
844.708	22120
844.844	22230
844.98	22417
845.117	22287
845.253	22128
845.389	22090
845.525	22029
845.661	22044
845.798	21903
845.934	21865
846.07	21785
846.206	21953
846.342	21991
846.478	21934
846.614	21717
846.75	21568
846.886	21618
847.022	21717
847.158	21770
847.294	21530
847.429	21637
847.565	21523
847.701	21873
847.837	21431
847.972	21355
848.108	21389
848.244	21359
848.379	21329
848.515	21249
848.65	21306
848.786	21142
848.921	21439
849.057	21420
849.192	21450
849.328	21332
849.463	21233
849.598	21165
849.734	21127
849.869	21142
850.004	21020
850.14	21001
850.275	20948
850.41	20880
850.545	20910
850.68	21123
850.815	20944
850.95	21005
851.085	21237
851.22	21081
851.355	20998
851.49	21009
851.625	21070
851.76	21089
851.895	20982
852.03	20857
852.165	21104
852.299	21089
852.434	21176
852.569	20956
852.703	21017
852.838	21005
852.973	21062
853.107	21089
853.242	20952
853.376	20834
853.511	20697
853.645	20804
853.78	21051
853.914	20861
854.048	20762
854.183	20819
854.317	20872
854.451	21028
854.585	20944
854.72	20876
854.854	20792
854.988	20853
855.122	20815
855.256	20739
855.39	20811
855.524	20895
855.658	20830
855.792	20883
855.926	20891
856.06	20902
856.194	20823
856.327	20895
856.461	20792
856.595	20678
856.729	20853
856.862	20861
856.996	20883
857.13	20876
857.263	20937
857.397	21039
857.53	20834
857.664	20967
857.797	20796
857.931	20925
858.064	20883
858.197	20941
858.331	20743
858.464	20895
858.597	20811
858.731	20800
858.864	20636
858.997	20716
859.13	20765
859.263	20868
859.396	20990
859.529	20868
859.662	20754
859.795	20883
859.928	20979
860.061	20914
860.194	21085
860.327	20845
860.46	20807
860.592	20937
860.725	21017
860.858	21005
860.99	20895
861.123	20678
861.256	20792
861.388	20906
861.521	21564
861.653	20777
861.786	20678
861.918	20667
862.05	20602
862.183	20663
862.315	20746
862.447	20880
862.58	20689
862.712	20602
862.844	20423
862.976	20712
863.108	20606
863.24	20929
863.372	20465
863.504	20663
863.636	20511
863.768	20693
863.9	20598
864.032	20450
864.164	20404
864.296	20655
864.428	20655
864.559	20667
864.691	20648
864.823	20454
864.954	20617
865.086	20465
865.217	20545
865.349	20404
865.48	20522
865.612	20457
865.743	20579
865.875	20434
866.006	20446
866.137	20393
866.269	20488
866.4	20431
866.531	20408
866.662	20305
866.793	20362
866.924	20355
867.055	20446
867.186	20415
867.317	20480
867.448	20252
867.579	20434
867.71	20229
867.841	20278
867.972	20362
868.103	20476
868.233	20351
868.364	20294
868.495	20484
868.625	20560
868.756	20785
868.886	20606
869.017	20476
869.147	20689
869.278	20727
869.408	20674
869.539	20629
869.669	20655
869.799	20735
869.929	20708
870.06	20735
870.19	20933
870.32	20826
870.45	20925
870.58	21047
870.71	21047
870.84	21066
870.97	20994
871.1	21024
871.23	21245
871.36	21313
871.489	21176
871.619	21222
871.749	21260
871.879	21226
872.008	21260
872.138	21268
872.267	21302
872.397	21104
872.526	20948
872.656	20971
872.785	21089
872.915	21195
873.044	21348
873.173	21298
873.303	21245
873.432	21351
873.561	21306
873.69	21188
873.819	21142
873.948	21435
874.077	21222
874.206	21135
874.335	21165
874.464	21348
874.593	21572
874.722	21447
874.851	21534
874.979	21500
875.108	21572
875.237	21454
875.365	21424
875.494	21466
875.623	21534
875.751	21507
875.88	21519
876.008	21599
876.136	21580
876.265	21888
876.393	22048
876.521	21968
876.65	22025
876.778	22013
876.906	21831
877.034	21808
877.162	21812
877.29	21835
877.418	21873
877.546	21960
877.674	21850
877.802	21766
877.93	21876
878.058	21861
878.185	21694
878.313	21759
878.441	21789
878.568	21599
878.696	21739
878.824	21865
878.951	21930
879.079	22074
879.206	22048
879.333	21880
879.461	21865
879.588	21789
879.715	22032
879.842	22200
879.97	21907
880.097	21603
880.224	21686
880.351	21720
880.478	21751
880.605	21682
880.732	21797
880.859	21884
880.986	21743
881.112	21736
881.239	21492
881.366	21397
881.493	21382
881.619	21241
881.746	21336
881.872	21336
881.999	21222
882.125	21157
882.252	21199
882.378	21275
882.505	21374
882.631	21119
882.757	20891
882.883	21043
883.01	20990
883.136	20899
883.262	20765
883.388	20773
883.514	20937
883.64	20857
883.766	20861
883.892	20762
884.018	20849
884.143	20880
884.269	20994
884.395	20667
884.52	20590
884.646	20621
884.772	20541
884.897	20552
885.023	20564
885.148	20739
885.274	20819
885.399	20682
885.524	20617
885.65	20530
885.775	20598
885.9	20674
886.025	20598
886.15	20598
886.275	20480
886.4	20454
886.525	20530
886.65	20484
886.775	20568
886.9	20552
887.025	20781
887.149	20587
887.274	20431
887.399	20400
887.523	20351
887.648	20259
887.773	20259
887.897	20488
888.021	20393
888.146	20195
888.27	20530
888.395	20374
888.519	20461
888.643	20415
888.767	20339
888.891	20199
889.015	20195
889.139	20328
889.263	20172
889.387	20290
889.511	20370
889.635	20161
889.759	20073
889.883	20111
890.006	20161
890.13	20187
890.254	20168
890.377	20176
890.501	19951
890.624	19826
890.748	20020
890.871	19974
890.995	19875
891.118	19738
891.241	19761
891.364	19807
891.488	19761
891.611	19837
891.734	19791
891.857	19860
891.98	19776
892.103	19776
892.226	19761
892.349	19731
892.471	19472
892.594	19681
892.717	19738
892.839	19605
892.962	19685
893.085	19769
893.207	19651
893.33	19613
893.452	19518
893.575	19677
893.697	19647
893.819	19769
893.941	19811
894.064	19814
894.186	19582
894.308	19590
894.43	19814
894.552	19704
894.674	19727
894.796	19605
894.918	19765
895.04	19685
895.161	19776
895.283	19795
895.405	19597
895.526	19719
895.648	19704
895.769	19674
895.891	19788
896.012	19841
896.134	19795
896.255	19742
896.376	19597
896.498	19643
896.619	19776
896.74	19685
896.861	19799
896.982	19963
897.103	20130
897.224	19940
897.345	19955
897.466	19936
897.587	19974
897.708	19989
897.828	19902
897.949	19811
898.07	19662
898.19	19837
898.311	19909
898.431	19731
898.552	19879
898.672	20012
898.792	19951
898.913	19989
899.033	19765
899.153	19689
899.273	19712
899.393	19719
899.513	19738
899.633	19632
899.753	19681
899.873	19601
899.993	19643
900.113	19635
900.232	19457
900.352	19567
900.472	19483
900.591	19480
900.711	19514
900.83	19460
900.95	19483
901.069	19567
901.189	19335
901.308	19209
901.427	18973
901.546	18897
901.665	19053
901.784	19000
901.904	18772
902.023	18779
902.141	18551
902.26	18623
902.379	18696
902.498	18578
902.617	18464
902.735	18486
902.854	18460
902.973	18407
903.091	18216
903.21	18247
903.328	18258
903.446	18057
903.565	18083
903.683	18003
903.801	17904
903.919	17977
904.038	17897
904.156	17760
904.274	17885
904.392	17779
904.51	17855
904.627	17817
904.745	17927
904.863	17805
904.981	17661
905.098	17570
905.216	17535
905.334	17524
905.451	17585
905.569	17417
905.686	17505
905.803	17589
905.921	17250
906.038	17429
906.155	17322
906.272	17193
906.389	17128
906.506	16968
906.623	17022
906.74	16987
906.857	16889
906.974	16930
907.091	17071
907.208	17052
907.324	16984
907.441	16972
907.557	16748
907.674	16771
907.79	16679
907.907	16653
908.023	16771
908.139	16698
908.256	16645
908.372	16611
908.488	16672
908.604	16421
908.72	16394
908.836	16569
908.952	16447
909.068	16428
909.184	16580
909.3	16462
909.415	16485
909.531	16504
909.647	16268
909.762	16135
909.878	16135
909.993	16185
910.108	16162
910.224	16131
910.339	16139
910.454	16055
910.57	15975
910.685	15884
910.8	16181
910.915	16154
911.03	15983
911.145	15808
911.259	15854
911.374	15686
911.489	15667
911.604	15599
911.718	15507
911.833	15473
911.947	15530
912.062	15336
912.176	15424
912.291	15526
912.405	15458
912.519	15728
912.633	15663
912.748	15564
912.862	15504
912.976	15447
913.09	15211
913.204	15294
913.318	15424
913.431	15534
913.545	15420
913.659	15462
913.772	15245
913.886	15325
914	15195
914.113	15203
914.226	15245
914.34	15157
914.453	15119
914.566	15112
914.68	15077
914.793	15058
914.906	14853
915.019	14731
915.132	14712
915.245	14754
915.358	14743
915.47	14804
915.583	14853
915.696	14754
915.809	14849
915.921	14838
916.034	14640
916.146	14693
916.259	14598
916.371	14693
916.483	14727
916.595	14533
916.708	14530
916.82	14598
916.932	14492
917.044	14552
917.156	14594
917.268	14454
917.38	14465
917.491	14423
917.603	14419
917.715	14564
917.826	14507
917.938	14339
918.049	14233
918.161	14366
918.272	14438
918.384	14518
918.495	14252
918.606	14176
918.717	14123
918.828	14199
918.939	14214
919.05	14111
919.161	14149
919.272	14012
919.383	14039
919.494	14244
919.604	14419
919.715	14195
919.826	14054
919.936	14138
920.047	14195
920.157	14195
920.267	14358
920.378	14130
920.488	14130
920.598	14290
920.708	14461
920.818	14347
920.928	14355
921.038	14351
921.148	14488
921.258	14176
921.368	14046
921.477	13986
921.587	13967
921.697	13784
921.806	13849
921.916	13807
922.025	13556
922.134	13624
922.244	13571
922.353	13563
922.462	13369
922.571	13430
922.68	13232
922.789	13217
922.898	13194
923.007	13141
923.116	13133
923.224	13198
923.333	13171
923.442	13000
923.55	12993
923.659	13126
923.767	13076
923.876	12932
923.984	13019
924.092	12878
924.201	12981
924.309	12962
924.417	12901
924.525	12947
924.633	12920
924.741	13845
924.849	12719
924.956	12802
925.064	12612
925.172	12582
925.279	12677
925.387	12623
925.494	12703
925.602	12757
925.709	12662
925.816	12471
925.924	12597
926.031	12623
926.138	12494
926.245	12673
926.352	12490
926.459	12669
926.566	12665
926.673	12486
926.779	12380
926.886	12429
926.993	12308
927.099	12148
927.206	12273
927.312	12155
927.419	12144
927.525	12178
927.631	12216
927.737	12117
927.843	12049
927.95	11946
928.056	12076
928.162	12098
928.267	12079
928.373	12604
928.479	12045
928.585	11901
928.69	11992
928.796	11999
928.901	11897
929.007	11722
929.112	11946
929.218	11859
929.323	11824
929.428	11760
929.533	11965
929.638	11767
929.743	11729
929.848	11771
929.953	11707
930.058	11668
930.163	11395
930.267	11551
930.372	11619
930.477	11421
930.581	11748
930.685	11452
930.79	11334
930.894	11391
930.998	11376
931.103	11425
931.207	11098
931.311	11090
931.415	10991
931.519	10824
931.623	10710
