Data from test_V78500241_1293.txt Node
Date: Fri Mar 25 15:18:51 CST 2022
User: usil
Spectrometer: V785-0024
Trigger mode: 0
Integration Time (sec): 4.000000E-1
Scans to average: 1
Nonlinearity correction enabled: false
Boxcar width: 0
Storing dark spectrum: false
XAxis mode: Wavelengths
Number of Pixels in Spectrum: 1024
>>>>>Begin Spectral Data<<<<<
801.071	28112
801.214	28067
801.356	27743
801.499	27720
801.641	27660
801.783	27739
801.926	27717
802.068	27724
802.211	27580
802.353	27568
802.496	27317
802.638	27340
802.78	27329
802.923	27302
803.065	27298
803.208	27218
803.35	27325
803.492	27340
803.635	27447
803.777	27306
803.919	27477
804.061	28032
804.204	27504
804.346	27450
804.488	27553
804.63	27542
804.773	27416
804.915	27431
805.057	27720
805.199	27610
805.341	27705
805.483	27622
805.626	27732
805.768	27660
805.91	27641
806.052	27690
806.194	27606
806.336	27812
806.478	27603
806.62	27660
806.762	27690
806.904	27911
807.046	28120
807.188	28139
807.33	28093
807.472	28048
807.614	28112
807.756	28086
807.898	27857
808.04	27922
808.182	27823
808.324	27956
808.465	28086
808.607	28128
808.749	28352
808.891	28462
809.033	28447
809.174	28443
809.316	28379
809.458	28409
809.6	28265
809.741	28329
809.883	28390
810.025	28489
810.166	28664
810.308	28653
810.45	28843
810.591	28653
810.733	28337
810.875	28455
811.016	28154
811.158	28150
811.299	28440
811.441	28546
811.582	28474
811.724	28394
811.865	28261
812.007	28284
812.148	28360
812.29	28390
812.431	28519
812.573	28729
812.714	28885
812.855	28991
812.997	28961
813.138	29048
813.279	28976
813.421	28862
813.562	28862
813.703	28755
813.845	28531
813.986	28401
814.127	28291
814.268	28017
814.41	28131
814.551	28021
814.692	28101
814.833	27876
814.974	27869
815.115	28029
815.256	27774
815.397	28013
815.539	27873
815.68	27781
815.821	27732
815.962	27934
816.103	27789
816.244	27755
816.385	27564
816.526	27492
816.666	27431
816.807	27401
816.948	27310
817.089	27424
817.23	27310
817.371	27203
817.512	27298
817.653	27310
817.793	27298
817.934	27321
818.075	27283
818.216	27367
818.356	27325
818.497	27233
818.638	27032
818.778	27074
818.919	26948
819.06	27180
819.2	27291
819.341	27325
819.481	27340
819.622	27709
819.762	27762
819.903	27618
820.043	27507
820.184	27469
820.324	27462
820.465	27633
820.605	27363
820.746	27393
820.886	27363
821.026	27553
821.167	27332
821.307	27450
821.447	27405
821.588	27336
821.728	27131
821.868	26971
822.008	26788
822.149	26883
822.289	26746
822.429	26625
822.569	26568
822.709	26495
822.849	26408
822.99	26343
823.13	26423
823.27	26191
823.41	26157
823.55	26122
823.69	26267
823.83	26157
823.97	26195
824.11	25944
824.25	25906
824.389	25974
824.529	26043
824.669	26054
824.809	26244
824.949	26046
825.089	26122
825.228	25944
825.368	25769
825.508	25830
825.648	25887
825.787	25814
825.927	25966
826.067	25719
826.206	25917
826.346	25959
826.485	25887
826.625	25814
826.765	25951
826.904	25902
827.044	25635
827.183	25670
827.323	25556
827.462	25772
827.601	25613
827.741	25567
827.88	25460
828.02	25479
828.159	25563
828.298	25552
828.437	25582
828.577	25476
828.716	25670
828.855	25514
828.994	25362
829.134	25316
829.273	25274
829.412	25274
829.551	25255
829.69	25221
829.829	25255
829.968	25419
830.107	25304
830.246	25301
830.385	25110
830.524	25126
830.663	25107
830.802	24890
830.941	24943
831.08	24787
831.219	25038
831.357	24992
831.496	25050
831.635	24924
831.774	24837
831.913	24749
832.051	24734
832.19	24642
832.329	24684
832.467	24509
832.606	24597
832.744	24498
832.883	24426
833.022	24433
833.16	24486
833.299	24597
833.437	24509
833.576	24578
833.714	24631
833.852	24745
833.991	24760
834.129	24772
834.267	24783
834.406	24528
834.544	24681
834.682	24692
834.821	24574
834.959	24734
835.097	24593
835.235	24646
835.373	24597
835.511	24620
835.65	24464
835.788	24563
835.926	24422
836.064	24228
836.202	24273
836.34	24498
836.478	24479
836.615	24433
836.753	24475
836.891	24532
837.029	24456
837.167	24292
837.305	24254
837.443	24338
837.58	24296
837.718	24422
837.856	24410
837.993	24281
838.131	24308
838.269	24186
838.406	24220
838.544	24110
838.681	23935
838.819	23961
838.956	23851
839.094	23619
839.231	23783
839.369	23939
839.506	24060
839.643	23958
839.781	23840
839.918	23680
840.055	23642
840.193	23691
840.33	23687
840.467	23718
840.604	23802
840.742	23851
840.879	23649
841.016	23615
841.153	23562
841.29	23699
841.427	23490
841.564	23653
841.701	23592
841.838	23474
841.975	23592
842.112	23509
842.249	23360
842.385	23410
842.522	23589
842.659	23356
842.796	23372
842.933	23547
843.069	23398
843.206	23280
843.343	23383
843.479	23501
843.616	23372
843.752	23220
843.889	23242
844.025	23402
844.162	23086
844.298	23421
844.435	23136
844.571	23147
844.708	23204
844.844	23326
844.98	23387
845.117	23334
845.253	23170
845.389	23128
845.525	23113
845.661	23166
845.798	22987
845.934	22877
846.07	22889
846.206	23044
846.342	23083
846.478	22889
846.614	22797
846.75	22664
846.886	22565
847.022	22843
847.158	22691
847.294	22733
847.429	22752
847.565	22550
847.701	22843
847.837	22409
847.972	22402
848.108	22573
848.244	22512
848.379	22348
848.515	22360
848.65	22428
848.786	22413
848.921	22265
849.057	22371
849.192	22375
849.328	22344
849.463	22223
849.598	22257
849.734	22158
849.869	22128
850.004	21987
850.14	22051
850.275	22093
850.41	21956
850.545	21991
850.68	22055
850.815	22059
850.95	22070
851.085	22150
851.22	22188
851.355	22101
851.49	22059
851.625	21960
851.76	21953
851.895	22025
852.03	21975
852.165	22055
852.299	21880
852.434	22166
852.569	22139
852.703	22048
852.838	22109
852.973	22105
853.107	22226
853.242	21994
853.376	21873
853.511	21701
853.645	21835
853.78	21888
853.914	21911
854.048	21698
854.183	21728
854.317	21861
854.451	22059
854.585	21998
854.72	21736
854.854	21880
854.988	21679
855.122	21766
855.256	21857
855.39	21899
855.524	21926
855.658	21854
855.792	21907
855.926	21850
856.06	21876
856.194	21934
856.327	21835
856.461	21808
856.595	21785
856.729	21789
856.862	21937
856.996	21797
857.13	22036
857.263	21960
857.397	21899
857.53	21732
857.664	21911
857.797	22097
857.931	21991
858.064	21899
858.197	22082
858.331	21800
858.464	21808
858.597	21823
858.731	21823
858.864	21751
858.997	21865
859.13	21770
859.263	21880
859.396	21975
859.529	21854
859.662	21827
859.795	21915
859.928	21838
860.061	22013
860.194	22074
860.327	21979
860.46	21888
860.592	22013
860.725	21991
860.858	21857
860.99	21899
861.123	21797
861.256	21747
861.388	21785
861.521	22508
861.653	21816
861.786	21637
861.918	21705
862.05	21743
862.183	21816
862.315	21690
862.447	21709
862.58	21819
862.712	21572
862.844	21557
862.976	21690
863.108	21618
863.24	21972
863.372	21496
863.504	21614
863.636	21526
863.768	21591
863.9	21641
864.032	21488
864.164	21492
864.296	21557
864.428	21568
864.559	21671
864.691	21713
864.823	21641
864.954	21523
865.086	21534
865.217	21428
865.349	21283
865.48	21412
865.612	21454
865.743	21660
865.875	21500
866.006	21306
866.137	21511
866.269	21386
866.4	21428
866.531	21370
866.662	21291
866.793	21348
866.924	21401
867.055	21431
867.186	21515
867.317	21332
867.448	21252
867.579	21275
867.71	21272
867.841	21340
867.972	21325
868.103	21428
868.233	21336
868.364	21488
868.495	21515
868.625	21603
868.756	21720
868.886	21496
869.017	21583
869.147	21709
869.278	21770
869.408	21622
869.539	21633
869.669	21648
869.799	21473
869.929	21759
870.06	21686
870.19	21899
870.32	21941
870.45	21956
870.58	21953
870.71	22093
870.84	22090
870.97	21994
871.1	22021
871.23	22185
871.36	22246
871.489	22044
871.619	22169
871.749	22287
871.879	22272
872.008	22344
872.138	22139
872.267	22188
872.397	21953
872.526	22048
872.656	22169
872.785	21953
872.915	22226
873.044	22257
873.173	22299
873.303	22219
873.432	22318
873.561	22242
873.69	22280
873.819	22211
873.948	22329
874.077	22329
874.206	22109
874.335	22204
874.464	22314
874.593	22462
874.722	22409
874.851	22516
874.979	22497
875.108	22432
875.237	22474
875.365	22219
875.494	22611
875.623	22504
875.751	22485
875.88	22512
876.008	22459
876.136	22793
876.265	22790
876.393	22866
876.521	22866
876.65	22889
876.778	22850
876.906	22763
877.034	22854
877.162	22881
877.29	22782
877.418	22820
877.546	22843
877.674	22748
877.802	22763
877.93	22763
878.058	22740
878.185	22573
878.313	22748
878.441	22805
878.568	22679
878.696	22847
878.824	22771
878.951	22938
879.079	22885
879.206	23121
879.333	23029
879.461	22801
879.588	22869
879.715	22854
879.842	23083
879.97	22763
880.097	22618
880.224	22634
880.351	22618
880.478	22694
880.605	22588
880.732	22645
880.859	22816
880.986	22634
881.112	22588
881.239	22424
881.366	22405
881.493	22200
881.619	22112
881.746	22276
881.872	22287
881.999	22048
882.125	22006
882.252	22177
882.378	22116
882.505	22226
882.631	22017
882.757	21846
882.883	21876
883.01	22002
883.136	21766
883.262	21800
883.388	21606
883.514	21857
883.64	21937
883.766	21724
883.892	21564
884.018	21694
884.143	21713
884.269	21903
884.395	21644
884.52	21439
884.646	21606
884.772	21332
884.897	21401
885.023	21447
885.148	21648
885.274	21633
885.399	21709
885.524	21389
885.65	21481
885.775	21504
885.9	21428
886.025	21477
886.15	21545
886.275	21412
886.4	21378
886.525	21351
886.65	21344
886.775	21367
886.9	21500
887.025	21595
887.149	21469
887.274	21272
887.399	21264
887.523	21355
887.648	21325
887.773	21199
887.897	21283
888.021	21249
888.146	21249
888.27	21332
888.395	21393
888.519	21165
888.643	21241
888.767	21386
888.891	21264
889.015	21070
889.139	21173
889.263	21024
889.387	21154
889.511	21313
889.635	21169
889.759	21047
889.883	21104
890.006	21131
890.13	21081
890.254	21005
890.377	21005
890.501	20804
890.624	20785
890.748	20906
890.871	20689
890.995	20655
891.118	20541
891.241	20663
891.364	20514
891.488	20735
891.611	20613
891.734	20644
891.857	20697
891.98	20617
892.103	20651
892.226	20587
892.349	20442
892.471	20404
892.594	20480
892.717	20545
892.839	20522
892.962	20473
893.085	20552
893.207	20438
893.33	20320
893.452	20412
893.575	20629
893.697	20427
893.819	20724
893.941	20667
894.064	20644
894.186	20469
894.308	20431
894.43	20514
894.552	20762
894.674	20514
894.796	20393
894.918	20377
895.04	20454
895.161	20545
895.283	20549
895.405	20454
895.526	20484
895.648	20514
895.769	20549
895.891	20609
896.012	20609
896.134	20518
896.255	20389
896.376	20530
896.498	20564
896.619	20541
896.74	20442
896.861	20606
896.982	20807
897.103	20933
897.224	20804
897.345	20773
897.466	20667
897.587	20636
897.708	20826
897.828	20785
897.949	20663
898.07	20667
898.19	20560
898.311	20868
898.431	20598
898.552	20663
898.672	20765
898.792	20769
898.913	20785
899.033	20682
899.153	20450
899.273	20396
899.393	20469
899.513	20457
899.633	20476
899.753	20537
899.873	20431
899.993	20393
900.113	20469
900.232	20400
900.352	20450
900.472	20408
900.591	20164
900.711	20339
900.83	20214
900.95	20351
901.069	20351
901.189	20058
901.308	19860
901.427	19799
901.546	19864
901.665	19795
901.784	19830
901.904	19772
902.023	19529
902.141	19327
902.26	19282
902.379	19453
902.498	19312
902.617	19187
902.735	19388
902.854	19289
902.973	19225
903.091	18977
903.21	19015
903.328	18871
903.446	18909
903.565	18764
903.683	18802
903.801	18764
903.919	18776
904.038	18753
904.156	18540
904.274	18639
904.392	18403
904.51	18525
904.627	18502
904.745	18498
904.863	18547
904.981	18422
905.098	18239
905.216	18254
905.334	18266
905.451	18235
905.569	18140
905.686	18144
905.803	18205
905.921	18064
906.038	18060
906.155	17836
906.272	17863
906.389	17988
906.506	17760
906.623	17779
906.74	17771
906.857	17665
906.974	17722
907.091	17790
907.208	17885
907.324	17859
907.441	17703
907.557	17467
907.674	17570
907.79	17398
907.907	17497
908.023	17505
908.139	17509
908.256	17307
908.372	17292
908.488	17379
908.604	17356
908.72	17064
908.836	17239
908.952	17235
909.068	17151
909.184	17212
909.3	17208
909.415	17178
909.531	17212
909.647	16908
909.762	16995
909.878	16831
909.993	16923
910.108	16892
910.224	16858
910.339	16858
910.454	16691
910.57	16763
910.685	16683
910.8	17006
910.915	16801
911.03	16649
911.145	16455
911.259	16550
911.374	16402
911.489	16436
911.604	16371
911.718	16181
911.833	16207
911.947	16158
912.062	16010
912.176	16284
912.291	16169
912.405	16188
912.519	16421
912.633	16470
912.748	16207
912.862	16116
912.976	16097
913.09	15907
913.204	16059
913.318	16025
913.431	16131
913.545	16109
913.659	16223
913.772	15998
913.886	15835
914	15823
914.113	15911
914.226	16025
914.34	15918
914.453	15755
914.566	15854
914.68	15663
914.793	15709
914.906	15447
915.019	15462
915.132	15386
915.245	15359
915.358	15466
915.47	15424
915.583	15466
915.696	15481
915.809	15519
915.921	15523
916.034	15412
916.146	15363
916.259	15302
916.371	15420
916.483	15306
916.595	15252
916.708	15325
916.82	15180
916.932	15241
917.044	15230
917.156	15268
917.268	15070
917.38	15085
917.491	15081
917.603	15047
917.715	15104
917.826	15199
917.938	15028
918.049	14944
918.161	15074
918.272	15138
918.384	15211
918.495	14979
918.606	14895
918.717	14693
918.828	14739
918.939	14933
919.05	14800
919.161	14754
919.272	14716
919.383	14644
919.494	14811
919.604	14994
919.715	14826
919.826	14686
919.936	14762
920.047	14830
920.157	14781
920.267	15009
920.378	14765
920.488	14712
920.598	15036
920.708	15154
920.818	14899
920.928	14899
921.038	15108
921.148	14971
921.258	14670
921.368	14625
921.477	14533
921.587	14507
921.697	14347
921.806	14625
921.916	14389
922.025	14256
922.134	14191
922.244	14119
922.353	14202
922.462	14043
922.571	13982
922.68	13818
922.789	13841
922.898	13772
923.007	13734
923.116	13738
923.224	13795
923.333	13738
923.442	13719
923.55	13609
923.659	13700
923.767	13677
923.876	13556
923.984	13655
924.092	13567
924.201	13499
924.309	13662
924.417	13518
924.525	13438
924.633	13426
924.741	14473
924.849	13244
924.956	13422
925.064	13312
925.172	13137
925.279	13179
925.387	13187
925.494	13266
925.602	13270
925.709	13244
925.816	13069
925.924	13137
926.031	13266
926.138	13190
926.245	13156
926.352	13015
926.459	13061
926.566	13202
926.673	13031
926.779	12932
926.886	12977
926.993	12741
927.099	12726
927.206	12715
927.312	12677
927.419	12795
927.525	12730
927.631	12776
927.737	12681
927.843	12616
927.95	12498
928.056	12528
928.162	12616
928.267	12665
928.373	13198
928.479	12669
928.585	12456
928.69	12639
928.796	12597
928.901	12467
929.007	12273
929.112	12437
929.218	12388
929.323	12304
929.428	12350
929.533	12471
929.638	12262
929.743	12235
929.848	12235
929.953	12182
930.058	12167
930.163	12022
930.267	12041
930.372	12224
930.477	11954
930.581	12186
930.685	12011
930.79	11866
930.894	11946
930.998	11870
931.103	12019
931.207	11611
931.311	11524
931.415	11440
931.519	11254
931.623	11242
