Data from test_V78500241_3143.txt Node
Date: Fri Mar 25 15:31:44 CST 2022
User: usil
Spectrometer: V785-0024
Trigger mode: 0
Integration Time (sec): 4.000000E-1
Scans to average: 1
Nonlinearity correction enabled: false
Boxcar width: 0
Storing dark spectrum: false
XAxis mode: Wavelengths
Number of Pixels in Spectrum: 1024
>>>>>Begin Spectral Data<<<<<
801.071	27233
801.214	27123
801.356	26716
801.499	26739
801.641	26693
801.783	26712
801.926	26845
802.068	26686
802.211	26606
802.353	26461
802.496	26370
802.638	26305
802.78	26324
802.923	26126
803.065	26320
803.208	26275
803.35	26404
803.492	26400
803.635	26629
803.777	26503
803.919	26476
804.061	26895
804.204	26632
804.346	26503
804.488	26408
804.63	26393
804.773	26366
804.915	26560
805.057	26602
805.199	26389
805.341	26663
805.483	26545
805.626	26564
805.768	26533
805.91	26655
806.052	26651
806.194	26530
806.336	26746
806.478	26568
806.62	26545
806.762	26777
806.904	26853
807.046	27112
807.188	27093
807.33	26982
807.472	26971
807.614	27017
807.756	26914
807.898	26815
808.04	26842
808.182	26792
808.324	26804
808.465	26918
808.607	27020
808.749	27199
808.891	27264
809.033	27294
809.174	27222
809.316	27332
809.458	27116
809.6	27173
809.741	27256
809.883	27237
810.025	27401
810.166	27599
810.308	27469
810.45	27313
810.591	27386
810.733	27222
810.875	27142
811.016	27131
811.158	26914
811.299	27325
811.441	27393
811.582	27382
811.724	27214
811.865	27116
812.007	27226
812.148	27173
812.29	27256
812.431	27378
812.573	27473
812.714	27504
812.855	27751
812.997	27713
813.138	27956
813.279	27759
813.421	27682
813.562	27629
813.703	27435
813.845	27443
813.986	27203
814.127	26982
814.268	26891
814.41	26746
814.551	26807
814.692	26868
814.833	26758
814.974	26697
815.115	26842
815.256	26659
815.397	26754
815.539	26834
815.68	26667
815.821	26545
815.962	26762
816.103	26632
816.244	26530
816.385	26393
816.526	26377
816.666	26298
816.807	26134
816.948	26168
817.089	26298
817.23	26081
817.371	26130
817.512	26050
817.653	26043
817.793	26005
817.934	26077
818.075	26206
818.216	26092
818.356	26149
818.497	25959
818.638	25841
818.778	25765
818.919	25925
819.06	25959
819.2	26020
819.341	25986
819.481	26027
819.622	26191
819.762	26412
819.903	26320
820.043	26389
820.184	26149
820.324	26305
820.465	26252
820.605	26282
820.746	26172
820.886	26126
821.026	26115
821.167	26210
821.307	26172
821.447	25959
821.588	26073
821.728	25940
821.868	25700
822.008	25521
822.149	25605
822.289	25628
822.429	25331
822.569	25324
822.709	25293
822.849	25034
822.99	24981
823.13	25091
823.27	24981
823.41	24856
823.55	24817
823.69	24878
823.83	24897
823.97	24867
824.11	24703
824.25	24608
824.389	24684
824.529	24760
824.669	24703
824.809	24768
824.949	24772
825.089	24745
825.228	24639
825.368	24483
825.508	24517
825.648	24494
825.787	24616
825.927	24601
826.067	24483
826.206	24582
826.346	24711
826.485	24753
826.625	24486
826.765	24646
826.904	24673
827.044	24300
827.183	24311
827.323	24247
827.462	24281
827.601	24319
827.741	24254
827.88	24209
828.02	24201
828.159	24213
828.298	24369
828.437	24342
828.577	24247
828.716	24395
828.855	24163
828.994	23840
829.134	23901
829.273	23965
829.412	23729
829.551	23942
829.69	24003
829.829	23912
829.968	24045
830.107	24083
830.246	23916
830.385	23988
830.524	23927
830.663	23798
830.802	23741
830.941	23710
831.08	23520
831.219	23707
831.357	23718
831.496	23775
831.635	23627
831.774	23577
831.913	23345
832.051	23387
832.19	23387
832.329	23364
832.467	23273
832.606	23128
832.744	23208
832.883	23246
833.022	23235
833.16	23189
833.299	23280
833.437	23341
833.576	23452
833.714	23261
833.852	23463
833.991	23277
834.129	23402
834.267	23341
834.406	23433
834.544	23337
834.682	23387
834.821	23395
834.959	23547
835.097	23345
835.235	23387
835.373	23261
835.511	23311
835.65	23098
835.788	23292
835.926	23105
836.064	23014
836.202	23048
836.34	23113
836.478	23189
836.615	23197
836.753	23147
836.891	23254
837.029	23170
837.167	23162
837.305	23025
837.443	23098
837.58	23033
837.718	23136
837.856	23037
837.993	22949
838.131	22930
838.269	22915
838.406	22843
838.544	22885
838.681	22656
838.819	22641
838.956	22470
839.094	22474
839.231	22417
839.369	22615
839.506	22923
839.643	22744
839.781	22451
839.918	22405
840.055	22508
840.193	22569
840.33	22497
840.467	22451
840.604	22588
840.742	22774
840.879	22405
841.016	22478
841.153	22291
841.29	22512
841.427	22512
841.564	22489
841.701	22459
841.838	22352
841.975	22394
842.112	22341
842.249	22325
842.385	22230
842.522	22474
842.659	22242
842.796	22131
842.933	22268
843.069	22093
843.206	22181
843.343	22200
843.479	22135
843.616	22135
843.752	22078
843.889	21937
844.025	22120
844.162	22055
844.298	22131
844.435	22021
844.571	21975
844.708	22044
844.844	22143
844.98	22063
845.117	22078
845.253	21975
845.389	21850
845.525	21930
845.661	21789
845.798	21663
845.934	21816
846.07	21861
846.206	21671
846.342	21778
846.478	21732
846.614	21496
846.75	21572
846.886	21420
847.022	21599
847.158	21652
847.294	21405
847.429	21488
847.565	21473
847.701	21804
847.837	21154
847.972	21108
848.108	21344
848.244	21237
848.379	20967
848.515	21074
848.65	21028
848.786	21001
848.921	21226
849.057	21085
849.192	21119
849.328	21249
849.463	20960
849.598	21009
849.734	21013
849.869	20918
850.004	20941
850.14	20838
850.275	20758
850.41	20804
850.545	20739
850.68	20746
850.815	20773
850.95	20773
851.085	21058
851.22	20819
851.355	20781
851.49	20727
851.625	20823
851.76	20739
851.895	20777
852.03	20739
852.165	20625
852.299	20971
852.434	20925
852.569	20849
852.703	20872
852.838	20864
852.973	21005
853.107	20986
853.242	20743
853.376	20541
853.511	20507
853.645	20522
853.78	20845
853.914	20655
854.048	20731
854.183	20678
854.317	20686
854.451	20872
854.585	20765
854.72	20568
854.854	20746
854.988	20587
855.122	20629
855.256	20587
855.39	20629
855.524	20663
855.658	20705
855.792	20697
855.926	20648
856.06	20632
856.194	20705
856.327	20667
856.461	20549
856.595	20609
856.729	20689
856.862	20883
856.996	20632
857.13	20750
857.263	20796
857.397	20800
857.53	20735
857.664	20716
857.797	20727
857.931	20807
858.064	20651
858.197	20765
858.331	20613
858.464	20625
858.597	20568
858.731	20632
858.864	20621
858.997	20609
859.13	20663
859.263	20735
859.396	20724
859.529	20674
859.662	20594
859.795	20632
859.928	20762
860.061	20720
860.194	20925
860.327	20632
860.46	20682
860.592	20807
860.725	20811
860.858	20880
860.99	20807
861.123	20606
861.256	20735
861.388	20686
861.521	21230
861.653	20442
861.786	20545
861.918	20381
862.05	20469
862.183	20682
862.315	20594
862.447	20686
862.58	20495
862.712	20492
862.844	20286
862.976	20571
863.108	20495
863.24	20811
863.372	20415
863.504	20366
863.636	20305
863.768	20271
863.9	20282
864.032	20423
864.164	20301
864.296	20408
864.428	20473
864.559	20419
864.691	20461
864.823	20431
864.954	20434
865.086	20347
865.217	20290
865.349	20290
865.48	20259
865.612	20218
865.743	20412
865.875	20267
866.006	20187
866.137	20328
866.269	20358
866.4	20476
866.531	20305
866.662	20225
866.793	20259
866.924	20195
867.055	20252
867.186	20126
867.317	20183
867.448	20092
867.579	20248
867.71	20103
867.841	20107
867.972	20225
868.103	20240
868.233	20218
868.364	20282
868.495	20381
868.625	20396
868.756	20507
868.886	20492
869.017	20533
869.147	20625
869.278	20621
869.408	20511
869.539	20492
869.669	20492
869.799	20606
869.929	20598
870.06	20667
870.19	20781
870.32	20891
870.45	20921
870.58	20842
870.71	20864
870.84	20895
870.97	20838
871.1	20868
871.23	21043
871.36	20963
871.489	20899
871.619	21055
871.749	21070
871.879	21108
872.008	21169
872.138	21036
872.267	21013
872.397	20979
872.526	20925
872.656	20872
872.785	20800
872.915	21138
873.044	21203
873.173	21089
873.303	21070
873.432	21252
873.561	21188
873.69	21104
873.819	21089
873.948	21176
874.077	21077
874.206	21047
874.335	21157
874.464	21260
874.593	21374
874.722	21401
874.851	21348
874.979	21401
875.108	21268
875.237	21291
875.365	21237
875.494	21348
875.623	21374
875.751	21363
875.88	21389
876.008	21435
876.136	21538
876.265	21812
876.393	21915
876.521	21850
876.65	21800
876.778	21736
876.906	21667
877.034	21755
877.162	21781
877.29	21690
877.418	21709
877.546	21736
877.674	21755
877.802	21660
877.93	21739
878.058	21709
878.185	21633
878.313	21690
878.441	21618
878.568	21515
878.696	21572
878.824	21675
878.951	21842
879.079	21781
879.206	22017
879.333	21800
879.461	21854
879.588	21854
879.715	21903
879.842	21975
879.97	21625
880.097	21462
880.224	21553
880.351	21618
880.478	21477
880.605	21568
880.732	21534
880.859	21652
880.986	21405
881.112	21614
881.239	21401
881.366	21348
881.493	21268
881.619	21188
881.746	21043
881.872	21093
881.999	21024
882.125	21146
882.252	21108
882.378	21032
882.505	21157
882.631	20921
882.757	20754
882.883	20845
883.01	20826
883.136	20830
883.262	20667
883.388	20674
883.514	20853
883.64	20880
883.766	20933
883.892	20594
884.018	20522
884.143	20720
884.269	20872
884.395	20613
884.52	20537
884.646	20476
884.772	20465
884.897	20362
885.023	20423
885.148	20454
885.274	20556
885.399	20514
885.524	20412
885.65	20442
885.775	20530
885.9	20412
886.025	20511
886.15	20594
886.275	20278
886.4	20442
886.525	20317
886.65	20355
886.775	20381
886.9	20632
887.025	20670
887.149	20492
887.274	20168
887.399	20199
887.523	20191
887.648	20119
887.773	20210
887.897	20252
888.021	20298
888.146	20206
888.27	20381
888.395	20298
888.519	20347
888.643	20180
888.767	20336
888.891	20214
889.015	20065
889.139	20088
889.263	20012
889.387	20130
889.511	20237
889.635	20054
889.759	19963
889.883	19837
890.006	19921
890.13	20180
890.254	19951
890.377	19887
890.501	19830
890.624	19822
890.748	19902
890.871	19708
890.995	19700
891.118	19502
891.241	19540
891.364	19662
891.488	19712
891.611	19632
891.734	19518
891.857	19693
891.98	19674
892.103	19594
892.226	19620
892.349	19525
892.471	19441
892.594	19632
892.717	19601
892.839	19343
892.962	19544
893.085	19674
893.207	19506
893.33	19529
893.452	19491
893.575	19559
893.697	19453
893.819	19738
893.941	19731
894.064	19731
894.186	19518
894.308	19411
894.43	19620
894.552	19734
894.674	19590
894.796	19514
894.918	19544
895.04	19426
895.161	19571
895.283	19544
895.405	19525
895.526	19544
895.648	19556
895.769	19544
895.891	19487
896.012	19609
896.134	19540
896.255	19601
896.376	19491
896.498	19441
896.619	19578
896.74	19556
896.861	19544
896.982	19849
897.103	19940
897.224	19849
897.345	19818
897.466	19639
897.587	19788
897.708	19951
897.828	19780
897.949	19761
898.07	19643
898.19	19605
898.311	19814
898.431	19757
898.552	19799
898.672	19818
898.792	19936
898.913	19788
899.033	19742
899.153	19616
899.273	19460
899.393	19552
899.513	19556
899.633	19495
899.753	19597
899.873	19445
899.993	19575
900.113	19495
900.232	19468
900.352	19381
900.472	19495
900.591	19354
900.711	19312
900.83	19282
900.95	19430
901.069	19472
901.189	19209
901.308	19050
901.427	18871
901.546	18844
901.665	18886
901.784	18966
901.904	18806
902.023	18741
902.141	18494
902.26	18437
902.379	18483
902.498	18388
902.617	18452
902.735	18517
902.854	18445
902.973	18376
903.091	18125
903.21	18186
903.328	18152
903.446	18083
903.565	17965
903.683	17935
903.801	17798
903.919	17904
904.038	17916
904.156	17722
904.274	17741
904.392	17646
904.51	17608
904.627	17627
904.745	17695
904.863	17752
904.981	17334
905.098	17402
905.216	17345
905.334	17391
905.451	17395
905.569	17269
905.686	17433
905.803	17414
905.921	17143
906.038	17242
906.155	17181
906.272	17117
906.389	16987
906.506	16923
906.623	16946
906.74	16896
906.857	16790
906.974	16809
907.091	16911
907.208	16908
907.324	16869
907.441	16721
907.557	16630
907.674	16637
907.79	16550
907.907	16535
908.023	16645
908.139	16653
908.256	16550
908.372	16565
908.488	16516
908.604	16398
908.72	16424
908.836	16356
908.952	16333
909.068	16394
909.184	16459
909.3	16306
909.415	16375
909.531	16474
909.647	16188
909.762	16044
909.878	16120
909.993	16139
910.108	16021
910.224	15964
910.339	16036
910.454	15934
910.57	15797
910.685	15838
910.8	16032
910.915	16021
911.03	15854
911.145	15717
911.259	15614
911.374	15720
911.489	15610
911.604	15538
911.718	15424
911.833	15359
911.947	15317
912.062	15146
912.176	15367
912.291	15538
912.405	15431
912.519	15603
912.633	15557
912.748	15500
912.862	15389
912.976	15165
913.09	15013
913.204	15142
913.318	15252
913.431	15412
913.545	15344
913.659	15283
913.772	15165
913.886	15013
914	15055
914.113	15070
914.226	15173
914.34	15085
914.453	14895
914.566	15055
914.68	14918
914.793	14883
914.906	14743
915.019	14754
915.132	14632
915.245	14629
915.358	14781
915.47	14644
915.583	14636
915.696	14655
915.809	14792
915.921	14785
916.034	14629
916.146	14583
916.259	14648
916.371	14587
916.483	14590
916.595	14457
916.708	14469
916.82	14476
916.932	14469
917.044	14461
917.156	14396
917.268	14332
917.38	14370
917.491	14328
917.603	14286
917.715	14503
917.826	14404
917.938	14305
918.049	14168
918.161	14320
918.272	14454
918.384	14404
918.495	14225
918.606	14130
918.717	14050
918.828	14027
918.939	14107
919.05	13997
919.161	13993
919.272	13967
919.383	13959
919.494	14084
919.604	14317
919.715	14119
919.826	13982
919.936	14050
920.047	14107
920.157	14081
920.267	14176
920.378	14145
920.488	14024
920.598	14229
920.708	14358
920.818	14252
920.928	14221
921.038	14347
921.148	14259
921.258	14035
921.368	13841
921.477	13852
921.587	13898
921.697	13765
921.806	13784
921.916	13712
922.025	13582
922.134	13521
922.244	13480
922.353	13525
922.462	13346
922.571	13346
922.68	13145
922.789	13065
922.898	13129
923.007	12970
923.116	13156
923.224	13103
923.333	13065
923.442	13000
923.55	12939
923.659	12935
923.767	12951
923.876	12875
923.984	12935
924.092	12859
924.201	12856
924.309	12875
924.417	12897
924.525	12749
924.633	12840
924.741	13826
924.849	12570
924.956	12734
925.064	12604
925.172	12585
925.279	12715
925.387	12623
925.494	12585
925.602	12677
925.709	12582
925.816	12384
925.924	12494
926.031	12662
926.138	12467
926.245	12601
926.352	12418
926.459	12502
926.566	12570
926.673	12448
926.779	12342
926.886	12353
926.993	12220
927.099	12136
927.206	12106
927.312	12114
927.419	12300
927.525	12140
927.631	12266
927.737	12079
927.843	11958
927.95	11904
928.056	12045
928.162	12041
928.267	11958
928.373	12673
928.479	12072
928.585	11870
928.69	11988
928.796	12041
928.901	11870
929.007	11802
929.112	11859
929.218	11843
929.323	11726
929.428	11688
929.533	11775
929.638	11638
929.743	11653
929.848	11756
929.953	11707
930.058	11535
930.163	11436
930.267	11493
930.372	11573
930.477	11402
930.581	11558
930.685	11429
930.79	11303
930.894	11315
930.998	11273
931.103	11383
931.207	11132
931.311	11048
931.415	10854
931.519	10694
931.623	10702
