Data from test_V78500241_302.txt Node
Date: Fri Mar 25 15:11:57 CST 2022
User: usil
Spectrometer: V785-0024
Trigger mode: 0
Integration Time (sec): 4.000000E-1
Scans to average: 1
Nonlinearity correction enabled: false
Boxcar width: 0
Storing dark spectrum: false
XAxis mode: Wavelengths
Number of Pixels in Spectrum: 1024
>>>>>Begin Spectral Data<<<<<
801.071	28067
801.214	27918
801.356	27682
801.499	27690
801.641	27549
801.783	27534
801.926	27564
802.068	27416
802.211	27367
802.353	27378
802.496	27157
802.638	27192
802.78	27180
802.923	26948
803.065	27017
803.208	27176
803.35	27131
803.492	27348
803.635	27336
803.777	27287
803.919	27405
804.061	27774
804.204	27321
804.346	27093
804.488	27169
804.63	27207
804.773	27070
804.915	27336
805.057	27458
805.199	27214
805.341	27180
805.483	27367
805.626	27393
805.768	27279
805.91	27332
806.052	27306
806.194	27340
806.336	27447
806.478	27511
806.62	27416
806.762	27496
806.904	27671
807.046	27934
807.188	27720
807.33	27888
807.472	27732
807.614	27682
807.756	27675
807.898	27564
808.04	27614
808.182	27614
808.324	27606
808.465	27599
808.607	27838
808.749	27873
808.891	28063
809.033	28188
809.174	27937
809.316	28013
809.458	28074
809.6	27930
809.741	28078
809.883	28021
810.025	28223
810.166	28238
810.308	28238
810.45	28287
810.591	28139
810.733	27975
810.875	27956
811.016	27945
811.158	27884
811.299	28131
811.441	28036
811.582	28139
811.724	27793
811.865	27781
812.007	27968
812.148	27842
812.29	27949
812.431	28086
812.573	28367
812.714	28318
812.855	28405
812.997	28615
813.138	28733
813.279	28596
813.421	28462
813.562	28348
813.703	28185
813.845	28230
813.986	27819
814.127	27549
814.268	27515
814.41	27690
814.551	27450
814.692	27701
814.833	27580
814.974	27595
815.115	27564
815.256	27389
815.397	27564
815.539	27561
815.68	27348
815.821	27348
815.962	27435
816.103	27313
816.244	27378
816.385	27298
816.526	27081
816.666	26967
816.807	26777
816.948	26902
817.089	26963
817.23	26948
817.371	26925
817.512	26899
817.653	26845
817.793	26861
817.934	26735
818.075	26910
818.216	26811
818.356	26804
818.497	26640
818.638	26602
818.778	26511
818.919	26648
819.06	26571
819.2	26670
819.341	26727
819.481	26739
819.622	26963
819.762	27161
819.903	27043
820.043	27013
820.184	26902
820.324	26830
820.465	26994
820.605	26899
820.746	26952
820.886	26701
821.026	26781
821.167	26914
821.307	26940
821.447	26792
821.588	26674
821.728	26442
821.868	26488
822.008	26225
822.149	26351
822.289	26195
822.429	25951
822.569	25944
822.709	25879
822.849	25662
822.99	25742
823.13	25738
823.27	25704
823.41	25468
823.55	25335
823.69	25590
823.83	25518
823.97	25575
824.11	25381
824.25	25365
824.389	25320
824.529	25403
824.669	25403
824.809	25434
824.949	25415
825.089	25476
825.228	25384
825.368	25194
825.508	25221
825.648	25270
825.787	25126
825.927	25362
826.067	25335
826.206	25099
826.346	25240
826.485	25095
826.625	25297
826.765	25285
826.904	25354
827.044	24928
827.183	25027
827.323	24920
827.462	24894
827.601	24875
827.741	24856
827.88	24943
828.02	24844
828.159	24863
828.298	24875
828.437	25027
828.577	24825
828.716	24962
828.855	24738
828.994	24612
829.134	24661
829.273	24669
829.412	24521
829.551	24490
829.69	24627
829.829	24715
829.968	24821
830.107	24582
830.246	24711
830.385	24582
830.524	24521
830.663	24391
830.802	24311
830.941	24091
831.08	24098
831.219	24281
831.357	24262
831.496	24327
831.635	24205
831.774	24205
831.913	24106
832.051	23965
832.19	24079
832.329	23882
832.467	23893
832.606	23775
832.744	23813
832.883	23870
833.022	23843
833.16	23897
833.299	23828
833.437	23885
833.576	23821
833.714	23958
833.852	23931
833.991	24030
834.129	23901
834.267	24034
834.406	23961
834.544	23923
834.682	23961
834.821	23908
834.959	24117
835.097	23836
835.235	23885
835.373	23828
835.511	23897
835.65	23634
835.788	23908
835.926	23604
836.064	23577
836.202	23592
836.34	23764
836.478	23794
836.615	23733
836.753	23672
836.891	23779
837.029	23695
837.167	23748
837.305	23570
837.443	23665
837.58	23543
837.718	23745
837.856	23703
837.993	23543
838.131	23528
838.269	23459
838.406	23558
838.544	23440
838.681	23254
838.819	23166
838.956	23060
839.094	23220
839.231	23060
839.369	23242
839.506	23398
839.643	23299
839.781	23025
839.918	23052
840.055	23060
840.193	23018
840.33	23067
840.467	22991
840.604	22927
840.742	23193
840.879	22683
841.016	22873
841.153	22862
841.29	23041
841.427	22938
841.564	23052
841.701	22858
841.838	22862
841.975	22801
842.112	22850
842.249	22755
842.385	22672
842.522	22797
842.659	22752
842.796	22592
842.933	22630
843.069	22607
843.206	22653
843.343	22725
843.479	22637
843.616	22694
843.752	22603
843.889	22459
844.025	22516
844.162	22367
844.298	22588
844.435	22394
844.571	22314
844.708	22531
844.844	22626
844.98	22611
845.117	22546
845.253	22329
845.389	22238
845.525	22329
845.661	22223
845.798	22173
845.934	22211
846.07	22211
846.206	22154
846.342	22265
846.478	22169
846.614	22002
846.75	21785
846.886	21835
847.022	22055
847.158	21903
847.294	21968
847.429	21926
847.565	21842
847.701	22067
847.837	21652
847.972	21599
848.108	21682
848.244	21686
848.379	21576
848.515	21538
848.65	21511
848.786	21583
848.921	21447
849.057	21515
849.192	21526
849.328	21553
849.463	21507
849.598	21454
849.734	21439
849.869	21397
850.004	21287
850.14	21264
850.275	21275
850.41	21180
850.545	21298
850.68	21249
850.815	21260
850.95	21203
851.085	21397
851.22	21260
851.355	21203
851.49	21127
851.625	21264
851.76	21230
851.895	21077
852.03	21165
852.165	21256
852.299	21256
852.434	21192
852.569	21249
852.703	21249
852.838	21298
852.973	21363
853.107	21310
853.242	21154
853.376	20990
853.511	21009
853.645	21055
853.78	21089
853.914	21055
854.048	21093
854.183	21024
854.317	21058
854.451	21138
854.585	21104
854.72	21009
854.854	21013
854.988	21039
855.122	21017
855.256	20979
855.39	21013
855.524	21039
855.658	21104
855.792	21028
855.926	21135
856.06	21043
856.194	21165
856.327	21017
856.461	21005
856.595	20963
856.729	21070
856.862	21157
856.996	20998
857.13	21112
857.263	21207
857.397	21123
857.53	20914
857.664	21173
857.797	21195
857.931	21173
858.064	21165
858.197	21116
858.331	21013
858.464	20925
858.597	20902
858.731	21028
858.864	21024
858.997	20960
859.13	20876
859.263	21146
859.396	21161
859.529	21017
859.662	20880
859.795	20933
859.928	21062
860.061	21157
860.194	21165
860.327	21032
860.46	21066
860.592	21100
860.725	21112
860.858	21146
860.99	21070
861.123	20899
861.256	20998
861.388	20994
861.521	21603
861.653	20921
861.786	20906
861.918	20933
862.05	21020
862.183	21001
862.315	21036
862.447	21077
862.58	20773
862.712	20853
862.844	20697
862.976	20899
863.108	20762
863.24	21195
863.372	20716
863.504	20773
863.636	20769
863.768	20804
863.9	20762
864.032	20621
864.164	20686
864.296	20678
864.428	20750
864.559	20811
864.691	20750
864.823	20746
864.954	20632
865.086	20701
865.217	20606
865.349	20492
865.48	20575
865.612	20621
865.743	20754
865.875	20758
866.006	20613
866.137	20648
866.269	20606
866.4	20476
866.531	20613
866.662	20442
866.793	20446
866.924	20598
867.055	20636
867.186	20609
867.317	20533
867.448	20514
867.579	20480
867.71	20419
867.841	20476
867.972	20575
868.103	20545
868.233	20537
868.364	20549
868.495	20670
868.625	20781
868.756	20842
868.886	20758
869.017	20701
869.147	20979
869.278	20948
869.408	20838
869.539	20743
869.669	20902
869.799	20750
869.929	21032
870.06	20975
870.19	21146
870.32	21001
870.45	21119
870.58	21104
870.71	21252
870.84	21237
870.97	21070
871.1	21199
871.23	21408
871.36	21329
871.489	21264
871.619	21386
871.749	21340
871.879	21458
872.008	21367
872.138	21378
872.267	21378
872.397	21370
872.526	21241
872.656	21214
872.785	21154
872.915	21507
873.044	21526
873.173	21351
873.303	21618
873.432	21492
873.561	21526
873.69	21481
873.819	21329
873.948	21492
874.077	21378
874.206	21454
874.335	21397
874.464	21431
874.593	21713
874.722	21568
874.851	21629
874.979	21705
875.108	21705
875.237	21542
875.365	21450
875.494	21667
875.623	21698
875.751	21603
875.88	21751
876.008	21781
876.136	21865
876.265	22086
876.393	22093
876.521	22029
876.65	22090
876.778	22048
876.906	22044
877.034	22044
877.162	21945
877.29	21873
877.418	22025
877.546	22002
877.674	21964
877.802	21964
877.93	22040
878.058	21964
878.185	21895
878.313	21888
878.441	21895
878.568	21823
878.696	21884
878.824	21945
878.951	22067
879.079	22272
879.206	22215
879.333	22219
879.461	22040
879.588	22051
879.715	22017
879.842	22211
879.97	21960
880.097	21842
880.224	21785
880.351	21785
880.478	21743
880.605	21778
880.732	21762
880.859	22112
880.986	21778
881.112	21778
881.239	21789
881.366	21564
881.493	21523
881.619	21500
881.746	21367
881.872	21466
881.999	21481
882.125	21374
882.252	21382
882.378	21355
882.505	21454
882.631	21203
882.757	21077
882.883	21195
883.01	21154
883.136	21131
883.262	20906
883.388	21017
883.514	21116
883.64	21066
883.766	21032
883.892	20834
884.018	20925
884.143	21070
884.269	21154
884.395	20842
884.52	20701
884.646	20849
884.772	20769
884.897	20609
885.023	20754
885.148	20750
885.274	20956
885.399	20746
885.524	20621
885.65	20830
885.775	20883
885.9	20739
886.025	20895
886.15	20876
886.275	20644
886.4	20583
886.525	20716
886.65	20746
886.775	20541
886.9	20956
887.025	20952
887.149	20731
887.274	20488
887.399	20526
887.523	20503
887.648	20476
887.773	20305
887.897	20560
888.021	20476
888.146	20533
888.27	20575
888.395	20640
888.519	20427
888.643	20564
888.767	20571
888.891	20320
889.015	20298
889.139	20507
889.263	20336
889.387	20377
889.511	20492
889.635	20514
889.759	20290
889.883	20294
890.006	20343
890.13	20400
890.254	20180
890.377	20240
890.501	20077
890.624	20027
890.748	20046
890.871	19936
890.995	19883
891.118	19746
891.241	19917
891.364	19932
891.488	20027
891.611	19826
891.734	19879
891.857	19860
891.98	19864
892.103	19837
892.226	19951
892.349	19849
892.471	19696
892.594	19765
892.717	19685
892.839	19856
892.962	19750
893.085	19909
893.207	19791
893.33	19731
893.452	19765
893.575	19906
893.697	19811
893.819	19795
893.941	19940
894.064	19970
894.186	19601
894.308	19639
894.43	19852
894.552	19947
894.674	19909
894.796	19818
894.918	19731
895.04	19727
895.161	19818
895.283	19849
895.405	19753
895.526	19811
895.648	19742
895.769	19784
895.891	19959
896.012	19890
896.134	19871
896.255	19765
896.376	19780
896.498	19898
896.619	19841
896.74	19860
896.861	19925
896.982	20069
897.103	20225
897.224	20142
897.345	20058
897.466	19997
897.587	19909
897.708	20062
897.828	19951
897.949	20062
898.07	19864
898.19	19989
898.311	20058
898.431	19963
898.552	19928
898.672	20005
898.792	20130
898.913	20016
899.033	19849
899.153	19776
899.273	19601
899.393	19879
899.513	19746
899.633	19814
899.753	19765
899.873	19791
899.993	19685
900.113	19727
900.232	19784
900.352	19746
900.472	19575
900.591	19525
900.711	19502
900.83	19438
900.95	19685
901.069	19601
901.189	19384
901.308	19198
901.427	19156
901.546	19148
901.665	19129
901.784	19152
901.904	19015
902.023	18935
902.141	18753
902.26	18665
902.379	18620
902.498	18639
902.617	18608
902.735	18681
902.854	18585
902.973	18623
903.091	18251
903.21	18327
903.328	18353
903.446	18144
903.565	18194
903.683	18060
903.801	18030
903.919	18007
904.038	18026
904.156	17859
904.274	17942
904.392	17847
904.51	17969
904.627	17893
904.745	17828
904.863	17965
904.981	17718
905.098	17611
905.216	17547
905.334	17604
905.451	17589
905.569	17474
905.686	17653
905.803	17524
905.921	17349
906.038	17395
906.155	17330
906.272	17341
906.389	17265
906.506	17128
906.623	17079
906.74	17128
906.857	16900
906.974	17010
907.091	17136
907.208	17124
907.324	17174
907.441	17022
907.557	16976
907.674	16843
907.79	16790
907.907	16771
908.023	16839
908.139	16797
908.256	16717
908.372	16687
908.488	16630
908.604	16580
908.72	16481
908.836	16535
908.952	16542
909.068	16519
909.184	16721
909.3	16390
909.415	16535
909.531	16554
909.647	16341
909.762	16272
909.878	16181
909.993	16363
910.108	16200
910.224	16181
910.339	16192
910.454	16078
910.57	16082
910.685	15975
910.8	16272
910.915	16124
911.03	16017
911.145	15823
911.259	15846
911.374	15816
911.489	15690
911.604	15705
911.718	15603
911.833	15545
911.947	15363
912.062	15351
912.176	15504
912.291	15488
912.405	15443
912.519	15709
912.633	15774
912.748	15549
912.862	15412
912.976	15443
913.09	15279
913.204	15279
913.318	15306
913.431	15447
913.545	15545
913.659	15500
913.772	15233
913.886	15211
914	15146
914.113	15226
914.226	15332
914.34	15241
914.453	15020
914.566	15226
914.68	15100
914.793	15028
914.906	14941
915.019	14792
915.132	14693
915.245	14785
915.358	14864
915.47	14804
915.583	14857
915.696	14815
915.809	14941
915.921	14887
916.034	14788
916.146	14644
916.259	14693
916.371	14815
916.483	14750
916.595	14632
916.708	14617
916.82	14579
916.932	14674
917.044	14583
917.156	14598
917.268	14377
917.38	14465
917.491	14366
917.603	14484
917.715	14552
917.826	14579
917.938	14446
918.049	14305
918.161	14450
918.272	14530
918.384	14560
918.495	14389
918.606	14320
918.717	14134
918.828	14084
918.939	14271
919.05	14073
919.161	14126
919.272	13967
919.383	14199
919.494	14221
919.604	14393
919.715	14149
919.826	14103
919.936	14161
920.047	14282
920.157	14183
920.267	14355
920.378	14180
920.488	14123
920.598	14339
920.708	14450
920.818	14370
920.928	14309
921.038	14518
921.148	14431
921.258	14161
921.368	14123
921.477	13902
921.587	13913
921.697	13674
921.806	13875
921.916	13807
922.025	13616
922.134	13552
922.244	13571
922.353	13514
922.462	13434
922.571	13415
922.68	13312
922.789	13175
922.898	13232
923.007	13145
923.116	13152
923.224	13209
923.333	13259
923.442	13091
923.55	13008
923.659	12973
923.767	13160
923.876	12920
923.984	13088
924.092	12856
924.201	12985
924.309	12977
924.417	12909
924.525	12829
924.633	12825
924.741	13586
924.849	12631
924.956	12795
925.064	12639
925.172	12570
925.279	12620
925.387	12688
925.494	12669
925.602	12848
925.709	12715
925.816	12616
925.924	12589
926.031	12654
926.138	12513
926.245	12623
926.352	12521
926.459	12627
926.566	12559
926.673	12460
926.779	12414
926.886	12395
926.993	12281
927.099	12304
927.206	12110
927.312	12095
927.419	12155
927.525	12262
927.631	12262
927.737	12057
927.843	11988
927.95	11851
928.056	12125
928.162	11980
928.267	12117
928.373	12681
928.479	12095
928.585	11889
928.69	12045
928.796	12053
928.901	11969
929.007	11786
929.112	11935
929.218	11870
929.323	11824
929.428	11775
929.533	11916
929.638	11729
929.743	11756
929.848	11813
929.953	11748
930.058	11676
930.163	11497
930.267	11478
930.372	11638
930.477	11455
930.581	11646
930.685	11467
930.79	11315
930.894	11326
930.998	11322
931.103	11421
931.207	11109
931.311	11117
931.415	10892
931.519	10839
931.623	10759
