Data from test_V78500241_2828.txt Node
Date: Fri Mar 25 15:29:33 CST 2022
User: usil
Spectrometer: V785-0024
Trigger mode: 0
Integration Time (sec): 4.000000E-1
Scans to average: 1
Nonlinearity correction enabled: false
Boxcar width: 0
Storing dark spectrum: false
XAxis mode: Wavelengths
Number of Pixels in Spectrum: 1024
>>>>>Begin Spectral Data<<<<<
801.071	27233
801.214	27291
801.356	27074
801.499	26906
801.641	26762
801.783	26762
801.926	26773
802.068	26811
802.211	26743
802.353	26686
802.496	26625
802.638	26579
802.78	26294
802.923	26328
803.065	26317
803.208	26336
803.35	26328
803.492	26484
803.635	26583
803.777	26545
803.919	26663
804.061	26933
804.204	26640
804.346	26556
804.488	26492
804.63	26579
804.773	26427
804.915	26526
805.057	26712
805.199	26393
805.341	26564
805.483	26583
805.626	26765
805.768	26644
805.91	26568
806.052	26750
806.194	26625
806.336	26800
806.478	26667
806.62	26800
806.762	26807
806.904	26819
807.046	27142
807.188	27074
807.33	27005
807.472	27142
807.614	27062
807.756	27096
807.898	26906
808.04	26914
808.182	26838
808.324	27036
808.465	26979
808.607	27283
808.749	27199
808.891	27454
809.033	27420
809.174	27427
809.316	27081
809.458	27249
809.6	27321
809.741	27283
809.883	27439
810.025	27701
810.166	27431
810.308	27732
810.45	27564
810.591	27553
810.733	27233
810.875	27154
811.016	27085
811.158	27154
811.299	27424
811.441	27507
811.582	27504
811.724	27317
811.865	27321
812.007	27173
812.148	27264
812.29	27203
812.431	27405
812.573	27595
812.714	27663
812.855	27663
812.997	27812
813.138	28090
813.279	27865
813.421	27857
813.562	27736
813.703	27682
813.845	27504
813.986	27093
814.127	27051
814.268	26929
814.41	26887
814.551	26906
814.692	26998
814.833	26849
814.974	26899
815.115	26876
815.256	26765
815.397	26838
815.539	26826
815.68	26731
815.821	26674
815.962	26746
816.103	26648
816.244	26522
816.385	26564
816.526	26560
816.666	26332
816.807	26176
816.948	26256
817.089	26336
817.23	26328
817.371	26027
817.512	26248
817.653	26233
817.793	26153
817.934	26202
818.075	26267
818.216	26221
818.356	26122
818.497	26096
818.638	25928
818.778	25898
818.919	26005
819.06	25970
819.2	26130
819.341	26176
819.481	26161
819.622	26396
819.762	26465
819.903	26427
820.043	26450
820.184	26259
820.324	26252
820.465	26275
820.605	26358
820.746	26313
820.886	26096
821.026	26282
821.167	26332
821.307	26313
821.447	26206
821.588	26199
821.728	25982
821.868	25795
822.008	25601
822.149	25712
822.289	25563
822.429	25339
822.569	25346
822.709	25384
822.849	25164
822.99	25221
823.13	25156
823.27	25187
823.41	24878
823.55	24985
823.69	24943
823.83	24981
823.97	24909
824.11	24760
824.25	24730
824.389	24852
824.529	24916
824.669	24829
824.809	24856
824.949	24875
825.089	24859
825.228	24730
825.368	24597
825.508	24578
825.648	24589
825.787	24608
825.927	24783
826.067	24536
826.206	24665
826.346	24684
826.485	24604
826.625	24532
826.765	24829
826.904	24677
827.044	24418
827.183	24486
827.323	24464
827.462	24426
827.601	24388
827.741	24292
827.88	24315
828.02	24232
828.159	24243
828.298	24391
828.437	24391
828.577	24361
828.716	24384
828.855	24243
828.994	23961
829.134	24117
829.273	24087
829.412	23904
829.551	23950
829.69	24152
829.829	23996
829.968	24076
830.107	24155
830.246	24098
830.385	23961
830.524	23923
830.663	23821
830.802	23733
830.941	23767
831.08	23703
831.219	23668
831.357	23824
831.496	23996
831.635	23672
831.774	23455
831.913	23547
832.051	23493
832.19	23478
832.329	23410
832.467	23311
832.606	23284
832.744	23178
832.883	23273
833.022	23387
833.16	23239
833.299	23383
833.437	23417
833.576	23471
833.714	23330
833.852	23493
833.991	23474
834.129	23493
834.267	23410
834.406	23467
834.544	23452
834.682	23459
834.821	23414
834.959	23551
835.097	23296
835.235	23414
835.373	23368
835.511	23421
835.65	23288
835.788	23235
835.926	23159
836.064	23025
836.202	23086
836.34	23094
836.478	23197
836.615	23337
836.753	23204
836.891	23364
837.029	23155
837.167	23155
837.305	23109
837.443	23197
837.58	23113
837.718	23113
837.856	23193
837.993	23102
838.131	22911
838.269	22980
838.406	22850
838.544	22869
838.681	22725
838.819	22793
838.956	22630
839.094	22519
839.231	22679
839.369	22706
839.506	22938
839.643	22850
839.781	22554
839.918	22512
840.055	22523
840.193	22523
840.33	22504
840.467	22497
840.604	22523
840.742	22786
840.879	22485
841.016	22459
841.153	22398
841.29	22493
841.427	22481
841.564	22481
841.701	22428
841.838	22402
841.975	22344
842.112	22443
842.249	22455
842.385	22257
842.522	22436
842.659	22356
842.796	22238
842.933	22204
843.069	22158
843.206	22238
843.343	22276
843.479	22249
843.616	22185
843.752	22010
843.889	21987
844.025	22188
844.162	21998
844.298	22120
844.435	21983
844.571	21972
844.708	22055
844.844	22234
844.98	22166
845.117	22147
845.253	21895
845.389	21934
845.525	21915
845.661	21888
845.798	21675
845.934	21648
846.07	21694
846.206	21789
846.342	21838
846.478	21648
846.614	21614
846.75	21450
846.886	21408
847.022	21492
847.158	21428
847.294	21477
847.429	21545
847.565	21473
847.701	21637
847.837	21218
847.972	21176
848.108	21272
848.244	21207
848.379	21062
848.515	21165
848.65	21024
848.786	21066
848.921	21310
849.057	21169
849.192	21138
849.328	21127
849.463	21104
849.598	20960
849.734	20842
849.869	20899
850.004	20948
850.14	20861
850.275	20914
850.41	20754
850.545	20864
850.68	20826
850.815	20941
850.95	20902
851.085	20998
851.22	20986
851.355	20925
851.49	20823
851.625	20902
851.76	20716
851.895	20762
852.03	20758
852.165	20887
852.299	20823
852.434	20800
852.569	20788
852.703	20735
852.838	20891
852.973	20990
853.107	21028
853.242	20735
853.376	20701
853.511	20655
853.645	20693
853.78	20762
853.914	20693
854.048	20522
854.183	20533
854.317	20754
854.451	20823
854.585	20727
854.72	20670
854.854	20716
854.988	20613
855.122	20708
855.256	20587
855.39	20541
855.524	20720
855.658	20762
855.792	20667
855.926	20693
856.06	20773
856.194	20632
856.327	20613
856.461	20537
856.595	20636
856.729	20606
856.862	20712
856.996	20545
857.13	20682
857.263	20594
857.397	20758
857.53	20678
857.664	20617
857.797	20708
857.931	20815
858.064	20659
858.197	20781
858.331	20640
858.464	20579
858.597	20598
858.731	20663
858.864	20541
858.997	20587
859.13	20693
859.263	20602
859.396	20727
859.529	20598
859.662	20556
859.795	20648
859.928	20682
860.061	20792
860.194	20845
860.327	20735
860.46	20720
860.592	20697
860.725	20712
860.858	20708
860.99	20636
861.123	20606
861.256	20629
861.388	20708
861.521	21370
861.653	20560
861.786	20374
861.918	20560
862.05	20514
862.183	20503
862.315	20648
862.447	20716
862.58	20621
862.712	20461
862.844	20347
862.976	20438
863.108	20415
863.24	20823
863.372	20336
863.504	20339
863.636	20393
863.768	20377
863.9	20358
864.032	20290
864.164	20438
864.296	20347
864.428	20476
864.559	20526
864.691	20492
864.823	20278
864.954	20339
865.086	20377
865.217	20210
865.349	20134
865.48	20180
865.612	20290
865.743	20393
865.875	20298
866.006	20362
866.137	20343
866.269	20298
866.4	20320
866.531	20225
866.662	20107
866.793	20191
866.924	20115
867.055	20244
867.186	20096
867.317	20244
867.448	20180
867.579	20180
867.71	20153
867.841	20218
867.972	20195
868.103	20199
868.233	20134
868.364	20320
868.495	20313
868.625	20507
868.756	20552
868.886	20438
869.017	20560
869.147	20556
869.278	20621
869.408	20568
869.539	20404
869.669	20499
869.799	20374
869.929	20583
870.06	20541
870.19	20750
870.32	20670
870.45	20758
870.58	20910
870.71	20982
870.84	21009
870.97	20682
871.1	20830
871.23	20960
871.36	21047
871.489	20933
871.619	21051
871.749	21043
871.879	21066
872.008	21199
872.138	21138
872.267	21081
872.397	20921
872.526	20830
872.656	21017
872.785	20910
872.915	21066
873.044	21195
873.173	21062
873.303	21081
873.432	21116
873.561	21287
873.69	21131
873.819	21051
873.948	21070
874.077	21096
874.206	20975
874.335	21131
874.464	21180
874.593	21321
874.722	21207
874.851	21256
874.979	21294
875.108	21306
875.237	21329
875.365	21127
875.494	21332
875.623	21313
875.751	21329
875.88	21340
876.008	21397
876.136	21386
876.265	21606
876.393	21827
876.521	21800
876.65	21842
876.778	21736
876.906	21671
877.034	21564
877.162	21766
877.29	21682
877.418	21671
877.546	21656
877.674	21759
877.802	21641
877.93	21835
878.058	21591
878.185	21667
878.313	21698
878.441	21705
878.568	21504
878.696	21667
878.824	21709
878.951	21686
879.079	21846
879.206	21945
879.333	21766
879.461	21770
879.588	21797
879.715	21819
879.842	21956
879.97	21762
880.097	21435
880.224	21519
880.351	21504
880.478	21500
880.605	21485
880.732	21477
880.859	21690
880.986	21583
881.112	21450
881.239	21435
881.366	21325
881.493	21131
881.619	21062
881.746	21131
881.872	21039
881.999	21154
882.125	21013
882.252	21226
882.378	20963
882.505	21249
882.631	20963
882.757	20823
882.883	20853
883.01	20918
883.136	20746
883.262	20636
883.388	20579
883.514	20861
883.64	20925
883.766	20708
883.892	20514
884.018	20651
884.143	20636
884.269	20937
884.395	20537
884.52	20450
884.646	20431
884.772	20400
884.897	20358
885.023	20480
885.148	20594
885.274	20667
885.399	20476
885.524	20568
885.65	20583
885.775	20541
885.9	20514
886.025	20617
886.15	20473
886.275	20370
886.4	20351
886.525	20514
886.65	20381
886.775	20343
886.9	20522
887.025	20613
887.149	20442
887.274	20336
887.399	20252
887.523	20233
887.648	20164
887.773	20187
887.897	20313
888.021	20263
888.146	20229
888.27	20355
888.395	20294
888.519	20164
888.643	20362
888.767	20309
888.891	20244
889.015	20062
889.139	20065
889.263	19959
889.387	20149
889.511	20282
889.635	20134
889.759	20016
889.883	20096
890.006	20073
890.13	20202
890.254	19959
890.377	20005
890.501	19917
890.624	19765
890.748	19887
890.871	19666
890.995	19567
891.118	19506
891.241	19628
891.364	19677
891.488	19685
891.611	19628
891.734	19601
891.857	19613
891.98	19605
892.103	19643
892.226	19643
892.349	19529
892.471	19403
892.594	19632
892.717	19460
892.839	19419
892.962	19487
893.085	19651
893.207	19449
893.33	19381
893.452	19396
893.575	19594
893.697	19521
893.819	19753
893.941	19818
894.064	19757
894.186	19472
894.308	19491
894.43	19628
894.552	19788
894.674	19685
894.796	19430
894.918	19521
895.04	19464
895.161	19586
895.283	19525
895.405	19419
895.526	19514
895.648	19476
895.769	19525
895.891	19510
896.012	19715
896.134	19510
896.255	19548
896.376	19365
896.498	19521
896.619	19582
896.74	19453
896.861	19704
896.982	19947
897.103	19974
897.224	19742
897.345	19757
897.466	19677
897.587	19761
897.708	19868
897.828	19879
897.949	19898
898.07	19696
898.19	19594
898.311	19936
898.431	19753
898.552	19795
898.672	19875
898.792	19811
898.913	19860
899.033	19674
899.153	19605
899.273	19525
899.393	19571
899.513	19594
899.633	19601
899.753	19518
899.873	19483
899.993	19476
900.113	19464
900.232	19597
900.352	19400
900.472	19381
900.591	19266
900.711	19373
900.83	19350
900.95	19384
901.069	19441
901.189	19339
901.308	18863
901.427	18924
901.546	18935
901.665	18970
901.784	18989
901.904	18730
902.023	18677
902.141	18532
902.26	18311
902.379	18563
902.498	18536
902.617	18384
902.735	18506
902.854	18391
902.973	18342
903.091	18174
903.21	17980
903.328	18102
903.446	18030
903.565	17832
903.683	17950
903.801	17798
903.919	17851
904.038	17786
904.156	17771
904.274	17859
904.392	17687
904.51	17577
904.627	17653
904.745	17718
904.863	17722
904.981	17486
905.098	17383
905.216	17360
905.334	17440
905.451	17395
905.569	17360
905.686	17299
905.803	17368
905.921	17216
906.038	17299
906.155	17140
906.272	17052
906.389	17033
906.506	16908
906.623	16847
906.74	16965
906.857	16763
906.974	16790
907.091	16927
907.208	17033
907.324	16915
907.441	16805
907.557	16672
907.674	16599
907.79	16634
907.907	16599
908.023	16717
908.139	16573
908.256	16538
908.372	16459
908.488	16443
908.604	16356
908.72	16363
908.836	16428
908.952	16360
909.068	16409
909.184	16348
909.3	16352
909.415	16295
909.531	16329
909.647	16044
909.762	16025
909.878	16048
909.993	16082
910.108	16002
910.224	16078
910.339	16032
910.454	15922
910.57	15926
910.685	15808
910.8	16025
910.915	16036
911.03	15934
911.145	15637
911.259	15591
911.374	15587
911.489	15599
911.604	15637
911.718	15435
911.833	15469
911.947	15325
912.062	15313
912.176	15526
912.291	15469
912.405	15492
912.519	15682
912.633	15538
912.748	15488
912.862	15447
912.976	15256
913.09	15203
913.204	15146
913.318	15272
913.431	15252
913.545	15256
913.659	15389
913.772	15203
913.886	15211
914	15043
914.113	15112
914.226	15192
914.34	15161
914.453	14948
914.566	15085
914.68	14937
914.793	14857
914.906	14712
915.019	14686
915.132	14583
915.245	14720
915.358	14705
915.47	14667
915.583	14663
915.696	14785
915.809	14716
915.921	14739
916.034	14625
916.146	14514
916.259	14560
916.371	14621
916.483	14682
916.595	14541
916.708	14545
916.82	14404
916.932	14454
917.044	14434
917.156	14423
917.268	14336
917.38	14271
917.491	14339
917.603	14294
917.715	14438
917.826	14370
917.938	14298
918.049	14176
918.161	14259
918.272	14385
918.384	14408
918.495	14244
918.606	14111
918.717	14024
918.828	14176
918.939	14092
919.05	13906
919.161	14107
919.272	13841
919.383	13982
919.494	14164
919.604	14298
919.715	14069
919.826	13967
919.936	14054
920.047	14058
920.157	13974
920.267	14298
920.378	14126
920.488	14016
920.598	14233
920.708	14362
920.818	14214
920.928	14225
921.038	14347
921.148	14267
921.258	13989
921.368	13826
921.477	13868
921.587	13826
921.697	13738
921.806	13753
921.916	13788
922.025	13601
922.134	13407
922.244	13396
922.353	13525
922.462	13331
922.571	13304
922.68	13187
922.789	13152
922.898	13156
923.007	13057
923.116	13190
923.224	13118
923.333	13072
923.442	12954
923.55	12993
923.659	12981
923.767	13027
923.876	12977
923.984	12916
924.092	12817
924.201	12954
924.309	12852
924.417	12935
924.525	12802
924.633	12833
924.741	13563
924.849	12547
924.956	12837
925.064	12532
925.172	12486
925.279	12513
925.387	12506
925.494	12536
925.602	12677
925.709	12597
925.816	12445
925.924	12460
926.031	12707
926.138	12528
926.245	12601
926.352	12445
926.459	12555
926.566	12528
926.673	12407
926.779	12319
926.886	12399
926.993	12232
927.099	12205
927.206	12095
927.312	12125
927.419	12159
927.525	12190
927.631	12175
927.737	12064
927.843	11961
927.95	11931
928.056	11882
928.162	12079
928.267	12019
928.373	12639
928.479	12011
928.585	11790
928.69	11965
928.796	11939
928.901	11805
929.007	11764
929.112	11802
929.218	11863
929.323	11748
929.428	11745
929.533	11843
929.638	11680
929.743	11695
929.848	11642
929.953	11604
930.058	11493
930.163	11379
930.267	11398
930.372	11577
930.477	11410
930.581	11608
930.685	11455
930.79	11296
930.894	11353
930.998	11246
931.103	11444
931.207	11083
931.311	11022
931.415	10812
931.519	10717
931.623	10714
