Data from test_V78500241_1055.txt Node
Date: Fri Mar 25 15:17:12 CST 2022
User: usil
Spectrometer: V785-0024
Trigger mode: 0
Integration Time (sec): 4.000000E-1
Scans to average: 1
Nonlinearity correction enabled: false
Boxcar width: 0
Storing dark spectrum: false
XAxis mode: Wavelengths
Number of Pixels in Spectrum: 1024
>>>>>Begin Spectral Data<<<<<
801.071	28059
801.214	27987
801.356	27728
801.499	27759
801.641	27519
801.783	27568
801.926	27587
802.068	27599
802.211	27389
802.353	27557
802.496	27367
802.638	27408
802.78	27393
802.923	27272
803.065	27188
803.208	27291
803.35	27378
803.492	27317
803.635	27401
803.777	27401
803.919	27469
804.061	27899
804.204	27530
804.346	27412
804.488	27378
804.63	27443
804.773	27382
804.915	27519
805.057	27667
805.199	27564
805.341	27732
805.483	27698
805.626	27720
805.768	27572
805.91	27652
806.052	27637
806.194	27511
806.336	27781
806.478	27720
806.62	27698
806.762	27880
806.904	27956
807.046	28192
807.188	28158
807.33	28032
807.472	28120
807.614	27979
807.756	28002
807.898	27930
808.04	27850
808.182	27914
808.324	27975
808.465	27869
808.607	28219
808.749	28284
808.891	28310
809.033	28504
809.174	28303
809.316	28303
809.458	28246
809.6	28249
809.741	28417
809.883	28500
810.025	28588
810.166	28554
810.308	28535
810.45	28603
810.591	28417
810.733	28352
810.875	28238
811.016	28230
811.158	28204
811.299	28299
811.441	28481
811.582	28451
811.724	28322
811.865	28265
812.007	28303
812.148	28306
812.29	28219
812.431	28519
812.573	28569
812.714	28748
812.855	28725
812.997	29037
813.138	29033
813.279	29056
813.421	29067
813.562	28809
813.703	28618
813.845	28455
813.986	28299
814.127	28097
814.268	28017
814.41	27998
814.551	27873
814.692	28059
814.833	27914
814.974	28093
815.115	28025
815.256	27800
815.397	27770
815.539	27930
815.68	27819
815.821	27899
815.962	27873
816.103	27854
816.244	27622
816.385	27625
816.526	27504
816.666	27397
816.807	27351
816.948	27397
817.089	27485
817.23	27344
817.371	27420
817.512	27443
817.653	27313
817.793	27325
817.934	27264
818.075	27275
818.216	27382
818.356	27161
818.497	27203
818.638	27184
818.778	27039
818.919	27024
819.06	27085
819.2	27249
819.341	27306
819.481	27420
819.622	27481
819.762	27580
819.903	27622
820.043	27553
820.184	27431
820.324	27450
820.465	27595
820.605	27332
820.746	27374
820.886	27310
821.026	27397
821.167	27435
821.307	27431
821.447	27408
821.588	27294
821.728	27154
821.868	27020
822.008	26731
822.149	26830
822.289	26731
822.429	26434
822.569	26488
822.709	26453
822.849	26229
822.99	26351
823.13	26313
823.27	26271
823.41	26164
823.55	25989
823.69	26164
823.83	26237
823.97	26111
824.11	25925
824.25	25959
824.389	26027
824.529	26092
824.669	26020
824.809	26115
824.949	26065
825.089	26103
825.228	25982
825.368	25818
825.508	26016
825.648	25750
825.787	25856
825.927	25970
826.067	25696
826.206	25879
826.346	25875
826.485	25860
826.625	25765
826.765	25906
826.904	25963
827.044	25693
827.183	25578
827.323	25696
827.462	25658
827.601	25521
827.741	25594
827.88	25643
828.02	25548
828.159	25479
828.298	25628
828.437	25662
828.577	25479
828.716	25643
828.855	25483
828.994	25244
829.134	25278
829.273	25236
829.412	25312
829.551	25084
829.69	25301
829.829	25270
829.968	25289
830.107	25441
830.246	25236
830.385	25148
830.524	25190
830.663	25050
830.802	24935
830.941	25004
831.08	24875
831.219	24954
831.357	25015
831.496	25057
831.635	24875
831.774	24833
831.913	24700
832.051	24734
832.19	24700
832.329	24631
832.467	24544
832.606	24494
832.744	24532
832.883	24665
833.022	24429
833.16	24494
833.299	24517
833.437	24661
833.576	24700
833.714	24646
833.852	24700
833.991	24673
834.129	24753
834.267	24802
834.406	24639
834.544	24616
834.682	24791
834.821	24665
834.959	24795
835.097	24620
835.235	24639
835.373	24623
835.511	24578
835.65	24540
835.788	24502
835.926	24361
836.064	24403
836.202	24224
836.34	24437
836.478	24559
836.615	24479
836.753	24566
836.891	24460
837.029	24448
837.167	24365
837.305	24407
837.443	24418
837.58	24296
837.718	24426
837.856	24361
837.993	24342
838.131	24273
838.269	24174
838.406	24285
838.544	24091
838.681	23965
838.819	23935
838.956	23726
839.094	23687
839.231	23912
839.369	23973
839.506	24125
839.643	24057
839.781	23813
839.918	23745
840.055	23851
840.193	23642
840.33	23733
840.467	23775
840.604	23798
840.742	23958
840.879	23592
841.016	23672
841.153	23611
841.29	23859
841.427	23649
841.564	23642
841.701	23691
841.838	23577
841.975	23566
842.112	23585
842.249	23600
842.385	23455
842.522	23649
842.659	23558
842.796	23520
842.933	23539
843.069	23433
843.206	23570
843.343	23398
843.479	23425
843.616	23463
843.752	23185
843.889	23250
844.025	23414
844.162	23258
844.298	23337
844.435	23239
844.571	23193
844.708	23200
844.844	23429
844.98	23467
845.117	23337
845.253	23315
845.389	23090
845.525	23102
845.661	22972
845.798	22968
845.934	23075
846.07	22877
846.206	22995
846.342	23102
846.478	22908
846.614	22824
846.75	22622
846.886	22702
847.022	22790
847.158	22622
847.294	22653
847.429	22763
847.565	22683
847.701	23010
847.837	22459
847.972	22409
848.108	22546
848.244	22451
848.379	22402
848.515	22276
848.65	22246
848.786	22219
848.921	22284
849.057	22386
849.192	22455
849.328	22287
849.463	22314
849.598	22230
849.734	22322
849.869	22173
850.004	22090
850.14	22147
850.275	22097
850.41	22006
850.545	21987
850.68	22017
850.815	22166
850.95	22010
851.085	22207
851.22	22154
851.355	22131
851.49	22029
851.625	22006
851.76	22124
851.895	21941
852.03	21930
852.165	22029
852.299	22192
852.434	22219
852.569	22120
852.703	22006
852.838	22013
852.973	22173
853.107	22139
853.242	22070
853.376	21979
853.511	21759
853.645	21755
853.78	21937
853.914	21816
854.048	21770
854.183	21846
854.317	21854
854.451	22040
854.585	21861
854.72	21926
854.854	21987
854.988	21739
855.122	21934
855.256	21781
855.39	21797
855.524	21831
855.658	21937
855.792	21907
855.926	21953
856.06	22010
856.194	21899
856.327	21880
856.461	21781
856.595	21899
856.729	21869
856.862	21895
856.996	21869
857.13	21983
857.263	21964
857.397	22013
857.53	22059
857.664	21972
857.797	21892
857.931	21911
858.064	21854
858.197	22013
858.331	21873
858.464	21949
858.597	21785
858.731	21812
858.864	21911
858.997	21842
859.13	21854
859.263	21873
859.396	22082
859.529	21869
859.662	21743
859.795	21819
859.928	21922
860.061	21991
860.194	22017
860.327	21907
860.46	21884
860.592	21926
860.725	21979
860.858	22013
860.99	21865
861.123	21873
861.256	21831
861.388	21797
861.521	22622
861.653	21800
861.786	21686
861.918	21682
862.05	21755
862.183	21743
862.315	21838
862.447	21930
862.58	21827
862.712	21572
862.844	21519
862.976	21625
863.108	21698
863.24	22013
863.372	21641
863.504	21500
863.636	21492
863.768	21564
863.9	21530
864.032	21530
864.164	21504
864.296	21732
864.428	21705
864.559	21747
864.691	21667
864.823	21595
864.954	21511
865.086	21599
865.217	21583
865.349	21439
865.48	21458
865.612	21481
865.743	21603
865.875	21530
866.006	21401
866.137	21526
866.269	21466
866.4	21340
866.531	21378
866.662	21401
866.793	21363
866.924	21374
867.055	21416
867.186	21374
867.317	21420
867.448	21249
867.579	21367
867.71	21351
867.841	21275
867.972	21485
868.103	21382
868.233	21515
868.364	21222
868.495	21462
868.625	21561
868.756	21770
868.886	21625
869.017	21656
869.147	21759
869.278	21682
869.408	21709
869.539	21564
869.669	21667
869.799	21739
869.929	21736
870.06	21766
870.19	21937
870.32	21987
870.45	21998
870.58	22017
870.71	22078
870.84	22109
870.97	22029
871.1	22070
871.23	22234
871.36	22196
871.489	22120
871.619	22177
871.749	22150
871.879	22253
872.008	22306
872.138	22261
872.267	22207
872.397	22128
872.526	22006
872.656	21987
872.785	22040
872.915	22398
873.044	22318
873.173	22211
873.303	22234
873.432	22284
873.561	22341
873.69	22299
873.819	22341
873.948	22356
874.077	22230
874.206	22230
874.335	22177
874.464	22280
874.593	22538
874.722	22428
874.851	22603
874.979	22565
875.108	22443
875.237	22398
875.365	22333
875.494	22489
875.623	22516
875.751	22405
875.88	22428
876.008	22527
876.136	22596
876.265	22790
876.393	23033
876.521	22892
876.65	22911
876.778	22809
876.906	22774
877.034	22759
877.162	22809
877.29	22752
877.418	22748
877.546	22927
877.674	22729
877.802	22782
877.93	22919
878.058	22694
878.185	22736
878.313	22645
878.441	22820
878.568	22630
878.696	22801
878.824	22763
878.951	22797
879.079	22980
879.206	22980
879.333	23048
879.461	22866
879.588	22915
879.715	22828
879.842	23124
879.97	22908
880.097	22672
880.224	22733
880.351	22653
880.478	22660
880.605	22634
880.732	22637
880.859	22725
880.986	22603
881.112	22675
881.239	22557
881.366	22356
881.493	22306
881.619	22166
881.746	22310
881.872	22131
881.999	22177
882.125	22188
882.252	22215
882.378	22116
882.505	22322
882.631	22093
882.757	21888
882.883	21873
883.01	21949
883.136	21888
883.262	21899
883.388	21736
883.514	22032
883.64	21934
883.766	21835
883.892	21762
884.018	21701
884.143	21850
884.269	21857
884.395	21606
884.52	21523
884.646	21568
884.772	21595
884.897	21374
885.023	21534
885.148	21564
885.274	21713
885.399	21633
885.524	21485
885.65	21412
885.775	21492
885.9	21507
886.025	21694
886.15	21553
886.275	21492
886.4	21363
886.525	21504
886.65	21382
886.775	21466
886.9	21641
887.025	21774
887.149	21553
887.274	21424
887.399	21211
887.523	21298
887.648	21249
887.773	21367
887.897	21416
888.021	21466
888.146	21260
888.27	21325
888.395	21416
888.519	21176
888.643	21386
888.767	21294
888.891	21252
889.015	21028
889.139	21093
889.263	21005
889.387	21298
889.511	21279
889.635	21123
889.759	21001
889.883	21112
890.006	20956
890.13	21188
890.254	21051
890.377	20971
890.501	20815
890.624	20800
890.748	21009
890.871	20701
890.995	20617
891.118	20507
891.241	20644
891.364	20579
891.488	20796
891.611	20587
891.734	20629
891.857	20735
891.98	20731
892.103	20674
892.226	20758
892.349	20655
892.471	20396
892.594	20549
892.717	20651
892.839	20590
892.962	20617
893.085	20640
893.207	20461
893.33	20427
893.452	20446
893.575	20583
893.697	20602
893.819	20655
893.941	20773
894.064	20674
894.186	20408
894.308	20454
894.43	20636
894.552	20697
894.674	20659
894.796	20336
894.918	20598
895.04	20469
895.161	20530
895.283	20583
895.405	20480
895.526	20564
895.648	20476
895.769	20484
895.891	20484
896.012	20632
896.134	20545
896.255	20533
896.376	20541
896.498	20590
896.619	20686
896.74	20613
896.861	20526
896.982	20887
897.103	21032
897.224	20773
897.345	20823
897.466	20735
897.587	20800
897.708	20918
897.828	20640
897.949	20720
898.07	20564
898.19	20629
898.311	20777
898.431	20606
898.552	20712
898.672	20902
898.792	20857
898.913	20830
899.033	20621
899.153	20488
899.273	20366
899.393	20499
899.513	20545
899.633	20461
899.753	20480
899.873	20423
899.993	20492
900.113	20317
900.232	20427
900.352	20298
900.472	20298
900.591	20172
900.711	20336
900.83	20259
900.95	20328
901.069	20252
901.189	20107
901.308	19989
901.427	19776
901.546	19784
901.665	19947
901.784	19864
901.904	19708
902.023	19559
902.141	19388
902.26	19339
902.379	19430
902.498	19331
902.617	19293
902.735	19312
902.854	19369
902.973	19209
903.091	19122
903.21	18989
903.328	19027
903.446	18951
903.565	18768
903.683	18875
903.801	18635
903.919	18787
904.038	18669
904.156	18585
904.274	18719
904.392	18582
904.51	18627
904.627	18544
904.745	18589
904.863	18665
904.981	18441
905.098	18220
905.216	18243
905.334	18308
905.451	18338
905.569	18232
905.686	18197
905.803	18220
905.921	17965
906.038	18087
906.155	18076
906.272	17794
906.389	17950
906.506	17722
906.623	17733
906.74	17657
906.857	17665
906.974	17748
907.091	17885
907.208	17817
907.324	17863
907.441	17714
907.557	17486
907.674	17547
907.79	17452
907.907	17497
908.023	17509
908.139	17543
908.256	17383
908.372	17398
908.488	17417
908.604	17178
908.72	17143
908.836	17250
908.952	17025
909.068	17239
909.184	17315
909.3	17128
909.415	17250
909.531	17204
909.647	17056
909.762	16782
909.878	16896
909.993	16873
910.108	16889
910.224	16927
910.339	16965
910.454	16748
910.57	16729
910.685	16603
910.8	16991
910.915	16831
911.03	16691
911.145	16565
911.259	16485
911.374	16474
911.489	16470
911.604	16352
911.718	16284
911.833	16265
911.947	16124
912.062	15998
912.176	16093
912.291	16204
912.405	16211
912.519	16390
912.633	16470
912.748	16249
912.862	16017
912.976	15968
913.09	15937
913.204	15972
913.318	16090
913.431	16181
913.545	16135
913.659	16147
913.772	15972
913.886	15945
914	15831
914.113	15869
914.226	15964
914.34	15842
914.453	15751
914.566	15789
914.68	15717
914.793	15660
914.906	15549
915.019	15469
915.132	15348
915.245	15439
915.358	15591
915.47	15408
915.583	15481
915.696	15332
915.809	15469
915.921	15606
916.034	15389
916.146	15222
916.259	15416
916.371	15321
916.483	15355
916.595	15237
916.708	15245
916.82	15195
916.932	15165
917.044	15161
917.156	15066
917.268	15017
917.38	15097
917.491	15036
917.603	15074
917.715	15173
917.826	15047
917.938	15032
918.049	14941
918.161	15005
918.272	15188
918.384	15131
918.495	14967
918.606	14777
918.717	14750
918.828	14906
918.939	14937
919.05	14659
919.161	14765
919.272	14613
919.383	14754
919.494	14876
919.604	15123
919.715	14845
919.826	14735
919.936	14750
920.047	14826
920.157	14750
920.267	14956
920.378	14689
920.488	14735
920.598	14971
920.708	15032
920.818	14960
920.928	14914
921.038	14982
921.148	14990
921.258	14686
921.368	14651
921.477	14484
921.587	14473
921.697	14343
921.806	14530
921.916	14328
922.025	14176
922.134	14115
922.244	14126
922.353	14126
922.462	14005
922.571	13906
922.68	13807
922.789	13757
922.898	13860
923.007	13845
923.116	13734
923.224	13704
923.333	13704
923.442	13632
923.55	13628
923.659	13548
923.767	13753
923.876	13590
923.984	13658
924.092	13548
924.201	13468
924.309	13533
924.417	13521
924.525	13441
924.633	13609
924.741	14415
924.849	13190
924.956	13304
925.064	13221
925.172	13156
925.279	13126
925.387	13244
925.494	13133
925.602	13331
925.709	13209
925.816	13088
925.924	13107
926.031	13240
926.138	13126
926.245	13084
926.352	13042
926.459	13190
926.566	13171
926.673	13057
926.779	12958
926.886	12924
926.993	12711
927.099	12783
927.206	12738
927.312	12597
927.419	12798
927.525	12681
927.631	12730
927.737	12639
927.843	12620
927.95	12471
928.056	12464
928.162	12593
928.267	12593
928.373	13046
928.479	12639
928.585	12448
928.69	12566
928.796	12521
928.901	12429
929.007	12323
929.112	12407
929.218	12433
929.323	12350
929.428	12308
929.533	12388
929.638	12125
929.743	12262
929.848	12285
929.953	12239
930.058	12201
930.163	11961
930.267	11916
930.372	12076
930.477	11840
930.581	12201
930.685	11999
930.79	11870
930.894	11824
930.998	11767
931.103	12091
931.207	11672
931.311	11535
931.415	11425
931.519	11239
931.623	11185
