Data from test_V78500241_1920.txt Node
Date: Fri Mar 25 15:23:13 CST 2022
User: usil
Spectrometer: V785-0024
Trigger mode: 0
Integration Time (sec): 4.000000E-1
Scans to average: 1
Nonlinearity correction enabled: false
Boxcar width: 0
Storing dark spectrum: false
XAxis mode: Wavelengths
Number of Pixels in Spectrum: 1024
>>>>>Begin Spectral Data<<<<<
801.071	27739
801.214	27542
801.356	27283
801.499	27306
801.641	27135
801.783	27146
801.926	27405
802.068	27180
802.211	27116
802.353	27043
802.496	26914
802.638	26914
802.78	26773
802.923	26838
803.065	26826
803.208	26819
803.35	26883
803.492	27009
803.635	27074
803.777	27062
803.919	27169
804.061	27431
804.204	27112
804.346	27062
804.488	26963
804.63	27154
804.773	27062
804.915	27070
805.057	27241
805.199	27077
805.341	27047
805.483	27313
805.626	27119
805.768	27157
805.91	27119
806.052	27230
806.194	26918
806.336	27443
806.478	27173
806.62	27199
806.762	27268
806.904	27416
807.046	27660
807.188	27469
807.33	27663
807.472	27686
807.614	27507
807.756	27526
807.898	27397
808.04	27378
808.182	27363
808.324	27382
808.465	27511
808.607	27625
808.749	27876
808.891	27918
809.033	28006
809.174	27941
809.316	27660
809.458	27762
809.6	27892
809.741	27930
809.883	27991
810.025	28059
810.166	28192
810.308	28074
810.45	28002
810.591	28059
810.733	27781
810.875	27838
811.016	27572
811.158	27622
811.299	27781
811.441	28032
811.582	27903
811.724	27778
811.865	27701
812.007	27667
812.148	27675
812.29	27808
812.431	28010
812.573	28166
812.714	28238
812.855	28284
812.997	28291
813.138	28622
813.279	28497
813.421	28390
813.562	28371
813.703	28158
813.845	28010
813.986	27751
814.127	27618
814.268	27572
814.41	27496
814.551	27477
814.692	27561
814.833	27389
814.974	27496
815.115	27549
815.256	27454
815.397	27344
815.539	27458
815.68	27310
815.821	27176
815.962	27340
816.103	27283
816.244	27199
816.385	27043
816.526	27100
816.666	26979
816.807	26796
816.948	26644
817.089	26849
817.23	26785
817.371	26727
817.512	26678
817.653	26758
817.793	26663
817.934	26716
818.075	26682
818.216	26701
818.356	26708
818.497	26644
818.638	26419
818.778	26545
818.919	26469
819.06	26602
819.2	26762
819.341	26727
819.481	26777
819.622	26933
819.762	27188
819.903	27077
820.043	26906
820.184	26861
820.324	26830
820.465	26902
820.605	26948
820.746	26792
820.886	26735
821.026	26868
821.167	26975
821.307	26883
821.447	26815
821.588	26720
821.728	26484
821.868	26431
822.008	26351
822.149	26301
822.289	26282
822.429	25951
822.569	25963
822.709	26020
822.849	25788
822.99	25750
823.13	25662
823.27	25666
823.41	25635
823.55	25514
823.69	25651
823.83	25479
823.97	25609
824.11	25289
824.25	25255
824.389	25472
824.529	25438
824.669	25411
824.809	25487
824.949	25510
825.089	25411
825.228	25407
825.368	25308
825.508	25213
825.648	25266
825.787	25430
825.927	25373
826.067	25228
826.206	25240
826.346	25198
826.485	25213
826.625	25266
826.765	25434
826.904	25354
827.044	24970
827.183	25065
827.323	24928
827.462	24989
827.601	24913
827.741	25061
827.88	24981
828.02	24871
828.159	24825
828.298	24989
828.437	25183
828.577	24935
828.716	25004
828.855	24909
828.994	24700
829.134	24806
829.273	24719
829.412	24631
829.551	24677
829.69	24783
829.829	24749
829.968	24810
830.107	24787
830.246	24722
830.385	24669
830.524	24570
830.663	24441
830.802	24346
830.941	24426
831.08	24323
831.219	24395
831.357	24330
831.496	24483
831.635	24243
831.774	24155
831.913	24273
832.051	24076
832.19	24079
832.329	24228
832.467	24152
832.606	23942
832.744	23885
832.883	23992
833.022	24011
833.16	24022
833.299	24030
833.437	24079
833.576	24174
833.714	24038
833.852	24144
833.991	24098
834.129	24144
834.267	24186
834.406	24045
834.544	24171
834.682	24015
834.821	24022
834.959	24334
835.097	24011
835.235	24182
835.373	24030
835.511	24114
835.65	23882
835.788	23889
835.926	23817
836.064	23710
836.202	23722
836.34	23882
836.478	23927
836.615	23786
836.753	23832
836.891	23980
837.029	23904
837.167	23878
837.305	23748
837.443	23832
837.58	23608
837.718	23889
837.856	23741
837.993	23710
838.131	23779
838.269	23630
838.406	23592
838.544	23566
838.681	23421
838.819	23379
838.956	23193
839.094	23151
839.231	23242
839.369	23448
839.506	23570
839.643	23349
839.781	23292
839.918	23185
840.055	23265
840.193	23132
840.33	23094
840.467	23113
840.604	23178
840.742	23326
840.879	22991
841.016	23071
841.153	22984
841.29	23296
841.427	23136
841.564	23098
841.701	23033
841.838	23014
841.975	23025
842.112	23064
842.249	22927
842.385	22869
842.522	23124
842.659	22812
842.796	22854
842.933	22923
843.069	22809
843.206	22816
843.343	23003
843.479	22824
843.616	22831
843.752	22740
843.889	22649
844.025	22900
844.162	22668
844.298	22778
844.435	22790
844.571	22679
844.708	22752
844.844	22843
844.98	22774
845.117	22702
845.253	22580
845.389	22778
845.525	22584
845.661	22428
845.798	22436
845.934	22432
846.07	22402
846.206	22569
846.342	22538
846.478	22500
846.614	22249
846.75	22124
846.886	22192
847.022	22211
847.158	22143
847.294	22185
847.429	22291
847.565	22101
847.701	22413
847.837	21778
847.972	21831
848.108	21960
848.244	22021
848.379	21808
848.515	21641
848.65	21686
848.786	21694
848.921	21793
849.057	21797
849.192	21941
849.328	21686
849.463	21770
849.598	21732
849.734	21580
849.869	21629
850.004	21591
850.14	21553
850.275	21485
850.41	21386
850.545	21408
850.68	21523
850.815	21568
850.95	21500
851.085	21720
851.22	21580
851.355	21488
851.49	21507
851.625	21473
851.76	21519
851.895	21367
852.03	21458
852.165	21462
852.299	21538
852.434	21583
852.569	21424
852.703	21511
852.838	21488
852.973	21698
853.107	21606
853.242	21477
853.376	21363
853.511	21245
853.645	21226
853.78	21492
853.914	21317
854.048	21363
854.183	21310
854.317	21355
854.451	21534
854.585	21272
854.72	21252
854.854	21435
854.988	21302
855.122	21378
855.256	21165
855.39	21386
855.524	21405
855.658	21420
855.792	21351
855.926	21363
856.06	21389
856.194	21401
856.327	21291
856.461	21249
856.595	21154
856.729	21260
856.862	21405
856.996	21378
857.13	21431
857.263	21389
857.397	21393
857.53	21287
857.664	21348
857.797	21408
857.931	21435
858.064	21355
858.197	21367
858.331	21310
858.464	21325
858.597	21207
858.731	21260
858.864	21283
858.997	21214
859.13	21401
859.263	21348
859.396	21264
859.529	21192
859.662	21275
859.795	21211
859.928	21340
860.061	21469
860.194	21485
860.327	21374
860.46	21233
860.592	21306
860.725	21424
860.858	21378
860.99	21359
861.123	21283
861.256	21192
861.388	21306
861.521	21983
861.653	21195
861.786	21100
861.918	21135
862.05	21203
862.183	21264
862.315	21344
862.447	21214
862.58	21161
862.712	21131
862.844	21013
862.976	21154
863.108	21032
863.24	21599
863.372	21017
863.504	21062
863.636	21047
863.768	21142
863.9	20982
864.032	20891
864.164	20941
864.296	21173
864.428	21150
864.559	21062
864.691	21184
864.823	21017
864.954	21062
865.086	21043
865.217	20838
865.349	20887
865.48	20914
865.612	20845
865.743	21009
865.875	20979
866.006	20925
866.137	20982
866.269	20883
866.4	21055
866.531	20746
866.662	20811
866.793	20781
866.924	20864
867.055	20891
867.186	20933
867.317	20819
867.448	20743
867.579	20739
867.71	20853
867.841	20693
867.972	20891
868.103	20758
868.233	20906
868.364	20895
868.495	20952
868.625	21066
868.756	21211
868.886	21066
869.017	21100
869.147	21089
869.278	21176
869.408	21230
869.539	21165
869.669	21306
869.799	21154
869.929	21142
870.06	21138
870.19	21389
870.32	21348
870.45	21397
870.58	21477
870.71	21603
870.84	21629
870.97	21481
871.1	21500
871.23	21606
871.36	21800
871.489	21583
871.619	21701
871.749	21671
871.879	21823
872.008	21732
872.138	21698
872.267	21766
872.397	21663
872.526	21606
872.656	21553
872.785	21538
872.915	21667
873.044	21747
873.173	21610
873.303	21690
873.432	21743
873.561	21842
873.69	21766
873.819	21690
873.948	21698
874.077	21770
874.206	21705
874.335	21728
874.464	21812
874.593	21903
874.722	21968
874.851	22013
874.979	21956
875.108	22086
875.237	21930
875.365	21884
875.494	22021
875.623	22040
875.751	21846
875.88	21865
876.008	22036
876.136	22002
876.265	22276
876.393	22466
876.521	22367
876.65	22474
876.778	22386
876.906	22238
877.034	22333
877.162	22447
877.29	22086
877.418	22322
877.546	22287
877.674	22344
877.802	22295
877.93	22204
878.058	22196
878.185	22185
878.313	22154
878.441	22299
878.568	22074
878.696	22109
878.824	22333
878.951	22310
879.079	22318
879.206	22531
879.333	22580
879.461	22386
879.588	22447
879.715	22542
879.842	22485
879.97	22360
880.097	22120
880.224	22067
880.351	22055
880.478	22181
880.605	22173
880.732	22154
880.859	22424
880.986	22207
881.112	22017
881.239	22029
881.366	21717
881.493	21762
881.619	21800
881.746	21759
881.872	21625
881.999	21599
882.125	21637
882.252	21686
882.378	21679
882.505	21804
882.631	21580
882.757	21447
882.883	21526
883.01	21462
883.136	21249
883.262	21355
883.388	21233
883.514	21386
883.64	21420
883.766	21374
883.892	21081
884.018	21100
884.143	21382
884.269	21348
884.395	21043
884.52	21047
884.646	21100
884.772	20990
884.897	20815
885.023	21199
885.148	21100
885.274	21199
885.399	21089
885.524	21066
885.65	21017
885.775	21043
885.9	20979
886.025	21165
886.15	21104
886.275	21085
886.4	20960
886.525	21081
886.65	20899
886.775	20921
886.9	21127
887.025	21161
887.149	21043
887.274	20750
887.399	20883
887.523	20857
887.648	20777
887.773	20705
887.897	20838
888.021	20998
888.146	20667
888.27	20902
888.395	20883
888.519	20750
888.643	20823
888.767	20746
888.891	20705
889.015	20659
889.139	20670
889.263	20480
889.387	20727
889.511	20796
889.635	20785
889.759	20575
889.883	20583
890.006	20583
890.13	20674
890.254	20465
890.377	20415
890.501	20404
890.624	20339
890.748	20415
890.871	20301
890.995	20088
891.118	20210
891.241	20065
891.364	20195
891.488	20267
891.611	20195
891.734	20161
891.857	20252
891.98	20115
892.103	20199
892.226	20191
892.349	20145
892.471	19967
892.594	20016
892.717	20130
892.839	20069
892.962	20084
893.085	20191
893.207	20046
893.33	19917
893.452	20050
893.575	20092
893.697	19978
893.819	20191
893.941	20298
894.064	20157
894.186	20069
894.308	19970
894.43	20084
894.552	20244
894.674	20130
894.796	20039
894.918	20172
895.04	20100
895.161	20054
895.283	20183
895.405	20024
895.526	19951
895.648	19978
895.769	20073
895.891	20062
896.012	20161
896.134	20206
896.255	20126
896.376	20027
896.498	20130
896.619	20122
896.74	19955
896.861	20115
896.982	20317
897.103	20465
897.224	20233
897.345	20176
897.466	20157
897.587	20298
897.708	20434
897.828	20351
897.949	20237
898.07	20176
898.19	20142
898.311	20370
898.431	20202
898.552	20294
898.672	20446
898.792	20286
898.913	20336
899.033	20256
899.153	20092
899.273	19909
899.393	20081
899.513	20043
899.633	20016
899.753	20119
899.873	19852
899.993	20130
900.113	19917
900.232	20020
900.352	19837
900.472	19890
900.591	19731
900.711	19814
900.83	19689
900.95	19925
901.069	19936
901.189	19776
901.308	19582
901.427	19400
901.546	19373
901.665	19472
901.784	19403
901.904	19179
902.023	19160
902.141	18943
902.26	18935
902.379	19042
902.498	18856
902.617	18837
902.735	18996
902.854	18696
902.973	18779
903.091	18635
903.21	18627
903.328	18532
903.446	18612
903.565	18403
903.683	18372
903.801	18273
903.919	18334
904.038	18232
904.156	18125
904.274	18300
904.392	18152
904.51	18140
904.627	18167
904.745	18270
904.863	18262
904.981	17999
905.098	17786
905.216	17748
905.334	17817
905.451	17840
905.569	17745
905.686	17783
905.803	17840
905.921	17657
906.038	17676
906.155	17551
906.272	17482
906.389	17478
906.506	17318
906.623	17414
906.74	17436
906.857	17254
906.974	17395
907.091	17474
907.208	17414
907.324	17258
907.441	17284
907.557	17124
907.674	16987
907.79	17006
907.907	17052
908.023	17045
908.139	17109
908.256	16915
908.372	16885
908.488	16858
908.604	16839
908.72	16752
908.836	16858
908.952	16748
909.068	16900
909.184	16976
909.3	16778
909.415	16869
909.531	16786
909.647	16599
909.762	16538
909.878	16382
909.993	16565
910.108	16508
910.224	16440
910.339	16402
910.454	16424
910.57	16242
910.685	16238
910.8	16569
910.915	16409
911.03	16249
911.145	16185
911.259	16109
911.374	16124
911.489	16074
911.604	16006
911.718	15747
911.833	15823
911.947	15751
912.062	15644
912.176	15770
912.291	15762
912.405	15827
912.519	16074
912.633	16036
912.748	15876
912.862	15838
912.976	15637
913.09	15641
913.204	15625
913.318	15595
913.431	15728
913.545	15766
913.659	15755
913.772	15724
913.886	15538
914	15420
914.113	15599
914.226	15603
914.34	15545
914.453	15325
914.566	15492
914.68	15389
914.793	15188
914.906	15169
915.019	15036
915.132	15058
915.245	15085
915.358	15203
915.47	15119
915.583	14994
915.696	15161
915.809	15226
915.921	15131
916.034	15005
916.146	15043
916.259	14929
916.371	15055
916.483	14975
916.595	14899
916.708	14963
916.82	14876
916.932	14853
917.044	14883
917.156	14906
917.268	14853
917.38	14708
917.491	14682
917.603	14693
917.715	14823
917.826	14838
917.938	14697
918.049	14571
918.161	14640
918.272	14815
918.384	14792
918.495	14735
918.606	14431
918.717	14358
918.828	14480
918.939	14465
919.05	14450
919.161	14469
919.272	14294
919.383	14309
919.494	14514
919.604	14712
919.715	14415
919.826	14427
919.936	14457
920.047	14431
920.157	14461
920.267	14701
920.378	14431
920.488	14408
920.598	14678
920.708	14705
920.818	14583
920.928	14587
921.038	14670
921.148	14632
921.258	14358
921.368	14218
921.477	14145
921.587	14138
921.697	14027
921.806	14172
921.916	13974
922.025	13871
922.134	13826
922.244	13830
922.353	13871
922.462	13715
922.571	13597
922.68	13525
922.789	13449
922.898	13426
923.007	13460
923.116	13354
923.224	13472
923.333	13529
923.442	13289
923.55	13289
923.659	13320
923.767	13301
923.876	13244
923.984	13343
924.092	13080
924.201	13259
924.309	13282
924.417	13266
924.525	13095
924.633	13103
924.741	14008
924.849	12985
924.956	13012
925.064	12939
925.172	12859
925.279	12848
925.387	12932
925.494	12867
925.602	13019
925.709	12909
925.816	12738
925.924	12848
926.031	12928
926.138	12749
926.245	12821
926.352	12726
926.459	12901
926.566	12901
926.673	12711
926.779	12623
926.886	12665
926.993	12464
927.099	12490
927.206	12365
927.312	12391
927.419	12483
927.525	12418
927.631	12445
927.737	12327
927.843	12300
927.95	12148
928.056	12197
928.162	12262
928.267	12330
928.373	12825
928.479	12323
928.585	12163
928.69	12201
928.796	12308
928.901	12110
929.007	12053
929.112	12159
929.218	12068
929.323	11999
929.428	11984
929.533	12133
929.638	11920
929.743	12030
929.848	11977
929.953	11969
930.058	11863
930.163	11649
930.267	11630
930.372	11843
930.477	11592
930.581	11893
930.685	11726
930.79	11474
930.894	11722
930.998	11528
931.103	11760
931.207	11337
931.311	11273
931.415	11155
931.519	10984
931.623	10923
