Data from test_V78500241_2947.txt Node
Date: Fri Mar 25 15:30:22 CST 2022
User: usil
Spectrometer: V785-0024
Trigger mode: 0
Integration Time (sec): 4.000000E-1
Scans to average: 1
Nonlinearity correction enabled: false
Boxcar width: 0
Storing dark spectrum: false
XAxis mode: Wavelengths
Number of Pixels in Spectrum: 1024
>>>>>Begin Spectral Data<<<<<
801.071	27157
801.214	26998
801.356	26819
801.499	26663
801.641	26762
801.783	26663
801.926	26587
802.068	26522
802.211	26507
802.353	26541
802.496	26362
802.638	26271
802.78	26172
802.923	26058
803.065	26122
803.208	26119
803.35	26237
803.492	26309
803.635	26332
803.777	26309
803.919	26332
804.061	26651
804.204	26324
804.346	26240
804.488	26275
804.63	26347
804.773	26298
804.915	26366
805.057	26465
805.199	26301
805.341	26419
805.483	26446
805.626	26571
805.768	26328
805.91	26332
806.052	26568
806.194	26377
806.336	26549
806.478	26408
806.62	26366
806.762	26473
806.904	26716
807.046	26971
807.188	26960
807.33	27024
807.472	26861
807.614	26887
807.756	26880
807.898	26651
808.04	26453
808.182	26811
808.324	26785
808.465	26598
808.607	26838
808.749	27047
808.891	27169
809.033	27100
809.174	27154
809.316	27058
809.458	26998
809.6	27116
809.741	27032
809.883	27123
810.025	27192
810.166	27332
810.308	27283
810.45	27367
810.591	27165
810.733	27112
810.875	27047
811.016	26929
811.158	26952
811.299	27047
811.441	27454
811.582	27287
811.724	27047
811.865	27112
812.007	27112
812.148	27051
812.29	27123
812.431	27211
812.573	27370
812.714	27336
812.855	27591
812.997	27622
813.138	27732
813.279	27671
813.421	27568
813.562	27530
813.703	27188
813.845	27344
813.986	26899
814.127	26724
814.268	26880
814.41	26811
814.551	26674
814.692	26708
814.833	26651
814.974	26746
815.115	26674
815.256	26575
815.397	26670
815.539	26492
815.68	26499
815.821	26351
815.962	26362
816.103	26427
816.244	26324
816.385	26240
816.526	26157
816.666	26088
816.807	25966
816.948	26058
817.089	26065
817.23	25887
817.371	26005
817.512	25909
817.653	25879
817.793	25894
817.934	25993
818.075	26005
818.216	25928
818.356	25856
818.497	25772
818.638	25681
818.778	25731
818.919	25780
819.06	25791
819.2	25928
819.341	25955
819.481	26005
819.622	26073
819.762	26130
819.903	26161
820.043	26126
820.184	26043
820.324	26035
820.465	26180
820.605	26054
820.746	26157
820.886	25868
821.026	26084
821.167	25959
821.307	26103
821.447	25951
821.588	25746
821.728	25772
821.868	25502
822.008	25419
822.149	25403
822.289	25457
822.429	25103
822.569	25099
822.709	25038
822.849	24852
822.99	24905
823.13	24871
823.27	24798
823.41	24684
823.55	24692
823.69	24753
823.83	24715
823.97	24741
824.11	24513
824.25	24479
824.389	24540
824.529	24604
824.669	24388
824.809	24692
824.949	24684
825.089	24627
825.228	24669
825.368	24445
825.508	24445
825.648	24353
825.787	24380
825.927	24460
826.067	24407
826.206	24429
826.346	24410
826.485	24448
826.625	24429
826.765	24536
826.904	24452
827.044	24197
827.183	24152
827.323	24072
827.462	24174
827.601	24114
827.741	24072
827.88	24125
828.02	23935
828.159	24095
828.298	24098
828.437	24034
828.577	24060
828.716	24136
828.855	23942
828.994	23786
829.134	23828
829.273	23851
829.412	23733
829.551	23775
829.69	23775
829.829	23874
829.968	23863
830.107	23668
830.246	23840
830.385	23737
830.524	23680
830.663	23668
830.802	23493
830.941	23356
831.08	23364
831.219	23497
831.357	23516
831.496	23646
831.635	23398
831.774	23277
831.913	23197
832.051	23109
832.19	23265
832.329	23189
832.467	23067
832.606	23025
832.744	22984
832.883	22965
833.022	23014
833.16	23113
833.299	23071
833.437	22984
833.576	23246
833.714	23132
833.852	23052
833.991	23121
834.129	23033
834.267	23197
834.406	23227
834.544	23086
834.682	23204
834.821	23014
834.959	23200
835.097	23117
835.235	23121
835.373	23098
835.511	23029
835.65	23033
835.788	23041
835.926	22790
836.064	22729
836.202	22911
836.34	22987
836.478	23105
836.615	23029
836.753	22961
836.891	23022
837.029	23079
837.167	22850
837.305	22927
837.443	22862
837.58	22854
837.718	22782
837.856	22816
837.993	22786
838.131	22889
838.269	22641
838.406	22763
838.544	22691
838.681	22443
838.819	22348
838.956	22303
839.094	22276
839.231	22417
839.369	22455
839.506	22580
839.643	22462
839.781	22257
839.918	22207
840.055	22150
840.193	22299
840.33	22105
840.467	22246
840.604	22265
840.742	22557
840.879	22207
841.016	22105
841.153	22105
841.29	22230
841.427	22196
841.564	22177
841.701	22070
841.838	22025
841.975	22048
842.112	22143
842.249	22177
842.385	22128
842.522	22200
842.659	21869
842.796	22086
842.933	21979
843.069	22025
843.206	21937
843.343	22013
843.479	21907
843.616	21922
843.752	21698
843.889	21781
844.025	21857
844.162	21675
844.298	21797
844.435	21553
844.571	21671
844.708	21747
844.844	21953
844.98	21850
845.117	21838
845.253	21728
845.389	21618
845.525	21580
845.661	21515
845.798	21572
845.934	21515
846.07	21374
846.206	21428
846.342	21595
846.478	21435
846.614	21241
846.75	21173
846.886	21203
847.022	21332
847.158	21279
847.294	21260
847.429	21211
847.565	21214
847.701	21454
847.837	20883
847.972	20868
848.108	20963
848.244	20994
848.379	20853
848.515	20815
848.65	20804
848.786	20769
848.921	20765
849.057	20902
849.192	20845
849.328	20781
849.463	20872
849.598	20941
849.734	20708
849.869	20663
850.004	20434
850.14	20712
850.275	20606
850.41	20385
850.545	20533
850.68	20434
850.815	20651
850.95	20552
851.085	20708
851.22	20648
851.355	20670
851.49	20514
851.625	20454
851.76	20469
851.895	20518
852.03	20579
852.165	20606
852.299	20568
852.434	20495
852.569	20602
852.703	20606
852.838	20655
852.973	20712
853.107	20716
853.242	20522
853.376	20404
853.511	20267
853.645	20301
853.78	20530
853.914	20495
854.048	20476
854.183	20454
854.317	20457
854.451	20587
854.585	20324
854.72	20446
854.854	20514
854.988	20351
855.122	20400
855.256	20267
855.39	20408
855.524	20476
855.658	20545
855.792	20370
855.926	20385
856.06	20461
856.194	20362
856.327	20343
856.461	20256
856.595	20377
856.729	20320
856.862	20518
856.996	20442
857.13	20431
857.263	20450
857.397	20431
857.53	20278
857.664	20488
857.797	20560
857.931	20499
858.064	20457
858.197	20427
858.331	20339
858.464	20427
858.597	20252
858.731	20301
858.864	20339
858.997	20370
859.13	20442
859.263	20415
859.396	20495
859.529	20495
859.662	20404
859.795	20256
859.928	20431
860.061	20655
860.194	20613
860.327	20454
860.46	20446
860.592	20389
860.725	20442
860.858	20530
860.99	20415
861.123	20290
861.256	20298
861.388	20347
861.521	20933
861.653	20248
861.786	20187
861.918	20183
862.05	20332
862.183	20275
862.315	20298
862.447	20461
862.58	20271
862.712	20168
862.844	20050
862.976	20187
863.108	20263
863.24	20549
863.372	20187
863.504	20180
863.636	20134
863.768	20210
863.9	20119
864.032	20008
864.164	20054
864.296	20176
864.428	20153
864.559	20252
864.691	20176
864.823	20168
864.954	20172
865.086	20084
865.217	20043
865.349	19906
865.48	19967
865.612	20031
865.743	20221
865.875	20107
866.006	19856
866.137	19978
866.269	20103
866.4	20008
866.531	19906
866.662	19963
866.793	19875
866.924	19951
867.055	19890
867.186	19989
867.317	19913
867.448	19811
867.579	20024
867.71	19830
867.841	19947
867.972	19944
868.103	19963
868.233	20058
868.364	19974
868.495	20020
868.625	20107
868.756	20298
868.886	20218
869.017	20199
869.147	20313
869.278	20454
869.408	20286
869.539	20244
869.669	20278
869.799	20237
869.929	20358
870.06	20290
870.19	20465
870.32	20625
870.45	20518
870.58	20560
870.71	20792
870.84	20636
870.97	20632
871.1	20629
871.23	20705
871.36	20724
871.489	20693
871.619	20918
871.749	20792
871.879	20807
872.008	20906
872.138	20845
872.267	20952
872.397	20689
872.526	20659
872.656	20682
872.785	20735
872.915	20842
873.044	20872
873.173	20845
873.303	20807
873.432	20891
873.561	20990
873.69	20845
873.819	20941
873.948	20769
874.077	20849
874.206	20830
874.335	20838
874.464	20990
874.593	21077
874.722	21043
874.851	21081
874.979	21081
875.108	21009
875.237	21066
875.365	21051
875.494	21176
875.623	21089
875.751	21104
875.88	21104
876.008	21207
876.136	21241
876.265	21454
876.393	21656
876.521	21462
876.65	21629
876.778	21561
876.906	21481
877.034	21481
877.162	21549
877.29	21435
877.418	21401
877.546	21428
877.674	21424
877.802	21420
877.93	21443
878.058	21431
878.185	21302
878.313	21389
878.441	21492
878.568	21329
878.696	21294
878.824	21473
878.951	21435
879.079	21614
879.206	21701
879.333	21477
879.461	21374
879.588	21515
879.715	21561
879.842	21713
879.97	21492
880.097	21321
880.224	21321
880.351	21279
880.478	21226
880.605	21211
880.732	21298
880.859	21340
880.986	21211
881.112	21348
881.239	21131
881.366	21051
881.493	20963
881.619	20944
881.746	20998
881.872	20895
881.999	20834
882.125	20674
882.252	20731
882.378	20914
882.505	21055
882.631	20720
882.757	20488
882.883	20621
883.01	20507
883.136	20526
883.262	20564
883.388	20511
883.514	20648
883.64	20488
883.766	20492
883.892	20358
884.018	20415
884.143	20507
884.269	20659
884.395	20286
884.52	20271
884.646	20176
884.772	20275
884.897	20024
885.023	20282
885.148	20233
885.274	20324
885.399	20267
885.524	20229
885.65	20267
885.775	20282
885.9	20229
886.025	20275
886.15	20320
886.275	20275
886.4	20027
886.525	20062
886.65	19989
886.775	20100
886.9	20286
887.025	20309
887.149	20126
887.274	20050
887.399	19944
887.523	19928
887.648	19887
887.773	19868
887.897	20077
888.021	20069
888.146	19997
888.27	20058
888.395	20058
888.519	20058
888.643	20107
888.767	20035
888.891	19811
889.015	19856
889.139	19940
889.263	19772
889.387	19982
889.511	20031
889.635	19959
889.759	19814
889.883	19803
890.006	19662
890.13	19750
890.254	19734
890.377	19666
890.501	19548
890.624	19533
890.748	19552
890.871	19362
890.995	19304
891.118	19270
891.241	19434
891.364	19388
891.488	19571
891.611	19259
891.734	19434
891.857	19460
891.98	19441
892.103	19324
892.226	19381
892.349	19316
892.471	19042
892.594	19316
892.717	19346
892.839	19266
892.962	19301
893.085	19430
893.207	19331
893.33	19206
893.452	19217
893.575	19316
893.697	19304
893.819	19411
893.941	19430
894.064	19457
894.186	19358
894.308	19217
894.43	19407
894.552	19308
894.674	19343
894.796	19251
894.918	19221
895.04	19297
895.161	19430
895.283	19278
895.405	19407
895.526	19320
895.648	19430
895.769	19316
895.891	19365
896.012	19392
896.134	19400
896.255	19266
896.376	19251
896.498	19327
896.619	19464
896.74	19270
896.861	19339
896.982	19746
897.103	19795
897.224	19620
897.345	19460
897.466	19502
897.587	19506
897.708	19651
897.828	19605
897.949	19434
898.07	19388
898.19	19445
898.311	19727
898.431	19525
898.552	19575
898.672	19658
898.792	19533
898.913	19567
899.033	19514
899.153	19373
899.273	19187
899.393	19324
899.513	19441
899.633	19236
899.753	19422
899.873	19213
899.993	19274
900.113	19263
900.232	19327
900.352	19240
900.472	19206
900.591	19046
900.711	19061
900.83	19061
900.95	19232
901.069	19244
901.189	19034
901.308	18829
901.427	18635
901.546	18719
901.665	18688
901.784	18730
901.904	18665
902.023	18429
902.141	18433
902.26	18190
902.379	18300
902.498	18201
902.617	18144
902.735	18292
902.854	18220
902.973	18110
903.091	17817
903.21	17927
903.328	17893
903.446	17859
903.565	17817
903.683	17737
903.801	17562
903.919	17745
904.038	17532
904.156	17402
904.274	17596
904.392	17482
904.51	17334
904.627	17573
904.745	17512
904.863	17608
904.981	17227
905.098	17159
905.216	17151
905.334	17220
905.451	17223
905.569	16980
905.686	17193
905.803	17197
905.921	16946
906.038	17075
906.155	17048
906.272	16873
906.389	16889
906.506	16713
906.623	16778
906.74	16637
906.857	16546
906.974	16538
907.091	16752
907.208	16862
907.324	16645
907.441	16672
907.557	16390
907.674	16375
907.79	16356
907.907	16402
908.023	16394
908.139	16398
908.256	16421
908.372	16341
908.488	16310
908.604	16120
908.72	16192
908.836	16150
908.952	16135
909.068	16139
909.184	16226
909.3	16063
909.415	16253
909.531	16169
909.647	15930
909.762	15899
909.878	15865
909.993	15945
910.108	15804
910.224	15857
910.339	15770
910.454	15774
910.57	15580
910.685	15701
910.8	15907
910.915	15823
911.03	15736
911.145	15568
911.259	15447
911.374	15507
911.489	15382
911.604	15374
911.718	15218
911.833	15203
911.947	15199
912.062	15055
912.176	15321
912.291	15241
912.405	15218
912.519	15450
912.633	15450
912.748	15233
912.862	15161
912.976	15070
913.09	14967
913.204	14921
913.318	15017
913.431	15085
913.545	15146
913.659	15089
913.772	15104
913.886	14956
914	14815
914.113	14948
914.226	14921
914.34	14921
914.453	14807
914.566	14941
914.68	14838
914.793	14727
914.906	14549
915.019	14541
915.132	14446
915.245	14476
915.358	14476
915.47	14511
915.583	14457
915.696	14469
915.809	14495
915.921	14598
916.034	14499
916.146	14431
916.259	14495
916.371	14427
916.483	14431
916.595	14355
916.708	14248
916.82	14336
916.932	14298
917.044	14256
917.156	14298
917.268	14134
917.38	14195
917.491	14073
917.603	14180
917.715	14290
917.826	14172
917.938	14024
918.049	14096
918.161	14149
918.272	14320
918.384	14172
918.495	14107
918.606	13967
918.717	13894
918.828	13906
918.939	13890
919.05	13864
919.161	13887
919.272	13719
919.383	13746
919.494	13913
919.604	14096
919.715	13921
919.826	13814
919.936	13860
920.047	13978
920.157	13974
920.267	14138
920.378	13944
920.488	13879
920.598	14084
920.708	14149
920.818	14058
920.928	14065
921.038	14180
921.148	14001
921.258	13883
921.368	13784
921.477	13689
921.587	13776
921.697	13556
921.806	13616
921.916	13499
922.025	13350
922.134	13301
922.244	13282
922.353	13331
922.462	13194
922.571	13129
922.68	13046
922.789	12840
922.898	13015
923.007	12905
923.116	13042
923.224	12916
923.333	12943
923.442	12783
923.55	12753
923.659	12825
923.767	12837
923.876	12779
923.984	12768
924.092	12681
924.201	12681
924.309	12726
924.417	12719
924.525	12635
924.633	12627
924.741	13339
924.849	12502
924.956	12471
925.064	12479
925.172	12380
925.279	12376
925.387	12380
925.494	12422
925.602	12532
925.709	12460
925.816	12311
925.924	12357
926.031	12391
926.138	12334
926.245	12494
926.352	12239
926.459	12315
926.566	12452
926.673	12258
926.779	12209
926.886	12102
926.993	12041
927.099	12007
927.206	11961
927.312	11984
927.419	12053
927.525	11965
927.631	12003
927.737	11916
927.843	11855
927.95	11657
928.056	11897
928.162	11752
928.267	11885
928.373	12494
928.479	11893
928.585	11611
928.69	11870
928.796	11790
928.901	11661
929.007	11535
929.112	11718
929.218	11619
929.323	11611
929.428	11589
929.533	11668
929.638	11463
929.743	11505
929.848	11585
929.953	11577
930.058	11368
930.163	11261
930.267	11299
930.372	11387
930.477	11216
930.581	11505
930.685	11273
930.79	11178
930.894	11181
930.998	11185
931.103	11341
931.207	10991
931.311	10786
931.415	10774
931.519	10573
931.623	10527
