Data from test_V78500241_3564.txt Node
Date: Fri Mar 25 15:34:40 CST 2022
User: usil
Spectrometer: V785-0024
Trigger mode: 0
Integration Time (sec): 4.000000E-1
Scans to average: 1
Nonlinearity correction enabled: false
Boxcar width: 0
Storing dark spectrum: false
XAxis mode: Wavelengths
Number of Pixels in Spectrum: 1024
>>>>>Begin Spectral Data<<<<<
801.071	27283
801.214	27146
801.356	27001
801.499	26857
801.641	26925
801.783	26754
801.926	26891
802.068	26861
802.211	26746
802.353	26648
802.496	26457
802.638	26541
802.78	26503
802.923	26343
803.065	26400
803.208	26256
803.35	26476
803.492	26640
803.635	26575
803.777	26511
803.919	26575
804.061	26914
804.204	26758
804.346	26602
804.488	26514
804.63	26667
804.773	26442
804.915	26507
805.057	26800
805.199	26590
805.341	26556
805.483	26754
805.626	26674
805.768	26564
805.91	26712
806.052	26796
806.194	26598
806.336	26948
806.478	26853
806.62	26785
806.762	26750
806.904	26986
807.046	27252
807.188	27131
807.33	27001
807.472	27154
807.614	27157
807.756	27127
807.898	27032
808.04	26868
808.182	26937
808.324	26956
808.465	26929
808.607	27112
808.749	27275
808.891	27466
809.033	27416
809.174	27427
809.316	27378
809.458	27302
809.6	27294
809.741	27382
809.883	27397
810.025	27545
810.166	27618
810.308	27534
810.45	27538
810.591	27485
810.733	27336
810.875	27138
811.016	27222
811.158	27211
811.299	27462
811.441	27275
811.582	27545
811.724	27321
811.865	27241
812.007	27287
812.148	27256
812.29	27355
812.431	27420
812.573	27610
812.714	27781
812.855	27751
812.997	27850
813.138	27979
813.279	27808
813.421	27827
813.562	27667
813.703	27694
813.845	27439
813.986	27256
814.127	27135
814.268	26918
814.41	27055
814.551	26925
814.692	27077
814.833	26857
814.974	26921
815.115	27005
815.256	26819
815.397	26842
815.539	26883
815.68	26864
815.821	26720
815.962	26815
816.103	26815
816.244	26556
816.385	26495
816.526	26492
816.666	26358
816.807	26187
816.948	26427
817.089	26393
817.23	26218
817.371	26214
817.512	26309
817.653	26317
817.793	26100
817.934	26126
818.075	26195
818.216	26301
818.356	26103
818.497	26088
818.638	26005
818.778	25947
818.919	25955
819.06	26122
819.2	26092
819.341	26092
819.481	26225
819.622	26404
819.762	26632
819.903	26434
820.043	26332
820.184	26317
820.324	26465
820.465	26427
820.605	26393
820.746	26305
820.886	26237
821.026	26320
821.167	26355
821.307	26309
821.447	26199
821.588	26180
821.728	25936
821.868	25807
822.008	25742
822.149	25700
822.289	25632
822.429	25339
822.569	25365
822.709	25411
822.849	25350
822.99	25236
823.13	25282
823.27	25217
823.41	25053
823.55	24886
823.69	25080
823.83	25065
823.97	24943
824.11	24905
824.25	24840
824.389	24901
824.529	24924
824.669	24882
824.809	24951
824.949	24863
825.089	24916
825.228	24852
825.368	24719
825.508	24795
825.648	24703
825.787	24844
825.927	24722
826.067	24730
826.206	24642
826.346	24806
826.485	24875
826.625	24669
826.765	24897
826.904	24722
827.044	24585
827.183	24498
827.323	24426
827.462	24441
827.601	24369
827.741	24433
827.88	24464
828.02	24311
828.159	24494
828.298	24467
828.437	24448
828.577	24243
828.716	24601
828.855	24429
828.994	24232
829.134	24235
829.273	24144
829.412	24110
829.551	24091
829.69	24117
829.829	24102
829.968	24194
830.107	24232
830.246	24129
830.385	24106
830.524	24064
830.663	23973
830.802	23889
830.941	23756
831.08	23821
831.219	23870
831.357	23809
831.496	23958
831.635	23722
831.774	23585
831.913	23699
832.051	23676
832.19	23554
832.329	23577
832.467	23410
832.606	23368
832.744	23414
832.883	23345
833.022	23520
833.16	23356
833.299	23452
833.437	23509
833.576	23615
833.714	23406
833.852	23600
833.991	23505
834.129	23566
834.267	23649
834.406	23528
834.544	23668
834.682	23653
834.821	23509
834.959	23665
835.097	23452
835.235	23558
835.373	23528
835.511	23486
835.65	23436
835.788	23421
835.926	23220
836.064	23250
836.202	23235
836.34	23345
836.478	23497
836.615	23414
836.753	23360
836.891	23387
837.029	23334
837.167	23307
837.305	23284
837.443	23185
837.58	23212
837.718	23280
837.856	23086
837.993	23254
838.131	23174
838.269	23204
838.406	23086
838.544	23079
838.681	22854
838.819	22774
838.956	22710
839.094	22694
839.231	22778
839.369	22896
839.506	23060
839.643	22877
839.781	22767
839.918	22634
840.055	22710
840.193	22713
840.33	22675
840.467	22668
840.604	22744
840.742	22972
840.879	22550
841.016	22599
841.153	22519
841.29	22771
841.427	22630
841.564	22653
841.701	22645
841.838	22679
841.975	22546
842.112	22592
842.249	22577
842.385	22295
842.522	22713
842.659	22443
842.796	22363
842.933	22466
843.069	22314
843.206	22356
843.343	22535
843.479	22470
843.616	22409
843.752	22143
843.889	22287
844.025	22299
844.162	22078
844.298	22112
844.435	22188
844.571	22093
844.708	22291
844.844	22344
844.98	22162
845.117	22329
845.253	22215
845.389	22109
845.525	22200
845.661	22059
845.798	21838
845.934	22002
846.07	21857
846.206	21945
846.342	22010
846.478	21918
846.614	21736
846.75	21656
846.886	21583
847.022	21781
847.158	21751
847.294	21808
847.429	21762
847.565	21671
847.701	21915
847.837	21424
847.972	21450
848.108	21469
848.244	21500
848.379	21283
848.515	21077
848.65	21287
848.786	21260
848.921	21165
849.057	21298
849.192	21386
849.328	21317
849.463	21268
849.598	21165
849.734	21096
849.869	21142
850.004	20979
850.14	21009
850.275	21066
850.41	21017
850.545	20952
850.68	21074
850.815	21070
850.95	20979
851.085	21176
851.22	21157
851.355	20990
851.49	20887
851.625	20975
851.76	21009
851.895	20880
852.03	20811
852.165	21001
852.299	21127
852.434	21020
852.569	21039
852.703	21001
852.838	21116
852.973	21157
853.107	21100
853.242	20975
853.376	20849
853.511	20674
853.645	20815
853.78	20967
853.914	20853
854.048	20781
854.183	20796
854.317	20872
854.451	21039
854.585	20853
854.72	20819
854.854	20788
854.988	20636
855.122	20792
855.256	20693
855.39	20769
855.524	20853
855.658	20845
855.792	20765
855.926	20807
856.06	20975
856.194	20834
856.327	20724
856.461	20845
856.595	20887
856.729	20921
856.862	20960
856.996	20712
857.13	20792
857.263	20861
857.397	20960
857.53	20857
857.664	20876
857.797	20883
857.931	20956
858.064	20826
858.197	20918
858.331	20739
858.464	20769
858.597	20792
858.731	20857
858.864	20796
858.997	20819
859.13	20807
859.263	20857
859.396	20857
859.529	20800
859.662	20648
859.795	20804
859.928	20765
860.061	20906
860.194	20956
860.327	20864
860.46	20838
860.592	20982
860.725	21001
860.858	20872
860.99	20895
861.123	20697
861.256	20750
861.388	20910
861.521	21576
861.653	20811
861.786	20598
861.918	20663
862.05	20686
862.183	20830
862.315	20743
862.447	20800
862.58	20788
862.712	20492
862.844	20571
862.976	20492
863.108	20613
863.24	20887
863.372	20393
863.504	20507
863.636	20499
863.768	20575
863.9	20545
864.032	20549
864.164	20473
864.296	20495
864.428	20621
864.559	20598
864.691	20594
864.823	20484
864.954	20613
865.086	20511
865.217	20446
865.349	20366
865.48	20473
865.612	20461
865.743	20587
865.875	20484
866.006	20415
866.137	20419
866.269	20473
866.4	20446
866.531	20434
866.662	20480
866.793	20294
866.924	20427
867.055	20480
867.186	20393
867.317	20419
867.448	20275
867.579	20362
867.71	20358
867.841	20332
867.972	20503
868.103	20476
868.233	20358
868.364	20434
868.495	20492
868.625	20640
868.756	20781
868.886	20632
869.017	20602
869.147	20777
869.278	20571
869.408	20678
869.539	20693
869.669	20705
869.799	20644
869.929	20788
870.06	20804
870.19	20906
870.32	20906
870.45	21142
870.58	21020
870.71	21161
870.84	21039
870.97	21032
871.1	21142
871.23	21249
871.36	21173
871.489	21169
871.619	21302
871.749	21245
871.879	21351
872.008	21310
872.138	21272
872.267	21256
872.397	21028
872.526	21165
872.656	21104
872.785	21150
872.915	21260
873.044	21408
873.173	21268
873.303	21370
873.432	21321
873.561	21306
873.69	21359
873.819	21344
873.948	21355
874.077	21348
874.206	21268
874.335	21359
874.464	21424
874.593	21458
874.722	21568
874.851	21603
874.979	21633
875.108	21644
875.237	21416
875.365	21424
875.494	21622
875.623	21549
875.751	21428
875.88	21496
876.008	21747
876.136	21762
876.265	22040
876.393	22086
876.521	22067
876.65	22032
876.778	22002
876.906	21915
877.034	21804
877.162	21884
877.29	21713
877.418	21968
877.546	21915
877.674	22044
877.802	21926
877.93	22002
878.058	21785
878.185	21800
878.313	21804
878.441	21816
878.568	21660
878.696	21755
878.824	21899
878.951	21934
879.079	21998
879.206	22230
879.333	21953
879.461	21991
879.588	22070
879.715	22139
879.842	22200
879.97	21991
880.097	21751
880.224	21755
880.351	21781
880.478	21732
880.605	21743
880.732	21781
880.859	21907
880.986	21717
881.112	21808
881.239	21542
881.366	21378
881.493	21416
881.619	21268
881.746	21332
881.872	21348
881.999	21298
882.125	21256
882.252	21230
882.378	21348
882.505	21397
882.631	21306
882.757	21119
882.883	20960
883.01	20971
883.136	20956
883.262	21005
883.388	20804
883.514	20853
883.64	20994
883.766	20982
883.892	20705
884.018	20952
884.143	20853
884.269	20937
884.395	20796
884.52	20632
884.646	20530
884.772	20579
884.897	20511
885.023	20613
885.148	20773
885.274	20811
885.399	20819
885.524	20613
885.65	20670
885.775	20701
885.9	20602
886.025	20750
886.15	20705
886.275	20522
886.4	20606
886.525	20583
886.65	20648
886.775	20629
886.9	20754
887.025	20785
887.149	20727
887.274	20427
887.399	20400
887.523	20347
887.648	20332
887.773	20298
887.897	20530
888.021	20400
888.146	20358
888.27	20492
888.395	20564
888.519	20431
888.643	20438
888.767	20526
888.891	20301
889.015	20138
889.139	20176
889.263	20221
889.387	20358
889.511	20374
889.635	20282
889.759	20225
889.883	20210
890.006	20282
890.13	20377
890.254	20195
890.377	20206
890.501	19978
890.624	19982
890.748	19944
890.871	19871
890.995	19894
891.118	19639
891.241	19727
891.364	19864
891.488	19883
891.611	19883
891.734	19772
891.857	19833
891.98	19769
892.103	19849
892.226	19761
892.349	19666
892.471	19605
892.594	19807
892.717	19784
892.839	19670
892.962	19651
893.085	19780
893.207	19757
893.33	19605
893.452	19586
893.575	19662
893.697	19742
893.819	19814
893.941	19799
894.064	19898
894.186	19594
894.308	19685
894.43	19761
894.552	19864
894.674	19849
894.796	19575
894.918	19666
895.04	19590
895.161	19852
895.283	19776
895.405	19700
895.526	19803
895.648	19731
895.769	19795
895.891	19746
896.012	19746
896.134	19791
896.255	19780
896.376	19693
896.498	19681
896.619	19757
896.74	19681
896.861	19689
896.982	20054
897.103	20168
897.224	19947
897.345	19951
897.466	19841
897.587	19955
897.708	20050
897.828	20050
897.949	19959
898.07	19814
898.19	19807
898.311	19955
898.431	19894
898.552	20005
898.672	19944
898.792	20043
898.913	19921
899.033	19921
899.153	19769
899.273	19628
899.393	19689
899.513	19746
899.633	19658
899.753	19681
899.873	19632
899.993	19712
900.113	19616
900.232	19681
900.352	19632
900.472	19594
900.591	19441
900.711	19422
900.83	19468
900.95	19590
901.069	19571
901.189	19327
901.308	19190
901.427	19046
901.546	19038
901.665	19152
901.784	18996
901.904	18821
902.023	18837
902.141	18631
902.26	18490
902.379	18631
902.498	18589
902.617	18559
902.735	18631
902.854	18620
902.973	18502
903.091	18334
903.21	18243
903.328	18414
903.446	18159
903.565	18129
903.683	18121
903.801	17897
903.919	17942
904.038	18019
904.156	17927
904.274	17893
904.392	17836
904.51	17824
904.627	17908
904.745	17817
904.863	17904
904.981	17680
905.098	17482
905.216	17551
905.334	17505
905.451	17539
905.569	17478
905.686	17570
905.803	17532
905.921	17349
906.038	17349
906.155	17231
906.272	17231
906.389	17220
906.506	17010
906.623	17117
906.74	16987
906.857	16976
906.974	17025
907.091	17166
907.208	17170
907.324	17098
907.441	16984
907.557	16847
907.674	16843
907.79	16809
907.907	16679
908.023	16812
908.139	16793
908.256	16656
908.372	16664
908.488	16637
908.604	16577
908.72	16481
908.836	16485
908.952	16428
909.068	16546
909.184	16611
909.3	16500
909.415	16538
909.531	16500
909.647	16242
909.762	16223
909.878	16226
909.993	16135
910.108	16188
910.224	16116
910.339	16223
910.454	16067
910.57	15994
910.685	15998
910.8	16226
910.915	16211
911.03	16074
911.145	15835
911.259	15759
911.374	15907
911.489	15682
911.604	15660
911.718	15584
911.833	15587
911.947	15515
912.062	15481
912.176	15553
912.291	15644
912.405	15519
912.519	15774
912.633	15686
912.748	15561
912.862	15488
912.976	15363
913.09	15230
913.204	15367
913.318	15412
913.431	15397
913.545	15450
913.659	15382
913.772	15317
913.886	15233
914	15146
914.113	15237
914.226	15283
914.34	15108
914.453	15108
914.566	15192
914.68	15089
914.793	15123
914.906	14777
915.019	14773
915.132	14667
915.245	14781
915.358	14769
915.47	14815
915.583	14739
915.696	14743
915.809	14929
915.921	14857
916.034	14792
916.146	14777
916.259	14678
916.371	14887
916.483	14788
916.595	14617
916.708	14617
916.82	14750
916.932	14602
917.044	14640
917.156	14712
917.268	14393
917.38	14530
917.491	14499
917.603	14434
917.715	14564
917.826	14473
917.938	14503
918.049	14313
918.161	14366
918.272	14613
918.384	14587
918.495	14370
918.606	14259
918.717	14157
918.828	14191
918.939	14229
919.05	14233
919.161	14206
919.272	14016
919.383	14065
919.494	14282
919.604	14286
919.715	14218
919.826	14103
919.936	14153
920.047	14252
920.157	14183
920.267	14396
920.378	14164
920.488	14123
920.598	14385
920.708	14499
920.818	14267
920.928	14305
921.038	14434
921.148	14431
921.258	14202
921.368	14035
921.477	14035
921.587	14016
921.697	13868
921.806	13989
921.916	13761
922.025	13647
922.134	13636
922.244	13521
922.353	13670
922.462	13514
922.571	13381
922.68	13297
922.789	13171
922.898	13320
923.007	13137
923.116	13168
923.224	13206
923.333	13232
923.442	13042
923.55	13076
923.659	13152
923.767	13050
923.876	12966
923.984	13133
924.092	12981
924.201	12966
924.309	12935
924.417	12951
924.525	12916
924.633	12935
924.741	13928
924.849	12589
924.956	12745
925.064	12654
925.172	12555
925.279	12707
925.387	12700
925.494	12688
925.602	12757
925.709	12726
925.816	12566
925.924	12635
926.031	12673
926.138	12681
926.245	12734
926.352	12559
926.459	12544
926.566	12616
926.673	12604
926.779	12399
926.886	12479
926.993	12273
927.099	12213
927.206	12186
927.312	12102
927.419	12334
927.525	12216
927.631	12251
927.737	12106
927.843	12106
927.95	12015
928.056	12045
928.162	12125
928.267	12110
928.373	12585
928.479	12064
928.585	11874
928.69	12041
928.796	12098
928.901	11920
929.007	11733
929.112	11920
929.218	11904
929.323	11843
929.428	11726
929.533	11961
929.638	11714
929.743	11729
929.848	11790
929.953	11794
930.058	11691
930.163	11474
930.267	11497
930.372	11592
930.477	11444
930.581	11676
930.685	11566
930.79	11414
930.894	11406
930.998	11383
931.103	11577
931.207	11083
931.311	11018
931.415	10957
931.519	10790
931.623	10733
