Data from test_V78500241_2123.txt Node
Date: Fri Mar 25 15:24:38 CST 2022
User: usil
Spectrometer: V785-0024
Trigger mode: 0
Integration Time (sec): 4.000000E-1
Scans to average: 1
Nonlinearity correction enabled: false
Boxcar width: 0
Storing dark spectrum: false
XAxis mode: Wavelengths
Number of Pixels in Spectrum: 1024
>>>>>Begin Spectral Data<<<<<
801.071	27724
801.214	27622
801.356	27378
801.499	27351
801.641	27302
801.783	27184
801.926	27138
802.068	27169
802.211	27093
802.353	26990
802.496	26872
802.638	26670
802.78	26777
802.923	26739
803.065	26686
803.208	26708
803.35	26682
803.492	26979
803.635	26979
803.777	26746
803.919	26876
804.061	27218
804.204	27066
804.346	26769
804.488	26883
804.63	26967
804.773	26921
804.915	26982
805.057	26971
805.199	26868
805.341	27123
805.483	27051
805.626	27070
805.768	26902
805.91	27173
806.052	27074
806.194	27005
806.336	27336
806.478	27245
806.62	27009
806.762	27283
806.904	27245
807.046	27663
807.188	27614
807.33	27606
807.472	27629
807.614	27397
807.756	27427
807.898	27374
808.04	27401
808.182	27454
808.324	27355
808.465	27370
808.607	27587
808.749	27728
808.891	27812
809.033	27720
809.174	27812
809.316	27610
809.458	27709
809.6	27656
809.741	27728
809.883	27865
810.025	28097
810.166	27979
810.308	28143
810.45	28036
810.591	27854
810.733	27785
810.875	27671
811.016	27534
811.158	27568
811.299	27591
811.441	27785
811.582	27781
811.724	27694
811.865	27564
812.007	27580
812.148	27686
812.29	27876
812.431	27850
812.573	27899
812.714	28154
812.855	28185
812.997	28177
813.138	28424
813.279	28352
813.421	28177
813.562	28006
813.703	28139
813.845	27854
813.986	27663
814.127	27462
814.268	27370
814.41	27321
814.551	27401
814.692	27496
814.833	27294
814.974	27367
815.115	27367
815.256	27081
815.397	27176
815.539	27127
815.68	27104
815.821	27127
815.962	27230
816.103	27116
816.244	27001
816.385	26994
816.526	26868
816.666	26773
816.807	26716
816.948	26530
817.089	26720
817.23	26705
817.371	26564
817.512	26575
817.653	26644
817.793	26552
817.934	26648
818.075	26629
818.216	26773
818.356	26625
818.497	26507
818.638	26450
818.778	26301
818.919	26271
819.06	26480
819.2	26434
819.341	26530
819.481	26453
819.622	26788
819.762	26830
819.903	26933
820.043	26891
820.184	26830
820.324	26712
820.465	26739
820.605	26556
820.746	26697
820.886	26625
821.026	26746
821.167	26655
821.307	26815
821.447	26720
821.588	26583
821.728	26537
821.868	26275
822.008	26187
822.149	26183
822.289	26039
822.429	25811
822.569	25860
822.709	25837
822.849	25658
822.99	25559
823.13	25529
823.27	25510
823.41	25381
823.55	25228
823.69	25411
823.83	25411
823.97	25502
824.11	25103
824.25	25285
824.389	25206
824.529	25403
824.669	25198
824.809	25335
824.949	25400
825.089	25312
825.228	25293
825.368	25148
825.508	25110
825.648	25206
825.787	25126
825.927	25247
826.067	25050
826.206	25171
826.346	25122
826.485	25217
826.625	25050
826.765	25236
826.904	25088
827.044	24916
827.183	25015
827.323	24738
827.462	24985
827.601	24829
827.741	24977
827.88	24886
828.02	24726
828.159	24871
828.298	24943
828.437	24852
828.577	24837
828.716	25023
828.855	24795
828.994	24597
829.134	24528
829.273	24654
829.412	24528
829.551	24460
829.69	24471
829.829	24570
829.968	24593
830.107	24623
830.246	24407
830.385	24384
830.524	24433
830.663	24403
830.802	24296
830.941	24117
831.08	24163
831.219	24144
831.357	24117
831.496	24190
831.635	24136
831.774	23977
831.913	24038
832.051	23920
832.19	24022
832.329	23923
832.467	23851
832.606	23805
832.744	23764
832.883	23824
833.022	23733
833.16	23649
833.299	23859
833.437	23893
833.576	23920
833.714	23832
833.852	23798
833.991	23958
834.129	23878
834.267	23851
834.406	23946
834.544	23916
834.682	23828
834.821	23722
834.959	23984
835.097	23764
835.235	23931
835.373	23828
835.511	23824
835.65	23531
835.788	23813
835.926	23646
836.064	23497
836.202	23482
836.34	23843
836.478	23756
836.615	23767
836.753	23646
836.891	23714
837.029	23703
837.167	23577
837.305	23684
837.443	23676
837.58	23433
837.718	23649
837.856	23665
837.993	23497
838.131	23444
838.269	23501
838.406	23398
838.544	23379
838.681	23193
838.819	23227
838.956	22976
839.094	23083
839.231	22938
839.369	23235
839.506	23425
839.643	23178
839.781	23029
839.918	23064
840.055	23010
840.193	23060
840.33	22991
840.467	22904
840.604	22892
840.742	23189
840.879	22782
841.016	22824
841.153	22748
841.29	22965
841.427	22904
841.564	22980
841.701	22854
841.838	22892
841.975	22771
842.112	22748
842.249	22710
842.385	22755
842.522	23006
842.659	22637
842.796	22546
842.933	22611
843.069	22588
843.206	22599
843.343	22812
843.479	22645
843.616	22805
843.752	22535
843.889	22394
844.025	22565
844.162	22546
844.298	22497
844.435	22356
844.571	22497
844.708	22508
844.844	22538
844.98	22641
845.117	22489
845.253	22333
845.389	22234
845.525	22310
845.661	22268
845.798	22185
845.934	22207
846.07	22109
846.206	22211
846.342	22314
846.478	22078
846.614	21983
846.75	21903
846.886	21873
847.022	22017
847.158	21960
847.294	21983
847.429	21888
847.565	21941
847.701	22196
847.837	21671
847.972	21618
848.108	21835
848.244	21800
848.379	21591
848.515	21477
848.65	21488
848.786	21523
848.921	21492
849.057	21770
849.192	21458
849.328	21587
849.463	21496
849.598	21462
849.734	21435
849.869	21469
850.004	21302
850.14	21329
850.275	21321
850.41	21195
850.545	21249
850.68	21344
850.815	21272
850.95	21294
851.085	21523
851.22	21298
851.355	21351
851.49	21313
851.625	21211
851.76	21252
851.895	21108
852.03	21203
852.165	21344
852.299	21294
852.434	21252
852.569	21195
852.703	21199
852.838	21355
852.973	21386
853.107	21351
853.242	21138
853.376	21199
853.511	20914
853.645	21154
853.78	21214
853.914	21116
854.048	21150
854.183	21039
854.317	21138
854.451	21188
854.585	21131
854.72	21108
854.854	21207
854.988	21081
855.122	21100
855.256	21028
855.39	20994
855.524	21062
855.658	21226
855.792	21093
855.926	21032
856.06	21275
856.194	21112
856.327	21001
856.461	20952
856.595	21047
856.729	20971
856.862	21222
856.996	21127
857.13	21169
857.263	21199
857.397	21195
857.53	21058
857.664	21165
857.797	21138
857.931	21203
858.064	21062
858.197	21142
858.331	21009
858.464	21176
858.597	20944
858.731	21028
858.864	20910
858.997	20990
859.13	21173
859.263	21230
859.396	21123
859.529	21070
859.662	21085
859.795	21001
859.928	21108
860.061	21310
860.194	21287
860.327	21146
860.46	21123
860.592	21195
860.725	21203
860.858	21367
860.99	21119
861.123	21066
861.256	20967
861.388	21165
861.521	21694
861.653	20914
861.786	20754
861.918	20914
862.05	20845
862.183	21001
862.315	21066
862.447	21070
862.58	20994
862.712	20762
862.844	20735
862.976	20853
863.108	21009
863.24	21226
863.372	20743
863.504	20826
863.636	20864
863.768	20883
863.9	20769
864.032	20659
864.164	20872
864.296	20910
864.428	20762
864.559	20899
864.691	20819
864.823	20887
864.954	20735
865.086	20838
865.217	20754
865.349	20625
865.48	20602
865.612	20629
865.743	20765
865.875	20804
866.006	20731
866.137	20746
866.269	20670
866.4	20590
866.531	20594
866.662	20632
866.793	20648
866.924	20716
867.055	20533
867.186	20743
867.317	20526
867.448	20473
867.579	20568
867.71	20575
867.841	20518
867.972	20674
868.103	20537
868.233	20674
868.364	20682
868.495	20697
868.625	20925
868.756	20998
868.886	20807
869.017	20724
869.147	20910
869.278	21032
869.408	20883
869.539	20807
869.669	20975
869.799	20815
869.929	21032
870.06	21032
870.19	21070
870.32	21089
870.45	21089
870.58	21279
870.71	21325
870.84	21344
870.97	21336
871.1	21230
871.23	21374
871.36	21462
871.489	21310
871.619	21389
871.749	21431
871.879	21496
872.008	21591
872.138	21428
872.267	21462
872.397	21397
872.526	21348
872.656	21306
872.785	21237
872.915	21549
873.044	21530
873.173	21408
873.303	21462
873.432	21557
873.561	21542
873.69	21580
873.819	21466
873.948	21599
874.077	21435
874.206	21439
874.335	21340
874.464	21705
874.593	21717
874.722	21663
874.851	21572
874.979	21698
875.108	21713
875.237	21667
875.365	21568
875.494	21736
875.623	21690
875.751	21675
875.88	21709
876.008	21884
876.136	21998
876.265	22200
876.393	22249
876.521	22139
876.65	22242
876.778	22109
876.906	22135
877.034	21998
877.162	22055
877.29	22051
877.418	22158
877.546	22124
877.674	22029
877.802	22086
877.93	22059
878.058	21991
878.185	21915
878.313	22124
878.441	22029
878.568	21972
878.696	21911
878.824	22010
878.951	22219
879.079	22242
879.206	22318
879.333	22211
879.461	22090
879.588	22158
879.715	22219
879.842	22325
879.97	22097
880.097	21949
880.224	21850
880.351	21945
880.478	22044
880.605	21785
880.732	21873
880.859	22036
880.986	21880
881.112	21869
881.239	21812
881.366	21511
881.493	21614
881.619	21507
881.746	21488
881.872	21439
881.999	21488
882.125	21428
882.252	21511
882.378	21431
882.505	21568
882.631	21344
882.757	21237
882.883	21298
883.01	21184
883.136	21081
883.262	21070
883.388	20933
883.514	21237
883.64	21218
883.766	21127
883.892	20963
884.018	20895
884.143	21127
884.269	21028
884.395	20868
884.52	20785
884.646	20758
884.772	20705
884.897	20701
885.023	20826
885.148	20887
885.274	20929
885.399	20967
885.524	20838
885.65	20830
885.775	20830
885.9	20724
886.025	20914
886.15	20811
886.275	20792
886.4	20781
886.525	20682
886.65	20602
886.775	20667
886.9	20853
887.025	21028
887.149	20705
887.274	20533
887.399	20488
887.523	20556
887.648	20617
887.773	20507
887.897	20503
888.021	20590
888.146	20412
888.27	20590
888.395	20602
888.519	20663
888.643	20492
888.767	20594
888.891	20575
889.015	20473
889.139	20454
889.263	20332
889.387	20492
889.511	20503
889.635	20530
889.759	20351
889.883	20298
890.006	20446
890.13	20507
890.254	20332
890.377	20267
890.501	20130
890.624	20111
890.748	20134
890.871	20168
890.995	19944
891.118	19830
891.241	19887
891.364	19917
891.488	20043
891.611	19970
891.734	20016
891.857	20008
891.98	19860
892.103	20024
892.226	20073
892.349	19951
892.471	19753
892.594	19913
892.717	19947
892.839	19841
892.962	19826
893.085	19883
893.207	19807
893.33	19772
893.452	19742
893.575	19936
893.697	19727
893.819	19917
893.941	19989
894.064	19913
894.186	19780
894.308	19799
894.43	19982
894.552	19970
894.674	19822
894.796	19860
894.918	19837
895.04	19803
895.161	19890
895.283	19883
895.405	19811
895.526	19974
895.648	19795
895.769	19955
895.891	19826
896.012	19879
896.134	19970
896.255	19928
896.376	19860
896.498	19909
896.619	19879
896.74	19856
896.861	20031
896.982	20130
897.103	20305
897.224	20065
897.345	20035
897.466	20027
897.587	20016
897.708	20187
897.828	20278
897.949	20012
898.07	19784
898.19	20058
898.311	20263
898.431	20039
898.552	20062
898.672	20100
898.792	20027
898.913	20024
899.033	19997
899.153	19822
899.273	19784
899.393	19921
899.513	19902
899.633	19788
899.753	19868
899.873	19795
899.993	19921
900.113	19757
900.232	19814
900.352	19727
900.472	19647
900.591	19540
900.711	19670
900.83	19609
900.95	19814
901.069	19681
901.189	19575
901.308	19285
901.427	19171
901.546	19240
901.665	19247
901.784	19194
901.904	19148
902.023	19034
902.141	18757
902.26	18783
902.379	18821
902.498	18798
902.617	18639
902.735	18700
902.854	18654
902.973	18696
903.091	18452
903.21	18365
903.328	18410
903.446	18285
903.565	18232
903.683	18125
903.801	18114
903.919	18144
904.038	18098
904.156	17897
904.274	17980
904.392	18022
904.51	17935
904.627	17950
904.745	18022
904.863	18015
904.981	17813
905.098	17627
905.216	17638
905.334	17710
905.451	17699
905.569	17630
905.686	17668
905.803	17695
905.921	17490
906.038	17566
906.155	17368
906.272	17376
906.389	17216
906.506	17242
906.623	17315
906.74	17060
906.857	17067
906.974	17086
907.091	17334
907.208	17311
907.324	17143
907.441	17010
907.557	17014
907.674	16938
907.79	16900
907.907	16934
908.023	16866
908.139	16900
908.256	16755
908.372	16828
908.488	16782
908.604	16596
908.72	16664
908.836	16641
908.952	16535
909.068	16706
909.184	16717
909.3	16569
909.415	16691
909.531	16599
909.647	16367
909.762	16379
909.878	16325
909.993	16325
910.108	16211
910.224	16284
910.339	16299
910.454	16204
910.57	16188
910.685	16067
910.8	16306
910.915	16242
911.03	16143
911.145	16006
911.259	15968
911.374	15934
911.489	15785
911.604	15823
911.718	15641
911.833	15629
911.947	15564
912.062	15542
912.176	15686
912.291	15694
912.405	15591
912.519	15770
912.633	15831
912.748	15705
912.862	15606
912.976	15454
913.09	15306
913.204	15473
913.318	15416
913.431	15591
913.545	15450
913.659	15584
913.772	15393
913.886	15294
914	15313
914.113	15412
914.226	15466
914.34	15332
914.453	15195
914.566	15287
914.68	15123
914.793	15169
914.906	14960
915.019	14834
915.132	14842
915.245	14872
915.358	14899
915.47	14887
915.583	14891
915.696	14910
915.809	14967
915.921	15028
916.034	14872
916.146	14777
916.259	14849
916.371	14914
916.483	14845
916.595	14689
916.708	14765
916.82	14781
916.932	14640
917.044	14651
917.156	14621
917.268	14473
917.38	14610
917.491	14564
917.603	14537
917.715	14640
917.826	14686
917.938	14606
918.049	14374
918.161	14556
918.272	14583
918.384	14682
918.495	14541
918.606	14366
918.717	14328
918.828	14237
918.939	14332
919.05	14294
919.161	14366
919.272	14050
919.383	14202
919.494	14336
919.604	14469
919.715	14370
919.826	14233
919.936	14176
920.047	14317
920.157	14263
920.267	14473
920.378	14317
920.488	14206
920.598	14404
920.708	14583
920.818	14393
920.928	14385
921.038	14610
921.148	14610
921.258	14294
921.368	14123
921.477	14016
921.587	14050
921.697	13917
921.806	13959
921.916	13841
922.025	13704
922.134	13765
922.244	13609
922.353	13753
922.462	13521
922.571	13521
922.68	13289
922.789	13301
922.898	13381
923.007	13293
923.116	13422
923.224	13289
923.333	13263
923.442	13171
923.55	13114
923.659	13198
923.767	13141
923.876	13171
923.984	13198
924.092	13031
924.201	13061
924.309	13012
924.417	13080
924.525	13046
924.633	12977
924.741	13761
924.849	12814
924.956	12970
925.064	12825
925.172	12688
925.279	12730
925.387	12817
925.494	12764
925.602	12894
925.709	12791
925.816	12684
925.924	12764
926.031	12726
926.138	12665
926.245	12852
926.352	12620
926.459	12741
926.566	12829
926.673	12585
926.779	12608
926.886	12479
926.993	12426
927.099	12369
927.206	12342
927.312	12228
927.419	12426
927.525	12232
927.631	12357
927.737	12205
927.843	12213
927.95	12098
928.056	12155
928.162	12213
928.267	12133
928.373	12871
928.479	12239
928.585	11992
928.69	12091
928.796	12209
928.901	11973
929.007	11904
929.112	11954
929.218	11984
929.323	11916
929.428	11916
929.533	12015
929.638	11897
929.743	11828
929.848	11859
929.953	11828
930.058	11699
930.163	11554
930.267	11611
930.372	11691
930.477	11558
930.581	11786
930.685	11577
930.79	11474
930.894	11509
930.998	11387
931.103	11528
931.207	11227
931.311	11178
931.415	11159
931.519	10885
931.623	10847
