Data from test_V78500241_880.txt Node
Date: Fri Mar 25 15:15:59 CST 2022
User: usil
Spectrometer: V785-0024
Trigger mode: 0
Integration Time (sec): 4.000000E-1
Scans to average: 1
Nonlinearity correction enabled: false
Boxcar width: 0
Storing dark spectrum: false
XAxis mode: Wavelengths
Number of Pixels in Spectrum: 1024
>>>>>Begin Spectral Data<<<<<
801.071	28036
801.214	28029
801.356	27660
801.499	27747
801.641	27557
801.783	27530
801.926	27709
802.068	27561
802.211	27538
802.353	27443
802.496	27207
802.638	27302
802.78	27363
802.923	27233
803.065	27268
803.208	27173
803.35	27085
803.492	27256
803.635	27355
803.777	27218
803.919	27317
804.061	27770
804.204	27401
804.346	27454
804.488	27397
804.63	27370
804.773	27454
804.915	27389
805.057	27587
805.199	27401
805.341	27526
805.483	27648
805.626	27511
805.768	27511
805.91	27454
806.052	27705
806.194	27587
806.336	27736
806.478	27500
806.62	27682
806.762	27770
806.904	27838
807.046	28181
807.188	28048
807.33	27930
807.472	28025
807.614	27884
807.756	27975
807.898	27812
808.04	27850
808.182	27762
808.324	27800
808.465	27975
808.607	28090
808.749	28128
808.891	28261
809.033	28337
809.174	28265
809.316	28188
809.458	28280
809.6	28394
809.741	28325
809.883	28504
810.025	28512
810.166	28493
810.308	28508
810.45	28371
810.591	28401
810.733	28295
810.875	28169
811.016	28059
811.158	28173
811.299	28295
811.441	28341
811.582	28109
811.724	28234
811.865	28299
812.007	28234
812.148	28257
812.29	28382
812.431	28398
812.573	28489
812.714	28645
812.855	28812
812.997	28786
813.138	28892
813.279	28972
813.421	28805
813.562	28721
813.703	28531
813.845	28466
813.986	28265
814.127	28124
814.268	27937
814.41	27953
814.551	27934
814.692	28158
814.833	27945
814.974	28082
815.115	27937
815.256	27797
815.397	27922
815.539	27911
815.68	27850
815.821	27648
815.962	27831
816.103	27682
816.244	27629
816.385	27572
816.526	27458
816.666	27523
816.807	27180
816.948	27310
817.089	27287
817.23	27424
817.371	27233
817.512	27294
817.653	27287
817.793	27272
817.934	27310
818.075	27294
818.216	27176
818.356	27207
818.497	27116
818.638	26998
818.778	26967
818.919	26948
819.06	27123
819.2	27176
819.341	27359
819.481	27241
819.622	27355
819.762	27561
819.903	27652
820.043	27507
820.184	27355
820.324	27469
820.465	27378
820.605	27378
820.746	27329
820.886	27150
821.026	27283
821.167	27454
821.307	27469
821.447	27233
821.588	27074
821.728	27047
821.868	26838
822.008	26804
822.149	26708
822.289	26807
822.429	26404
822.569	26465
822.709	26305
822.849	26370
822.99	26176
823.13	26252
823.27	26180
823.41	26035
823.55	26096
823.69	26168
823.83	26005
823.97	25997
824.11	25902
824.25	25860
824.389	25917
824.529	25986
824.669	25833
824.809	25959
824.949	25947
825.089	25940
825.228	25997
825.368	25795
825.508	25723
825.648	25769
825.787	25784
825.927	25837
826.067	25799
826.206	25772
826.346	25928
826.485	25906
826.625	25753
826.765	25928
826.904	25670
827.044	25548
827.183	25491
827.323	25438
827.462	25499
827.601	25635
827.741	25563
827.88	25400
828.02	25346
828.159	25411
828.298	25445
828.437	25487
828.577	25491
828.716	25613
828.855	25483
828.994	25183
829.134	25126
829.273	25244
829.412	25213
829.551	25152
829.69	25152
829.829	25236
829.968	25324
830.107	25392
830.246	25202
830.385	25156
830.524	25091
830.663	24977
830.802	24996
830.941	24875
831.08	24787
831.219	24913
831.357	24882
831.496	25080
831.635	24848
831.774	24688
831.913	24650
832.051	24616
832.19	24631
832.329	24616
832.467	24479
832.606	24517
832.744	24376
832.883	24445
833.022	24353
833.16	24414
833.299	24479
833.437	24429
833.576	24483
833.714	24544
833.852	24502
833.991	24646
834.129	24604
834.267	24639
834.406	24555
834.544	24525
834.682	24642
834.821	24479
834.959	24684
835.097	24391
835.235	24532
835.373	24559
835.511	24585
835.65	24346
835.788	24490
835.926	24376
836.064	24129
836.202	24304
836.34	24254
836.478	24429
836.615	24357
836.753	24311
836.891	24429
837.029	24308
837.167	24262
837.305	24220
837.443	24251
837.58	24060
837.718	24144
837.856	24357
837.993	24117
838.131	24251
838.269	24114
838.406	24110
838.544	23969
838.681	23756
838.819	23840
838.956	23783
839.094	23699
839.231	23760
839.369	23958
839.506	23988
839.643	23980
839.781	23714
839.918	23691
840.055	23558
840.193	23703
840.33	23558
840.467	23535
840.604	23646
840.742	23878
840.879	23589
841.016	23406
841.153	23539
841.29	23695
841.427	23516
841.564	23649
841.701	23474
841.838	23562
841.975	23486
842.112	23337
842.249	23505
842.385	23261
842.522	23551
842.659	23318
842.796	23322
842.933	23341
843.069	23368
843.206	23307
843.343	23436
843.479	23280
843.616	23303
843.752	23010
843.889	23162
844.025	23288
844.162	23105
844.298	23155
844.435	23117
844.571	23018
844.708	23208
844.844	23318
844.98	23246
845.117	23090
845.253	23094
845.389	22938
845.525	23075
845.661	22915
845.798	22866
845.934	22831
846.07	22828
846.206	22812
846.342	23033
846.478	22881
846.614	22668
846.75	22531
846.886	22569
847.022	22656
847.158	22615
847.294	22637
847.429	22588
847.565	22519
847.701	22843
847.837	22337
847.972	22295
848.108	22371
848.244	22344
848.379	22177
848.515	22158
848.65	22143
848.786	22147
848.921	22219
849.057	22413
849.192	22268
849.328	22318
849.463	22246
849.598	22162
849.734	22078
849.869	21903
850.004	21842
850.14	21979
850.275	22036
850.41	21873
850.545	21873
850.68	21876
850.815	22025
850.95	21895
851.085	22181
851.22	22070
851.355	22048
851.49	21915
851.625	21816
851.76	21857
851.895	21720
852.03	21884
852.165	21892
852.299	21991
852.434	21869
852.569	22021
852.703	22048
852.838	22036
852.973	22116
853.107	22097
853.242	21873
853.376	21804
853.511	21724
853.645	21766
853.78	21842
853.914	21644
854.048	21686
854.183	21720
854.317	21842
854.451	21876
854.585	21774
854.72	21701
854.854	21880
854.988	21698
855.122	21694
855.256	21656
855.39	21538
855.524	21835
855.658	21747
855.792	21831
855.926	21732
856.06	21819
856.194	21888
856.327	21701
856.461	21724
856.595	21641
856.729	21637
856.862	21964
856.996	21854
857.13	21895
857.263	21968
857.397	21728
857.53	21701
857.664	21831
857.797	21781
857.931	21895
858.064	21736
858.197	21835
858.331	21762
858.464	21755
858.597	21561
858.731	21641
858.864	21705
858.997	21667
859.13	21781
859.263	21774
859.396	21797
859.529	21728
859.662	21701
859.795	21747
859.928	21797
860.061	21941
860.194	22032
860.327	21800
860.46	21751
860.592	21819
860.725	21876
860.858	21960
860.99	21892
861.123	21682
861.256	21800
861.388	21747
861.521	22367
861.653	21610
861.786	21595
861.918	21618
862.05	21667
862.183	21686
862.315	21739
862.447	21682
862.58	21701
862.712	21431
862.844	21367
862.976	21606
863.108	21492
863.24	21854
863.372	21454
863.504	21488
863.636	21595
863.768	21477
863.9	21473
864.032	21530
864.164	21382
864.296	21473
864.428	21633
864.559	21431
864.691	21568
864.823	21447
864.954	21450
865.086	21428
865.217	21260
865.349	21336
865.48	21462
865.612	21310
865.743	21386
865.875	21340
866.006	21199
866.137	21245
866.269	21298
866.4	21431
866.531	21249
866.662	21256
866.793	21252
866.924	21416
867.055	21310
867.186	21321
867.317	21173
867.448	21100
867.579	21207
867.71	21176
867.841	21264
867.972	21287
868.103	21275
868.233	21363
868.364	21306
868.495	21420
868.625	21450
868.756	21538
868.886	21515
869.017	21363
869.147	21572
869.278	21515
869.408	21447
869.539	21542
869.669	21633
869.799	21458
869.929	21614
870.06	21648
870.19	21709
870.32	21842
870.45	21873
870.58	21915
870.71	22025
870.84	21983
870.97	21861
871.1	21972
871.23	21998
871.36	22013
871.489	22055
871.619	22048
871.749	22120
871.879	22249
872.008	22226
872.138	22158
872.267	22116
872.397	21991
872.526	21892
872.656	22048
872.785	21972
872.915	22143
873.044	22230
873.173	22200
873.303	22112
873.432	22257
873.561	22284
873.69	22238
873.819	22166
873.948	22207
874.077	22090
874.206	22131
874.335	22051
874.464	22314
874.593	22402
874.722	22394
874.851	22405
874.979	22367
875.108	22303
875.237	22284
875.365	22249
875.494	22382
875.623	22375
875.751	22329
875.88	22356
876.008	22508
876.136	22565
876.265	22649
876.393	22904
876.521	22900
876.65	22672
876.778	22710
876.906	22656
877.034	22649
877.162	22733
877.29	22569
877.418	22713
877.546	22748
877.674	22565
877.802	22626
877.93	22713
878.058	22687
878.185	22622
878.313	22634
878.441	22637
878.568	22455
878.696	22565
878.824	22771
878.951	22767
879.079	22797
879.206	23048
879.333	22854
879.461	22736
879.588	22687
879.715	22938
879.842	23098
879.97	22816
880.097	22577
880.224	22535
880.351	22554
880.478	22569
880.605	22519
880.732	22478
880.859	22736
880.986	22596
881.112	22504
881.239	22272
881.366	22284
881.493	22169
881.619	22044
881.746	22040
881.872	22124
881.999	22044
882.125	21998
882.252	22086
882.378	21968
882.505	22188
882.631	21983
882.757	21804
882.883	21827
883.01	21907
883.136	21759
883.262	21641
883.388	21736
883.514	21743
883.64	21899
883.766	21606
883.892	21564
884.018	21633
884.143	21686
884.269	21713
884.395	21614
884.52	21397
884.646	21386
884.772	21245
884.897	21382
885.023	21504
885.148	21595
885.274	21561
885.399	21523
885.524	21458
885.65	21454
885.775	21450
885.9	21412
886.025	21599
886.15	21542
886.275	21397
886.4	21420
886.525	21435
886.65	21367
886.775	21260
886.9	21488
887.025	21545
887.149	21344
887.274	21226
887.399	21245
887.523	21325
887.648	21214
887.773	20990
887.897	21214
888.021	21272
888.146	21127
888.27	21294
888.395	21306
888.519	21218
888.643	21264
888.767	21241
888.891	21055
889.015	20914
889.139	21112
889.263	21051
889.387	21119
889.511	21317
889.635	21146
889.759	20998
889.883	21123
890.006	20845
890.13	21131
890.254	20883
890.377	20979
890.501	20712
890.624	20621
890.748	20823
890.871	20731
890.995	20598
891.118	20552
891.241	20606
891.364	20659
891.488	20796
891.611	20545
891.734	20625
891.857	20533
891.98	20594
892.103	20541
892.226	20651
892.349	20526
892.471	20400
892.594	20526
892.717	20511
892.839	20374
892.962	20708
893.085	20450
893.207	20556
893.33	20461
893.452	20374
893.575	20583
893.697	20374
893.819	20617
893.941	20564
894.064	20663
894.186	20518
894.308	20461
894.43	20488
894.552	20625
894.674	20503
894.796	20328
894.918	20446
895.04	20358
895.161	20511
895.283	20499
895.405	20404
895.526	20476
895.648	20484
895.769	20400
895.891	20465
896.012	20514
896.134	20454
896.255	20564
896.376	20385
896.498	20343
896.619	20465
896.74	20434
896.861	20492
896.982	20743
897.103	20819
897.224	20727
897.345	20678
897.466	20606
897.587	20731
897.708	20743
897.828	20693
897.949	20636
898.07	20469
898.19	20613
898.311	20792
898.431	20549
898.552	20792
898.672	20655
898.792	20674
898.913	20777
899.033	20541
899.153	20343
899.273	20362
899.393	20385
899.513	20476
899.633	20518
899.753	20339
899.873	20385
899.993	20499
900.113	20305
900.232	20332
900.352	20362
900.472	20195
900.591	20324
900.711	20229
900.83	19993
900.95	20229
901.069	20294
901.189	20054
901.308	19856
901.427	19742
901.546	19746
901.665	19837
901.784	19689
901.904	19548
902.023	19540
902.141	19278
902.26	19312
902.379	19426
902.498	19225
902.617	19145
902.735	19377
902.854	19255
902.973	19228
903.091	18973
903.21	19042
903.328	18840
903.446	18837
903.565	18604
903.683	18741
903.801	18620
903.919	18646
904.038	18738
904.156	18608
904.274	18559
904.392	18460
904.51	18486
904.627	18517
904.745	18521
904.863	18445
904.981	18209
905.098	18110
905.216	18148
905.334	18174
905.451	18251
905.569	18251
905.686	18273
905.803	18125
905.921	18019
906.038	18060
906.155	18007
906.272	17897
906.389	17992
906.506	17805
906.623	17718
906.74	17623
906.857	17535
906.974	17649
907.091	17794
907.208	17813
907.324	17718
907.441	17634
907.557	17509
907.674	17436
907.79	17379
907.907	17280
908.023	17509
908.139	17471
908.256	17345
908.372	17258
908.488	17307
908.604	17193
908.72	17105
908.836	17193
908.952	17128
909.068	17208
909.184	17254
909.3	17071
909.415	17197
909.531	17079
909.647	16896
909.762	16930
909.878	16812
909.993	16877
910.108	16759
910.224	16843
910.339	16793
910.454	16668
910.57	16626
910.685	16622
910.8	16885
910.915	16831
911.03	16558
911.145	16542
911.259	16485
911.374	16462
911.489	16356
911.604	16246
911.718	16162
911.833	16166
911.947	16162
912.062	16013
912.176	16059
912.291	16204
912.405	16120
912.519	16382
912.633	16356
912.748	16196
912.862	16101
912.976	16029
913.09	15812
913.204	15998
913.318	15991
913.431	16063
913.545	15960
913.659	16086
913.772	15937
913.886	15835
914	15766
914.113	15930
914.226	15869
914.34	15884
914.453	15720
914.566	15766
914.68	15694
914.793	15698
914.906	15504
915.019	15344
915.132	15424
915.245	15363
915.358	15386
915.47	15416
915.583	15329
915.696	15458
915.809	15477
915.921	15637
916.034	15332
916.146	15317
916.259	15382
916.371	15389
916.483	15329
916.595	15203
916.708	15211
916.82	15169
916.932	15188
917.044	15184
917.156	15157
917.268	15089
917.38	15081
917.491	14899
917.603	15005
917.715	15146
917.826	15097
917.938	14921
918.049	14910
918.161	14971
918.272	15070
918.384	15039
918.495	15017
918.606	14796
918.717	14739
918.828	14769
918.939	14735
919.05	14682
919.161	14754
919.272	14568
919.383	14579
919.494	14823
919.604	14986
919.715	14804
919.826	14705
919.936	14686
920.047	14731
920.157	14769
920.267	14979
920.378	14720
920.488	14689
920.598	14838
920.708	14906
920.818	14914
920.928	14804
921.038	14944
921.148	14982
921.258	14720
921.368	14667
921.477	14488
921.587	14488
921.697	14328
921.806	14404
921.916	14218
922.025	14176
922.134	14027
922.244	13993
922.353	14103
922.462	13928
922.571	13830
922.68	13856
922.789	13795
922.898	13750
923.007	13632
923.116	13708
923.224	13693
923.333	13723
923.442	13563
923.55	13480
923.659	13666
923.767	13700
923.876	13548
923.984	13518
924.092	13464
924.201	13457
924.309	13453
924.417	13567
924.525	13346
924.633	13377
924.741	14221
924.849	13232
924.956	13297
925.064	13228
925.172	13114
925.279	13118
925.387	13179
925.494	13084
925.602	13232
925.709	13145
925.816	13080
925.924	13179
926.031	13171
926.138	13023
926.245	13095
926.352	12996
926.459	13110
926.566	13213
926.673	13008
926.779	12951
926.886	12901
926.993	12802
927.099	12703
927.206	12684
927.312	12566
927.419	12760
927.525	12741
927.631	12715
927.737	12627
927.843	12490
927.95	12429
928.056	12597
928.162	12570
928.267	12570
928.373	12981
928.479	12517
928.585	12327
928.69	12517
928.796	12475
928.901	12422
929.007	12228
929.112	12304
929.218	12304
929.323	12296
929.428	12239
929.533	12380
929.638	12186
929.743	12281
929.848	12281
929.953	12182
930.058	11988
930.163	11946
930.267	11935
930.372	12019
930.477	11893
930.581	12083
930.685	12015
930.79	11901
930.894	11946
930.998	11809
931.103	11939
931.207	11592
931.311	11429
931.415	11452
931.519	11178
931.623	11178
