Data from test_V78500241_1885.txt Node
Date: Fri Mar 25 15:22:58 CST 2022
User: usil
Spectrometer: V785-0024
Trigger mode: 0
Integration Time (sec): 4.000000E-1
Scans to average: 1
Nonlinearity correction enabled: false
Boxcar width: 0
Storing dark spectrum: false
XAxis mode: Wavelengths
Number of Pixels in Spectrum: 1024
>>>>>Begin Spectral Data<<<<<
801.071	27941
801.214	27793
801.356	27553
801.499	27466
801.641	27424
801.783	27439
801.926	27382
802.068	27420
802.211	27431
802.353	27218
802.496	27211
802.638	26982
802.78	26986
802.923	27093
803.065	27024
803.208	26940
803.35	27009
803.492	27165
803.635	27043
803.777	27112
803.919	27310
804.061	27515
804.204	27306
804.346	27173
804.488	26963
804.63	27192
804.773	27017
804.915	27226
805.057	27165
805.199	27146
805.341	27340
805.483	27420
805.626	27237
805.768	27188
805.91	27332
806.052	27454
806.194	27127
806.336	27538
806.478	27427
806.62	27291
806.762	27454
806.904	27530
807.046	27656
807.188	27873
807.33	27736
807.472	27816
807.614	27660
807.756	27698
807.898	27819
808.04	27614
808.182	27622
808.324	27686
808.465	27633
808.607	27774
808.749	28021
808.891	28032
809.033	28097
809.174	28101
809.316	28063
809.458	27846
809.6	27998
809.741	28048
809.883	28040
810.025	28291
810.166	28356
810.308	28329
810.45	28067
810.591	28078
810.733	27846
810.875	27922
811.016	27724
811.158	27823
811.299	28150
811.441	28116
811.582	28036
811.724	27953
811.865	27880
812.007	27854
812.148	28013
812.29	27991
812.431	28124
812.573	28295
812.714	28394
812.855	28447
812.997	28519
813.138	28725
813.279	28588
813.421	28436
813.562	28421
813.703	28371
813.845	28185
813.986	27937
814.127	27827
814.268	27762
814.41	27747
814.551	27675
814.692	27720
814.833	27549
814.974	27641
815.115	27553
815.256	27447
815.397	27610
815.539	27515
815.68	27485
815.821	27382
815.962	27500
816.103	27386
816.244	27310
816.385	27317
816.526	27199
816.666	27119
816.807	26861
816.948	27032
817.089	27100
817.23	26891
817.371	26963
817.512	27009
817.653	26925
817.793	26906
817.934	26906
818.075	26834
818.216	27039
818.356	26956
818.497	26887
818.638	26651
818.778	26606
818.919	26655
819.06	26807
819.2	26739
819.341	26861
819.481	26967
819.622	27081
819.762	27211
819.903	27211
820.043	27096
820.184	27058
820.324	27024
820.465	27036
820.605	27077
820.746	26960
820.886	26910
821.026	26937
821.167	27009
821.307	26929
821.447	27024
821.588	26918
821.728	26781
821.868	26617
822.008	26522
822.149	26408
822.289	26377
822.429	26096
822.569	26054
822.709	26134
822.849	25997
822.99	25913
823.13	25795
823.27	25887
823.41	25674
823.55	25518
823.69	25674
823.83	25742
823.97	25734
824.11	25582
824.25	25457
824.389	25453
824.529	25620
824.669	25575
824.809	25685
824.949	25685
825.089	25605
825.228	25575
825.368	25350
825.508	25388
825.648	25491
825.787	25491
825.927	25529
826.067	25487
826.206	25483
826.346	25384
826.485	25464
826.625	25373
826.765	25540
826.904	25556
827.044	25179
827.183	25327
827.323	25343
827.462	25384
827.601	25168
827.741	25263
827.88	25160
828.02	25091
828.159	25179
828.298	25133
828.437	25225
828.577	25042
828.716	25278
828.855	25061
828.994	25000
829.134	24783
829.273	24985
829.412	24791
829.551	24875
829.69	24783
829.829	24814
829.968	24951
830.107	24981
830.246	24738
830.385	24821
830.524	24707
830.663	24623
830.802	24620
830.941	24433
831.08	24330
831.219	24597
831.357	24547
831.496	24661
831.635	24494
831.774	24380
831.913	24410
832.051	24167
832.19	24346
832.329	24216
832.467	24235
832.606	24133
832.744	24110
832.883	24186
833.022	24114
833.16	24163
833.299	24129
833.437	24319
833.576	24251
833.714	24155
833.852	24323
833.991	24220
834.129	24319
834.267	24315
834.406	24300
834.544	24323
834.682	24251
834.821	24201
834.959	24327
835.097	24171
835.235	24152
835.373	24194
835.511	24342
835.65	24102
835.788	23939
835.926	23950
836.064	23775
836.202	23958
836.34	24026
836.478	24159
836.615	24110
836.753	24053
836.891	24064
837.029	24011
837.167	23996
837.305	23965
837.443	24072
837.58	23805
837.718	24079
837.856	23832
837.993	23950
838.131	23840
838.269	23798
838.406	23836
838.544	23741
838.681	23566
838.819	23646
838.956	23345
839.094	23376
839.231	23429
839.369	23665
839.506	23722
839.643	23558
839.781	23417
839.918	23277
840.055	23448
840.193	23372
840.33	23254
840.467	23376
840.604	23368
840.742	23501
840.879	23079
841.016	23277
841.153	23189
841.29	23303
841.427	23280
841.564	23307
841.701	23330
841.838	23277
841.975	23094
842.112	23246
842.249	23098
842.385	23006
842.522	23235
842.659	23041
842.796	22999
842.933	23037
843.069	22942
843.206	22900
843.343	23155
843.479	23052
843.616	23044
843.752	22831
843.889	22923
844.025	23105
844.162	22797
844.298	22896
844.435	22786
844.571	22896
844.708	22843
844.844	23041
844.98	22987
845.117	22999
845.253	22755
845.389	22710
845.525	22812
845.661	22706
845.798	22470
845.934	22592
846.07	22546
846.206	22497
846.342	22782
846.478	22542
846.614	22318
846.75	22272
846.886	22348
847.022	22337
847.158	22379
847.294	22360
847.429	22322
847.565	22382
847.701	22546
847.837	22059
847.972	22177
848.108	22128
848.244	22055
848.379	21968
848.515	21812
848.65	21831
848.786	21842
848.921	21857
849.057	21979
849.192	22048
849.328	21835
849.463	21915
849.598	21816
849.734	21823
849.869	21637
850.004	21576
850.14	21724
850.275	21576
850.41	21625
850.545	21618
850.68	21576
850.815	21675
850.95	21827
851.085	21888
851.22	21701
851.355	21690
851.49	21717
851.625	21686
851.76	21580
851.895	21599
852.03	21625
852.165	21557
852.299	21561
852.434	21656
852.569	21660
852.703	21701
852.838	21606
852.973	21686
853.107	21892
853.242	21553
853.376	21496
853.511	21382
853.645	21302
853.78	21591
853.914	21523
854.048	21462
854.183	21572
854.317	21488
854.451	21690
854.585	21500
854.72	21492
854.854	21587
854.988	21351
855.122	21523
855.256	21431
855.39	21473
855.524	21591
855.658	21526
855.792	21469
855.926	21580
856.06	21572
856.194	21496
856.327	21477
856.461	21504
856.595	21351
856.729	21492
856.862	21610
856.996	21629
857.13	21534
857.263	21542
857.397	21515
857.53	21389
857.664	21511
857.797	21595
857.931	21504
858.064	21511
858.197	21572
858.331	21469
858.464	21428
858.597	21393
858.731	21439
858.864	21351
858.997	21443
859.13	21511
859.263	21473
859.396	21713
859.529	21443
859.662	21488
859.795	21420
859.928	21454
860.061	21610
860.194	21561
860.327	21492
860.46	21545
860.592	21572
860.725	21633
860.858	21553
860.99	21412
861.123	21435
861.256	21420
861.388	21549
861.521	22211
861.653	21332
861.786	21256
861.918	21279
862.05	21412
862.183	21439
862.315	21424
862.447	21405
862.58	21367
862.712	21287
862.844	21123
862.976	21230
863.108	21207
863.24	21633
863.372	21077
863.504	21150
863.636	21214
863.768	21184
863.9	21199
864.032	21085
864.164	21070
864.296	21180
864.428	21313
864.559	21188
864.691	21370
864.823	21096
864.954	21211
865.086	21127
865.217	21119
865.349	20899
865.48	21074
865.612	21077
865.743	21199
865.875	21051
866.006	20967
866.137	21112
866.269	21104
866.4	20956
866.531	20960
866.662	20986
866.793	21077
866.924	20971
867.055	21028
867.186	21089
867.317	21055
867.448	20921
867.579	21055
867.71	20921
867.841	20960
867.972	20979
868.103	20979
868.233	21020
868.364	21020
868.495	21131
868.625	21211
868.756	21241
868.886	21066
869.017	21298
869.147	21313
869.278	21367
869.408	21260
869.539	21294
869.669	21321
869.799	21256
869.929	21435
870.06	21275
870.19	21599
870.32	21523
870.45	21576
870.58	21587
870.71	21698
870.84	21709
870.97	21732
871.1	21641
871.23	21739
871.36	21899
871.489	21812
871.619	21861
871.749	21797
871.879	21953
872.008	21915
872.138	21743
872.267	21899
872.397	21766
872.526	21637
872.656	21667
872.785	21713
872.915	21842
873.044	21918
873.173	21842
873.303	21895
873.432	21770
873.561	21899
873.69	21888
873.819	21846
873.948	21732
874.077	21975
874.206	21823
874.335	21819
874.464	21926
874.593	22109
874.722	22086
874.851	22109
874.979	22120
875.108	22036
875.237	22044
875.365	22048
875.494	22025
875.623	22207
875.751	21975
875.88	22139
876.008	22173
876.136	22352
876.265	22470
876.393	22622
876.521	22538
876.65	22634
876.778	22519
876.906	22371
877.034	22462
877.162	22493
877.29	22417
877.418	22497
877.546	22447
877.674	22371
877.802	22386
877.93	22348
878.058	22382
878.185	22341
878.313	22344
878.441	22329
878.568	22219
878.696	22356
878.824	22554
878.951	22481
879.079	22622
879.206	22653
879.333	22634
879.461	22485
879.588	22542
879.715	22641
879.842	22679
879.97	22436
880.097	22318
880.224	22200
880.351	22276
880.478	22291
880.605	22284
880.732	22310
880.859	22519
880.986	22177
881.112	22306
881.239	22070
881.366	22090
881.493	21861
881.619	21949
881.746	21732
881.872	21800
881.999	21781
882.125	21827
882.252	21979
882.378	21713
882.505	21842
882.631	21789
882.757	21545
882.883	21709
883.01	21599
883.136	21405
883.262	21466
883.388	21397
883.514	21637
883.64	21519
883.766	21428
883.892	21256
884.018	21401
884.143	21424
884.269	21564
884.395	21272
884.52	21150
884.646	21104
884.772	21142
884.897	21036
885.023	21089
885.148	21237
885.274	21332
885.399	21218
885.524	21066
885.65	21207
885.775	21173
885.9	21188
886.025	21344
886.15	21203
886.275	21127
886.4	21062
886.525	21070
886.65	21013
886.775	21051
886.9	21268
887.025	21344
887.149	21062
887.274	20975
887.399	20979
887.523	20796
887.648	20910
887.773	20765
887.897	21036
888.021	20998
888.146	20815
888.27	21020
888.395	21062
888.519	20982
888.643	20937
888.767	20788
888.891	20918
889.015	20701
889.139	20800
889.263	20682
889.387	20815
889.511	20960
889.635	20861
889.759	20724
889.883	20625
890.006	20689
890.13	20868
890.254	20716
890.377	20697
890.501	20640
890.624	20408
890.748	20511
890.871	20415
890.995	20278
891.118	20191
891.241	20290
891.364	20339
891.488	20404
891.611	20294
891.734	20332
891.857	20374
891.98	20351
892.103	20427
892.226	20237
892.349	20233
892.471	20153
892.594	20214
892.717	20324
892.839	20221
892.962	20180
893.085	20278
893.207	20210
893.33	20111
893.452	20176
893.575	20320
893.697	20305
893.819	20298
893.941	20381
894.064	20351
894.186	20252
894.308	20206
894.43	20427
894.552	20343
894.674	20358
894.796	20168
894.918	20187
895.04	20233
895.161	20336
895.283	20267
895.405	20233
895.526	20259
895.648	20271
895.769	20267
895.891	20187
896.012	20294
896.134	20286
896.255	20313
896.376	20237
896.498	20282
896.619	20202
896.74	20138
896.861	20176
896.982	20598
897.103	20564
897.224	20469
897.345	20442
897.466	20461
897.587	20396
897.708	20541
897.828	20492
897.949	20370
898.07	20374
898.19	20320
898.311	20560
898.431	20278
898.552	20450
898.672	20320
898.792	20594
898.913	20408
899.033	20332
899.153	20210
899.273	20073
899.393	20195
899.513	20180
899.633	20229
899.753	20229
899.873	20134
899.993	20271
900.113	20058
900.232	20138
900.352	20031
900.472	20145
900.591	19898
900.711	19909
900.83	20001
900.95	20111
901.069	20012
901.189	19860
901.308	19616
901.427	19502
901.546	19529
901.665	19597
901.784	19502
901.904	19468
902.023	19327
902.141	19171
902.26	19023
902.379	19122
902.498	19042
902.617	18970
902.735	19061
902.854	18962
902.973	18958
903.091	18760
903.21	18696
903.328	18852
903.446	18627
903.565	18525
903.683	18582
903.801	18342
903.919	18486
904.038	18445
904.156	18270
904.274	18441
904.392	18254
904.51	18315
904.627	18239
904.745	18327
904.863	18277
904.981	18038
905.098	17878
905.216	18057
905.334	17980
905.451	17950
905.569	17855
905.686	18019
905.803	17882
905.921	17707
906.038	17836
906.155	17733
906.272	17657
906.389	17714
906.506	17391
906.623	17554
906.74	17516
906.857	17395
906.974	17429
907.091	17547
907.208	17570
907.324	17512
907.441	17398
907.557	17200
907.674	17269
907.79	17265
907.907	17105
908.023	17311
908.139	17254
908.256	17124
908.372	17143
908.488	17025
908.604	16949
908.72	16934
908.836	16999
908.952	16889
909.068	16976
909.184	16961
909.3	16835
909.415	16934
909.531	16938
909.647	16729
909.762	16653
909.878	16577
909.993	16645
910.108	16694
910.224	16573
910.339	16565
910.454	16607
910.57	16481
910.685	16337
910.8	16519
910.915	16736
911.03	16344
911.145	16223
911.259	16329
911.374	16303
911.489	16143
911.604	16086
911.718	15888
911.833	16036
911.947	15762
912.062	15812
912.176	15979
912.291	15941
912.405	15880
912.519	16112
912.633	16200
912.748	15994
912.862	15880
912.976	15835
913.09	15698
913.204	15698
913.318	15751
913.431	15934
913.545	15953
913.659	15911
913.772	15762
913.886	15622
914	15519
914.113	15595
914.226	15774
914.34	15644
914.453	15454
914.566	15652
914.68	15538
914.793	15462
914.906	15230
915.019	15142
915.132	15275
915.245	15275
915.358	15329
915.47	15161
915.583	15245
915.696	15237
915.809	15325
915.921	15348
916.034	15127
916.146	15074
916.259	15001
916.371	15260
916.483	15039
916.595	15013
916.708	14975
916.82	15013
916.932	14975
917.044	15051
917.156	14982
917.268	14857
917.38	14853
917.491	14701
917.603	14918
917.715	14895
917.826	14796
917.938	14796
918.049	14724
918.161	14746
918.272	14948
918.384	14921
918.495	14804
918.606	14583
918.717	14450
918.828	14549
918.939	14644
919.05	14526
919.161	14610
919.272	14408
919.383	14408
919.494	14613
919.604	14743
919.715	14480
919.826	14522
919.936	14537
920.047	14598
920.157	14644
920.267	14792
920.378	14526
920.488	14507
920.598	14697
920.708	14826
920.818	14682
920.928	14724
921.038	14800
921.148	14823
921.258	14564
921.368	14446
921.477	14267
921.587	14244
921.697	14176
921.806	14355
921.916	14161
922.025	14107
922.134	13963
922.244	13852
922.353	13925
922.462	13784
922.571	13826
922.68	13685
922.789	13597
922.898	13594
923.007	13525
923.116	13651
923.224	13567
923.333	13518
923.442	13438
923.55	13335
923.659	13521
923.767	13445
923.876	13415
923.984	13457
924.092	13358
924.201	13396
924.309	13324
924.417	13308
924.525	13240
924.633	13308
924.741	14134
924.849	13019
924.956	13213
925.064	13034
925.172	12924
925.279	12989
925.387	13050
925.494	12985
925.602	13091
925.709	13034
925.816	12947
925.924	12935
926.031	12954
926.138	12954
926.245	12981
926.352	12787
926.459	12966
926.566	13053
926.673	12749
926.779	12696
926.886	12684
926.993	12502
927.099	12585
927.206	12490
927.312	12467
927.419	12540
927.525	12544
927.631	12525
927.737	12483
927.843	12395
927.95	12289
928.056	12361
928.162	12369
928.267	12361
928.373	12970
928.479	12380
928.585	12232
928.69	12346
928.796	12384
928.901	12228
929.007	12060
929.112	12247
929.218	12144
929.323	12163
929.428	12087
929.533	12311
929.638	12022
929.743	12060
929.848	12110
929.953	12060
930.058	11980
930.163	11855
930.267	11832
930.372	11965
930.477	11737
930.581	11942
930.685	11760
930.79	11703
930.894	11695
930.998	11661
931.103	11832
931.207	11429
931.311	11372
931.415	11288
931.519	11121
931.623	10999
