Data from test_V78500241_2698.txt Node
Date: Fri Mar 25 15:28:38 CST 2022
User: usil
Spectrometer: V785-0024
Trigger mode: 0
Integration Time (sec): 4.000000E-1
Scans to average: 1
Nonlinearity correction enabled: false
Boxcar width: 0
Storing dark spectrum: false
XAxis mode: Wavelengths
Number of Pixels in Spectrum: 1024
>>>>>Begin Spectral Data<<<<<
801.071	27024
801.214	26933
801.356	26632
801.499	26602
801.641	26629
801.783	26393
801.926	26625
802.068	26530
802.211	26469
802.353	26366
802.496	26385
802.638	26157
802.78	26122
802.923	26271
803.065	26077
803.208	26130
803.35	26271
803.492	26168
803.635	26408
803.777	26210
803.919	26282
804.061	26564
804.204	26351
804.346	26309
804.488	26248
804.63	26240
804.773	26084
804.915	26377
805.057	26419
805.199	26225
805.341	26305
805.483	26431
805.626	26377
805.768	26309
805.91	26404
806.052	26396
806.194	26362
806.336	26499
806.478	26541
806.62	26450
806.762	26518
806.904	26632
807.046	26887
807.188	26857
807.33	26819
807.472	26960
807.614	26781
807.756	26792
807.898	26651
808.04	26792
808.182	26667
808.324	26758
808.465	26651
808.607	26804
808.749	27055
808.891	27104
809.033	27135
809.174	27062
809.316	26921
809.458	26914
809.6	26887
809.741	27028
809.883	27085
810.025	27249
810.166	27218
810.308	27264
810.45	27283
810.591	27302
810.733	27039
810.875	26868
811.016	26891
811.158	26933
811.299	27154
811.441	27161
811.582	27222
811.724	27051
811.865	26883
812.007	26895
812.148	26891
812.29	26994
812.431	27062
812.573	27317
812.714	27344
812.855	27439
812.997	27538
813.138	27682
813.279	27762
813.421	27534
813.562	27561
813.703	27332
813.845	27169
813.986	26876
814.127	26667
814.268	26640
814.41	26701
814.551	26613
814.692	26701
814.833	26716
814.974	26632
815.115	26609
815.256	26575
815.397	26541
815.539	26587
815.68	26286
815.821	26282
815.962	26317
816.103	26343
816.244	26248
816.385	26248
816.526	26092
816.666	25978
816.807	25864
816.948	25951
817.089	26050
817.23	25932
817.371	25875
817.512	25936
817.653	25944
817.793	25780
817.934	25845
818.075	26005
818.216	26001
818.356	25814
818.497	25788
818.638	25529
818.778	25651
818.919	25624
819.06	25674
819.2	25871
819.341	25852
819.481	25902
819.622	26035
819.762	26267
819.903	26134
820.043	25997
820.184	26039
820.324	25940
820.465	26084
820.605	26001
820.746	26024
820.886	25868
821.026	25841
821.167	25902
821.307	25913
821.447	25849
821.588	25784
821.728	25693
821.868	25563
822.008	25400
822.149	25449
822.289	25327
822.429	25076
822.569	25141
822.709	25012
822.849	24977
822.99	24791
823.13	24806
823.27	24760
823.41	24776
823.55	24528
823.69	24760
823.83	24779
823.97	24639
824.11	24517
824.25	24471
824.389	24429
824.529	24555
824.669	24448
824.809	24547
824.949	24464
825.089	24452
825.228	24555
825.368	24254
825.508	24213
825.648	24353
825.787	24422
825.927	24319
826.067	24270
826.206	24342
826.346	24410
826.485	24566
826.625	24437
826.765	24574
826.904	24426
827.044	24205
827.183	24060
827.323	24060
827.462	24045
827.601	24125
827.741	24213
827.88	24133
828.02	23878
828.159	23961
828.298	24064
828.437	24190
828.577	24064
828.716	24083
828.855	23980
828.994	23752
829.134	23813
829.273	23874
829.412	23691
829.551	23646
829.69	23722
829.829	23672
829.968	23927
830.107	23980
830.246	23779
830.385	23627
830.524	23714
830.663	23524
830.802	23653
830.941	23649
831.08	23379
831.219	23493
831.357	23486
831.496	23707
831.635	23425
831.774	23273
831.913	23181
832.051	23216
832.19	23128
832.329	23284
832.467	23083
832.606	22968
832.744	22938
832.883	23010
833.022	23044
833.16	23022
833.299	23075
833.437	22984
833.576	23090
833.714	23212
833.852	23193
833.991	23200
834.129	23280
834.267	23220
834.406	23143
834.544	23181
834.682	23090
834.821	23220
834.959	23353
835.097	23155
835.235	23239
835.373	23124
835.511	23178
835.65	22987
835.788	22942
835.926	22835
836.064	22748
836.202	22778
836.34	22968
836.478	22953
836.615	22877
836.753	22987
836.891	23083
837.029	23105
837.167	22892
837.305	22847
837.443	22763
837.58	22904
837.718	22919
837.856	22957
837.993	22805
838.131	22622
838.269	22797
838.406	22767
838.544	22664
838.681	22504
838.819	22561
838.956	22428
839.094	22379
839.231	22443
839.369	22554
839.506	22668
839.643	22432
839.781	22211
839.918	22253
840.055	22322
840.193	22310
840.33	22337
840.467	22257
840.604	22192
840.742	22538
840.879	22265
841.016	22295
841.153	22154
841.29	22238
841.427	22310
841.564	22196
841.701	22192
841.838	22135
841.975	22154
842.112	22154
842.249	22143
842.385	22124
842.522	22344
842.659	22234
842.796	22044
842.933	21960
843.069	21797
843.206	21869
843.343	22082
843.479	22017
843.616	22131
843.752	21835
843.889	21827
844.025	21884
844.162	21770
844.298	21903
844.435	21682
844.571	21732
844.708	21717
844.844	21831
844.98	21994
845.117	21816
845.253	21656
845.389	21580
845.525	21728
845.661	21580
845.798	21530
845.934	21603
846.07	21424
846.206	21576
846.342	21568
846.478	21580
846.614	21386
846.75	21218
846.886	21165
847.022	21370
847.158	21397
847.294	21294
847.429	21428
847.565	21355
847.701	21416
847.837	20960
847.972	20944
848.108	21089
848.244	21051
848.379	20834
848.515	20887
848.65	20842
848.786	20796
848.921	20925
849.057	21009
849.192	20925
849.328	20990
849.463	20941
849.598	20826
849.734	20781
849.869	20735
850.004	20648
850.14	20659
850.275	20594
850.41	20514
850.545	20590
850.68	20579
850.815	20674
850.95	20488
851.085	20800
851.22	20758
851.355	20735
851.49	20606
851.625	20526
851.76	20549
851.895	20659
852.03	20495
852.165	20613
852.299	20788
852.434	20727
852.569	20606
852.703	20746
852.838	20659
852.973	20720
853.107	20686
853.242	20587
853.376	20454
853.511	20396
853.645	20419
853.78	20594
853.914	20415
854.048	20423
854.183	20480
854.317	20473
854.451	20705
854.585	20457
854.72	20454
854.854	20488
854.988	20457
855.122	20518
855.256	20355
855.39	20461
855.524	20533
855.658	20484
855.792	20473
855.926	20374
856.06	20484
856.194	20575
856.327	20267
856.461	20427
856.595	20404
856.729	20358
856.862	20492
856.996	20427
857.13	20434
857.263	20446
857.397	20549
857.53	20385
857.664	20530
857.797	20514
857.931	20568
858.064	20427
858.197	20507
858.331	20514
858.464	20317
858.597	20370
858.731	20434
858.864	20438
858.997	20511
859.13	20507
859.263	20355
859.396	20484
859.529	20400
859.662	20385
859.795	20328
859.928	20419
860.061	20552
860.194	20659
860.327	20427
860.46	20522
860.592	20461
860.725	20705
860.858	20644
860.99	20381
861.123	20355
861.256	20503
861.388	20412
861.521	21001
861.653	20328
861.786	20248
861.918	20256
862.05	20267
862.183	20434
862.315	20377
862.447	20541
862.58	20419
862.712	20233
862.844	20191
862.976	20218
863.108	20119
863.24	20579
863.372	20145
863.504	20081
863.636	20176
863.768	20187
863.9	20092
864.032	20046
864.164	20126
864.296	20100
864.428	20320
864.559	20199
864.691	20256
864.823	20259
864.954	20168
865.086	20157
865.217	19947
865.349	20115
865.48	19993
865.612	20126
865.743	20233
865.875	20054
866.006	19989
866.137	20115
866.269	20145
866.4	20035
866.531	19947
866.662	20058
866.793	20062
866.924	19993
867.055	20050
867.186	20001
867.317	19978
867.448	19959
867.579	20031
867.71	19932
867.841	19932
867.972	20027
868.103	20039
868.233	19967
868.364	20058
868.495	20058
868.625	20271
868.756	20278
868.886	20191
869.017	20248
869.147	20400
869.278	20301
869.408	20161
869.539	20199
869.669	20404
869.799	20320
869.929	20431
870.06	20366
870.19	20533
870.32	20579
870.45	20556
870.58	20689
870.71	20880
870.84	20731
870.97	20689
871.1	20617
871.23	20906
871.36	20834
871.489	20826
871.619	20788
871.749	20804
871.879	20956
872.008	21024
872.138	20777
872.267	20834
872.397	20693
872.526	20617
872.656	20716
872.785	20609
872.915	20872
873.044	21005
873.173	20845
873.303	20887
873.432	20979
873.561	20933
873.69	20895
873.819	20838
873.948	21001
874.077	20921
874.206	20792
874.335	20933
874.464	21043
874.593	21176
874.722	21051
874.851	21074
874.979	21161
875.108	21055
875.237	21032
875.365	21104
875.494	21093
875.623	21252
875.751	21013
875.88	21112
876.008	21283
876.136	21275
876.265	21538
876.393	21622
876.521	21698
876.65	21545
876.778	21393
876.906	21568
877.034	21431
877.162	21523
877.29	21359
877.418	21424
877.546	21428
877.674	21450
877.802	21485
877.93	21622
878.058	21428
878.185	21355
878.313	21393
878.441	21424
878.568	21287
878.696	21458
878.824	21587
878.951	21572
879.079	21637
879.206	21781
879.333	21667
879.461	21408
879.588	21606
879.715	21705
879.842	21698
879.97	21507
880.097	21264
880.224	21306
880.351	21340
880.478	21306
880.605	21264
880.732	21367
880.859	21485
880.986	21192
881.112	21268
881.239	21116
881.366	20982
881.493	20941
881.619	21074
881.746	20899
881.872	20891
881.999	20819
882.125	20941
882.252	21043
882.378	20868
882.505	20948
882.631	20785
882.757	20564
882.883	20625
883.01	20659
883.136	20495
883.262	20450
883.388	20400
883.514	20644
883.64	20636
883.766	20400
883.892	20381
884.018	20442
884.143	20552
884.269	20587
884.395	20328
884.52	20347
884.646	20271
884.772	20180
884.897	20233
885.023	20096
885.148	20317
885.274	20381
885.399	20278
885.524	20202
885.65	20252
885.775	20271
885.9	20172
886.025	20351
886.15	20366
886.275	20046
886.4	20100
886.525	20145
886.65	20229
886.775	20199
886.9	20320
887.025	20533
887.149	20218
887.274	20039
887.399	19970
887.523	19989
887.648	20046
887.773	20020
887.897	20065
888.021	20107
888.146	19970
888.27	20126
888.395	20202
888.519	20020
888.643	20149
888.767	20050
888.891	19894
889.015	19830
889.139	19978
889.263	19742
889.387	19974
889.511	19978
889.635	19982
889.759	19719
889.883	19795
890.006	19932
890.13	19925
890.254	19723
890.377	19708
890.501	19559
890.624	19567
890.748	19704
890.871	19491
890.995	19369
891.118	19369
891.241	19480
891.364	19392
891.488	19487
891.611	19411
891.734	19400
891.857	19548
891.98	19369
892.103	19415
892.226	19468
892.349	19396
892.471	19187
892.594	19381
892.717	19392
892.839	19331
892.962	19232
893.085	19400
893.207	19343
893.33	19190
893.452	19312
893.575	19358
893.697	19346
893.819	19339
893.941	19499
894.064	19480
894.186	19171
894.308	19255
894.43	19495
894.552	19506
894.674	19381
894.796	19324
894.918	19308
895.04	19343
895.161	19282
895.283	19434
895.405	19266
895.526	19327
895.648	19350
895.769	19415
895.891	19335
896.012	19430
896.134	19426
896.255	19339
896.376	19350
896.498	19301
896.619	19407
896.74	19377
896.861	19301
896.982	19639
897.103	19837
897.224	19700
897.345	19586
897.466	19544
897.587	19567
897.708	19696
897.828	19624
897.949	19609
898.07	19453
898.19	19453
898.311	19700
898.431	19434
898.552	19578
898.672	19696
898.792	19575
898.913	19502
899.033	19571
899.153	19495
899.273	19339
899.393	19384
899.513	19441
899.633	19289
899.753	19365
899.873	19289
899.993	19293
900.113	19202
900.232	19373
900.352	19209
900.472	19213
900.591	19217
900.711	19232
900.83	19072
900.95	19255
901.069	19247
901.189	18977
901.308	18894
901.427	18719
901.546	18779
901.665	18825
901.784	18734
901.904	18623
902.023	18464
902.141	18372
902.26	18224
902.379	18327
902.498	18224
902.617	18258
902.735	18262
902.854	18235
902.973	18163
903.091	17946
903.21	17961
903.328	17897
903.446	17775
903.565	17809
903.683	17779
903.801	17760
903.919	17764
904.038	17714
904.156	17581
904.274	17562
904.392	17440
904.51	17414
904.627	17425
904.745	17429
904.863	17589
904.981	17311
905.098	17174
905.216	17307
905.334	17181
905.451	17185
905.569	17117
905.686	17265
905.803	17136
905.921	17025
906.038	17041
906.155	17029
906.272	16915
906.389	16938
906.506	16763
906.623	16679
906.74	16748
906.857	16596
906.974	16607
907.091	16809
907.208	16889
907.324	16786
907.441	16622
907.557	16569
907.674	16493
907.79	16413
907.907	16348
908.023	16375
908.139	16447
908.256	16379
908.372	16303
908.488	16337
908.604	16287
908.72	16230
908.836	16154
908.952	16200
909.068	16150
909.184	16306
909.3	16185
909.415	16280
909.531	16268
909.647	15953
909.762	15922
909.878	15827
909.993	15876
910.108	15888
910.224	15838
910.339	15907
910.454	15656
910.57	15755
910.685	15663
910.8	15850
910.915	15838
911.03	15759
911.145	15564
911.259	15507
911.374	15504
911.489	15454
911.604	15428
911.718	15264
911.833	15363
911.947	15203
912.062	15230
912.176	15287
912.291	15264
912.405	15378
912.519	15488
912.633	15378
912.748	15348
912.862	15214
912.976	15112
913.09	14902
913.204	15017
913.318	14948
913.431	15176
913.545	15146
913.659	15233
913.772	15013
913.886	15047
914	14838
914.113	14998
914.226	15043
914.34	14990
914.453	14880
914.566	14956
914.68	14746
914.793	14823
914.906	14560
915.019	14503
915.132	14400
915.245	14556
915.358	14541
915.47	14461
915.583	14461
915.696	14488
915.809	14503
915.921	14613
916.034	14571
916.146	14480
916.259	14431
916.371	14499
916.483	14415
916.595	14305
916.708	14412
916.82	14317
916.932	14355
917.044	14419
917.156	14191
917.268	14187
917.38	14237
917.491	14187
917.603	14130
917.715	14214
917.826	14343
917.938	14073
918.049	14058
918.161	14111
918.272	14282
918.384	14111
918.495	14084
918.606	14043
918.717	13883
918.828	14100
918.939	13963
919.05	13898
919.161	13898
919.272	13693
919.383	13814
919.494	13970
919.604	14084
919.715	13940
919.826	13883
919.936	13879
920.047	14020
920.157	13917
920.267	14142
920.378	13822
920.488	13875
920.598	14081
920.708	14286
920.818	14039
920.928	14035
921.038	14214
921.148	14183
921.258	13898
921.368	13746
921.477	13719
921.587	13632
921.697	13613
921.806	13696
921.916	13529
922.025	13426
922.134	13392
922.244	13251
922.353	13392
922.462	13225
922.571	13137
922.68	12970
922.789	12943
922.898	12924
923.007	12856
923.116	12954
923.224	12951
923.333	12882
923.442	12882
923.55	12802
923.659	12882
923.767	12886
923.876	12787
923.984	12852
924.092	12688
924.201	12768
924.309	12722
924.417	12707
924.525	12700
924.633	12585
924.741	13567
924.849	12403
924.956	12642
925.064	12403
925.172	12464
925.279	12414
925.387	12445
925.494	12418
925.602	12540
925.709	12574
925.816	12243
925.924	12403
926.031	12486
926.138	12437
926.245	12426
926.352	12308
926.459	12365
926.566	12376
926.673	12285
926.779	12117
926.886	12235
926.993	11996
927.099	12057
927.206	11969
927.312	11950
927.419	12083
927.525	11999
927.631	12019
927.737	11984
927.843	11882
927.95	11752
928.056	11851
928.162	11790
928.267	11813
928.373	12441
928.479	11889
928.585	11756
928.69	11836
928.796	11843
928.901	11798
929.007	11638
929.112	11699
929.218	11623
929.323	11619
929.428	11505
929.533	11859
929.638	11547
929.743	11501
929.848	11570
929.953	11554
930.058	11444
930.163	11273
930.267	11311
930.372	11524
930.477	11322
930.581	11478
930.685	11360
930.79	11288
930.894	11353
930.998	11147
931.103	11368
931.207	11014
931.311	10858
931.415	10793
931.519	10641
931.623	10656
