Data from test_V78500241_1170.txt Node
Date: Fri Mar 25 15:18:00 CST 2022
User: usil
Spectrometer: V785-0024
Trigger mode: 0
Integration Time (sec): 4.000000E-1
Scans to average: 1
Nonlinearity correction enabled: false
Boxcar width: 0
Storing dark spectrum: false
XAxis mode: Wavelengths
Number of Pixels in Spectrum: 1024
>>>>>Begin Spectral Data<<<<<
801.071	28131
801.214	28032
801.356	27884
801.499	27774
801.641	27679
801.783	27675
801.926	27804
802.068	27644
802.211	27526
802.353	27606
802.496	27332
802.638	27291
802.78	27264
802.923	27408
803.065	27039
803.208	27245
803.35	27348
803.492	27481
803.635	27469
803.777	27363
803.919	27515
804.061	27880
804.204	27618
804.346	27458
804.488	27447
804.63	27549
804.773	27488
804.915	27473
805.057	27637
805.199	27698
805.341	27625
805.483	27675
805.626	27720
805.768	27557
805.91	27686
806.052	27618
806.194	27614
806.336	27846
806.478	27865
806.62	27724
806.762	27797
806.904	27880
807.046	28257
807.188	28090
807.33	28124
807.472	28169
807.614	28036
807.756	28070
807.898	28086
808.04	27964
808.182	27934
808.324	28090
808.465	27994
808.607	28135
808.749	28303
808.891	28409
809.033	28447
809.174	28295
809.316	28401
809.458	28371
809.6	28253
809.741	28322
809.883	28421
810.025	28733
810.166	28653
810.308	28622
810.45	28569
810.591	28447
810.733	28363
810.875	28371
811.016	28215
811.158	28082
811.299	28379
811.441	28497
811.582	28497
811.724	28466
811.865	28371
812.007	28436
812.148	28428
812.29	28371
812.431	28489
812.573	28797
812.714	28866
812.855	28927
812.997	29037
813.138	29094
813.279	29090
813.421	29003
813.562	28942
813.703	28634
813.845	28557
813.986	28375
814.127	28249
814.268	28055
814.41	27991
814.551	27949
814.692	28181
814.833	27994
814.974	28013
815.115	28116
815.256	27953
815.397	27953
815.539	27876
815.68	27892
815.821	27778
815.962	27869
816.103	27762
816.244	27774
816.385	27682
816.526	27759
816.666	27355
816.807	27283
816.948	27370
817.089	27580
817.23	27386
817.371	27378
817.512	27382
817.653	27348
817.793	27329
817.934	27332
818.075	27298
818.216	27355
818.356	27329
818.497	27108
818.638	27013
818.778	27150
818.919	27230
819.06	27313
819.2	27264
819.341	27317
819.481	27416
819.622	27458
819.762	27603
819.903	27625
820.043	27568
820.184	27435
820.324	27595
820.465	27614
820.605	27549
820.746	27595
820.886	27355
821.026	27279
821.167	27294
821.307	27542
821.447	27355
821.588	27272
821.728	27211
821.868	26967
822.008	26826
822.149	26800
822.289	26826
822.429	26499
822.569	26499
822.709	26640
822.849	26530
822.99	26313
823.13	26374
823.27	26145
823.41	26157
823.55	26096
823.69	26157
823.83	26172
823.97	26149
824.11	25936
824.25	25928
824.389	26043
824.529	26126
824.669	25986
824.809	26153
824.949	26221
825.089	26111
825.228	26077
825.368	25894
825.508	25925
825.648	25887
825.787	25822
825.927	25974
826.067	25925
826.206	25818
826.346	25868
826.485	25913
826.625	25875
826.765	26103
826.904	25947
827.044	25753
827.183	25681
827.323	25635
827.462	25715
827.601	25597
827.741	25616
827.88	25586
828.02	25635
828.159	25609
828.298	25483
828.437	25643
828.577	25544
828.716	25613
828.855	25578
828.994	25331
829.134	25327
829.273	25468
829.412	25320
829.551	25228
829.69	25179
829.829	25407
829.968	25282
830.107	25430
830.246	25240
830.385	25358
830.524	25209
830.663	25232
830.802	25015
830.941	24920
831.08	24928
831.219	25114
831.357	25015
831.496	25114
831.635	25065
831.774	24852
831.913	24924
832.051	24798
832.19	24711
832.329	24783
832.467	24578
832.606	24642
832.744	24551
832.883	24684
833.022	24574
833.16	24745
833.299	24738
833.437	24646
833.576	24722
833.714	24654
833.852	24791
833.991	24749
834.129	24753
834.267	24661
834.406	24646
834.544	24722
834.682	24768
834.821	24654
834.959	24802
835.097	24612
835.235	24635
835.373	24798
835.511	24601
835.65	24574
835.788	24612
835.926	24357
836.064	24323
836.202	24380
836.34	24467
836.478	24547
836.615	24498
836.753	24555
836.891	24623
837.029	24555
837.167	24475
837.305	24517
837.443	24448
837.58	24346
837.718	24486
837.856	24456
837.993	24330
838.131	24357
838.269	24201
838.406	24220
838.544	24205
838.681	24121
838.819	24068
838.956	23916
839.094	23863
839.231	23916
839.369	24011
839.506	24251
839.643	24053
839.781	23817
839.918	23870
840.055	23767
840.193	23726
840.33	23741
840.467	23832
840.604	23897
840.742	24076
840.879	23714
841.016	23646
841.153	23809
841.29	23870
841.427	23809
841.564	23741
841.701	23855
841.838	23756
841.975	23703
842.112	23718
842.249	23562
842.385	23501
842.522	23703
842.659	23554
842.796	23581
842.933	23482
843.069	23433
843.206	23471
843.343	23455
843.479	23535
843.616	23535
843.752	23250
843.889	23368
844.025	23334
844.162	23322
844.298	23322
844.435	23311
844.571	23250
844.708	23330
844.844	23471
844.98	23455
845.117	23299
845.253	23185
845.389	23197
845.525	23174
845.661	23060
845.798	23010
845.934	23064
846.07	22987
846.206	22991
846.342	23109
846.478	22927
846.614	22915
846.75	22786
846.886	22782
847.022	22782
847.158	22778
847.294	22740
847.429	22778
847.565	22740
847.701	22820
847.837	22546
847.972	22413
848.108	22546
848.244	22538
848.379	22276
848.515	22276
848.65	22462
848.786	22295
848.921	22367
849.057	22489
849.192	22428
849.328	22413
849.463	22352
849.598	22280
849.734	22219
849.869	22181
850.004	22036
850.14	22188
850.275	22196
850.41	22158
850.545	22025
850.68	22048
850.815	22116
850.95	22097
851.085	22299
851.22	22131
851.355	22105
851.49	22120
851.625	22109
851.76	22112
851.895	21991
852.03	21964
852.165	22090
852.299	22116
852.434	22192
852.569	22143
852.703	22143
852.838	22230
852.973	22200
853.107	22253
853.242	22021
853.376	21949
853.511	21888
853.645	21915
853.78	22036
853.914	21869
854.048	21884
854.183	21880
854.317	21956
854.451	22196
854.585	21789
854.72	21941
854.854	21994
854.988	21854
855.122	21911
855.256	21869
855.39	21930
855.524	21972
855.658	22032
855.792	21800
855.926	21888
856.06	22101
856.194	22078
856.327	21903
856.461	21804
856.595	21918
856.729	21937
856.862	22036
856.996	21876
857.13	21918
857.263	22017
857.397	22059
857.53	21835
857.664	21960
857.797	22090
857.931	22093
858.064	21979
858.197	21968
858.331	21922
858.464	21846
858.597	21892
858.731	21842
858.864	22029
858.997	21994
859.13	21991
859.263	21907
859.396	21941
859.529	21789
859.662	21915
859.795	21918
859.928	21903
860.061	22074
860.194	22150
860.327	21975
860.46	21869
860.592	22029
860.725	22185
860.858	22101
860.99	21983
861.123	21759
861.256	21934
861.388	21823
861.521	22630
861.653	21869
861.786	21724
861.918	21705
862.05	21720
862.183	21808
862.315	21873
862.447	21930
862.58	21857
862.712	21652
862.844	21644
862.976	21819
863.108	21698
863.24	22040
863.372	21610
863.504	21629
863.636	21690
863.768	21610
863.9	21686
864.032	21572
864.164	21564
864.296	21633
864.428	21724
864.559	21835
864.691	21629
864.823	21572
864.954	21679
865.086	21591
865.217	21595
865.349	21538
865.48	21424
865.612	21583
865.743	21587
865.875	21538
866.006	21500
866.137	21568
866.269	21542
866.4	21420
866.531	21397
866.662	21496
866.793	21458
866.924	21466
867.055	21454
867.186	21401
867.317	21405
867.448	21363
867.579	21466
867.71	21401
867.841	21332
867.972	21443
868.103	21370
868.233	21523
868.364	21485
868.495	21526
868.625	21701
868.756	21766
868.886	21682
869.017	21690
869.147	21819
869.278	21778
869.408	21663
869.539	21625
869.669	21808
869.799	21671
869.929	21869
870.06	21873
870.19	21865
870.32	22086
870.45	22086
870.58	21983
870.71	22128
870.84	22093
870.97	22063
871.1	22032
871.23	22139
871.36	22249
871.489	22063
871.619	22139
871.749	22200
871.879	22303
872.008	22424
872.138	22306
872.267	22158
872.397	22173
872.526	22010
872.656	22192
872.785	22059
872.915	22200
873.044	22379
873.173	22257
873.303	22348
873.432	22295
873.561	22249
873.69	22394
873.819	22276
873.948	22474
874.077	22325
874.206	22249
874.335	22246
874.464	22329
874.593	22588
874.722	22497
874.851	22561
874.979	22474
875.108	22596
875.237	22440
875.365	22226
875.494	22466
875.623	22603
875.751	22352
875.88	22390
876.008	22538
876.136	22603
876.265	22835
876.393	23098
876.521	22904
876.65	22938
876.778	22900
876.906	22683
877.034	22797
877.162	22820
877.29	22771
877.418	22828
877.546	22782
877.674	22839
877.802	22847
877.93	22904
878.058	22889
878.185	22721
878.313	22755
878.441	22713
878.568	22653
878.696	22774
878.824	22809
878.951	22923
879.079	23037
879.206	23136
879.333	22984
879.461	22904
879.588	22908
879.715	23044
879.842	23166
879.97	22820
880.097	22664
880.224	22664
880.351	22717
880.478	22702
880.605	22645
880.732	22649
880.859	22869
880.986	22584
881.112	22702
881.239	22481
881.366	22386
881.493	22333
881.619	22234
881.746	22143
881.872	22242
881.999	22204
882.125	22109
882.252	22204
882.378	22219
882.505	22394
882.631	22082
882.757	21991
882.883	22044
883.01	21907
883.136	21865
883.262	21781
883.388	21713
883.514	21922
883.64	21949
883.766	21831
883.892	21739
884.018	21660
884.143	21865
884.269	21922
884.395	21660
884.52	21603
884.646	21519
884.772	21523
884.897	21526
885.023	21568
885.148	21682
885.274	21705
885.399	21625
885.524	21549
885.65	21496
885.775	21553
885.9	21637
886.025	21690
886.15	21610
886.275	21614
886.4	21454
886.525	21572
886.65	21477
886.775	21549
886.9	21686
887.025	21732
887.149	21496
887.274	21382
887.399	21279
887.523	21294
887.648	21348
887.773	21192
887.897	21355
888.021	21340
888.146	21226
888.27	21310
888.395	21416
888.519	21306
888.643	21344
888.767	21344
888.891	21230
889.015	21112
889.139	21165
889.263	21024
889.387	21165
889.511	21310
889.635	21188
889.759	21230
889.883	21089
890.006	21157
890.13	21195
890.254	21089
890.377	20967
890.501	20902
890.624	20838
890.748	20910
890.871	20769
890.995	20678
891.118	20708
891.241	20636
891.364	20697
891.488	20887
891.611	20625
891.734	20598
891.857	20625
891.98	20674
892.103	20724
892.226	20613
892.349	20651
892.471	20526
892.594	20568
892.717	20511
892.839	20537
892.962	20606
893.085	20606
893.207	20568
893.33	20541
893.452	20419
893.575	20632
893.697	20629
893.819	20629
893.941	20655
894.064	20632
894.186	20393
894.308	20495
894.43	20750
894.552	20674
894.674	20670
894.796	20385
894.918	20606
895.04	20495
895.161	20636
895.283	20450
895.405	20530
895.526	20590
895.648	20385
895.769	20632
895.891	20583
896.012	20606
896.134	20583
896.255	20613
896.376	20560
896.498	20533
896.619	20552
896.74	20609
896.861	20579
896.982	20849
897.103	20937
897.224	20727
897.345	20754
897.466	20716
897.587	20731
897.708	20864
897.828	20785
897.949	20670
898.07	20617
898.19	20701
898.311	20804
898.431	20609
898.552	20781
898.672	20838
898.792	20838
898.913	20781
899.033	20659
899.153	20434
899.273	20469
899.393	20507
899.513	20518
899.633	20598
899.753	20541
899.873	20526
899.993	20492
900.113	20343
900.232	20469
900.352	20408
900.472	20313
900.591	20275
900.711	20164
900.83	20229
900.95	20351
901.069	20332
901.189	20119
901.308	19909
901.427	19845
901.546	19928
901.665	19868
901.784	19921
901.904	19799
902.023	19556
902.141	19396
902.26	19373
902.379	19282
902.498	19293
902.617	19324
902.735	19381
902.854	19297
902.973	19392
903.091	19065
903.21	18977
903.328	19122
903.446	18920
903.565	18806
903.683	18833
903.801	18741
903.919	18798
904.038	18821
904.156	18589
904.274	18677
904.392	18574
904.51	18521
904.627	18665
904.745	18486
904.863	18692
904.981	18456
905.098	18281
905.216	18270
905.334	18228
905.451	18194
905.569	18247
905.686	18308
905.803	18159
905.921	18098
906.038	18182
906.155	18049
906.272	17912
906.389	17965
906.506	17843
906.623	17733
906.74	17714
906.857	17687
906.974	17627
907.091	17847
907.208	17961
907.324	17885
907.441	17589
907.557	17554
907.674	17551
907.79	17444
907.907	17535
908.023	17554
908.139	17539
908.256	17444
908.372	17406
908.488	17337
908.604	17292
908.72	17261
908.836	17372
908.952	17231
909.068	17193
909.184	17356
909.3	17223
909.415	17143
909.531	17296
909.647	16976
909.762	16892
909.878	16786
909.993	17014
910.108	16911
910.224	16771
910.339	16843
910.454	16786
910.57	16767
910.685	16736
910.8	16968
910.915	16892
911.03	16767
911.145	16573
911.259	16584
911.374	16440
911.489	16398
911.604	16485
911.718	16268
911.833	16333
911.947	16093
912.062	15975
912.176	16306
912.291	16177
912.405	16200
912.519	16379
912.633	16386
912.748	16226
912.862	16211
912.976	16147
913.09	15934
913.204	16048
913.318	16074
913.431	16177
913.545	16055
913.659	16154
913.772	16002
913.886	15873
914	15838
914.113	15846
914.226	15956
914.34	15911
914.453	15728
914.566	15876
914.68	15789
914.793	15652
914.906	15591
915.019	15428
915.132	15466
915.245	15447
915.358	15466
915.47	15473
915.583	15496
915.696	15458
915.809	15504
915.921	15500
916.034	15485
916.146	15325
916.259	15310
916.371	15424
916.483	15500
916.595	15283
916.708	15214
916.82	15298
916.932	15237
917.044	15180
917.156	15150
917.268	15112
917.38	15222
917.491	15146
917.603	15055
917.715	15150
917.826	15218
917.938	15077
918.049	15081
918.161	15077
918.272	15104
918.384	15051
918.495	15047
918.606	14845
918.717	14834
918.828	14883
918.939	14921
919.05	14762
919.161	14872
919.272	14727
919.383	14560
919.494	14891
919.604	15081
919.715	14849
919.826	14708
919.936	14739
920.047	14864
920.157	14914
920.267	15020
920.378	14902
920.488	14746
920.598	15036
920.708	15070
920.818	14910
920.928	14963
921.038	15085
921.148	15154
921.258	14739
921.368	14735
921.477	14560
921.587	14518
921.697	14343
921.806	14457
921.916	14450
922.025	14183
922.134	14043
922.244	14168
922.353	14176
922.462	14054
922.571	14077
922.68	13791
922.789	13852
922.898	13826
923.007	13723
923.116	13795
923.224	13723
923.333	13814
923.442	13727
923.55	13780
923.659	13731
923.767	13727
923.876	13666
923.984	13639
924.092	13510
924.201	13662
924.309	13533
924.417	13529
924.525	13415
924.633	13430
924.741	14404
924.849	13263
924.956	13400
925.064	13247
925.172	13240
925.279	13137
925.387	13240
925.494	13274
925.602	13251
925.709	13240
925.816	13065
925.924	13061
926.031	13187
926.138	13126
926.245	13160
926.352	13050
926.459	13179
926.566	13187
926.673	13057
926.779	12935
926.886	13004
926.993	12753
927.099	12867
927.206	12772
927.312	12734
927.419	12764
927.525	12757
927.631	12844
927.737	12604
927.843	12589
927.95	12418
928.056	12608
928.162	12616
928.267	12601
928.373	13145
928.479	12639
928.585	12490
928.69	12464
928.796	12509
928.901	12422
929.007	12342
929.112	12380
929.218	12369
929.323	12418
929.428	12239
929.533	12540
929.638	12197
929.743	12270
929.848	12311
929.953	12136
930.058	12091
930.163	11935
930.267	11977
930.372	12129
930.477	11897
930.581	12167
930.685	11980
930.79	11889
930.894	11885
930.998	11843
931.103	12015
931.207	11638
931.311	11459
931.415	11459
931.519	11284
931.623	11220
