Data from test_V78500241_794.txt Node
Date: Fri Mar 25 15:15:23 CST 2022
User: usil
Spectrometer: V785-0024
Trigger mode: 0
Integration Time (sec): 4.000000E-1
Scans to average: 1
Nonlinearity correction enabled: false
Boxcar width: 0
Storing dark spectrum: false
XAxis mode: Wavelengths
Number of Pixels in Spectrum: 1024
>>>>>Begin Spectral Data<<<<<
801.071	28451
801.214	28261
801.356	28082
801.499	27975
801.641	27854
801.783	27823
801.926	27918
802.068	27816
802.211	27789
802.353	27739
802.496	27526
802.638	27557
802.78	27416
802.923	27656
803.065	27481
803.208	27511
803.35	27511
803.492	27736
803.635	27682
803.777	27504
803.919	27671
804.061	27941
804.204	27770
804.346	27648
804.488	27694
804.63	27682
804.773	27519
804.915	27663
805.057	27911
805.199	27835
805.341	27842
805.483	27739
805.626	28025
805.768	27736
805.91	27789
806.052	27861
806.194	27808
806.336	28055
806.478	27987
806.62	27812
806.762	28048
806.904	28166
807.046	28249
807.188	28211
807.33	28325
807.472	28185
807.614	28188
807.756	28169
807.898	28207
808.04	28169
808.182	28097
808.324	28143
808.465	28242
808.607	28352
808.749	28455
808.891	28481
809.033	28683
809.174	28516
809.316	28409
809.458	28538
809.6	28573
809.741	28793
809.883	28755
810.025	28816
810.166	29018
810.308	28915
810.45	28767
810.591	28759
810.733	28615
810.875	28474
811.016	28272
811.158	28455
811.299	28538
811.441	28744
811.582	28637
811.724	28531
811.865	28588
812.007	28580
812.148	28546
812.29	28599
812.431	28721
812.573	28919
812.714	28923
812.855	29056
812.997	29197
813.138	29417
813.279	29155
813.421	29003
813.562	29086
813.703	28976
813.845	28793
813.986	28470
814.127	28421
814.268	28280
814.41	28253
814.551	28287
814.692	28379
814.833	28192
814.974	28219
815.115	28253
815.256	28173
815.397	28070
815.539	28207
815.68	28078
815.821	27975
815.962	28109
816.103	28021
816.244	27778
816.385	27934
816.526	27888
816.666	27808
816.807	27519
816.948	27701
817.089	27766
817.23	27633
817.371	27606
817.512	27637
817.653	27595
817.793	27469
817.934	27610
818.075	27557
818.216	27648
818.356	27603
818.497	27530
818.638	27412
818.778	27332
818.919	27408
819.06	27344
819.2	27416
819.341	27599
819.481	27538
819.622	27755
819.762	27934
819.903	27831
820.043	27816
820.184	27728
820.324	27778
820.465	27766
820.605	27766
820.746	27713
820.886	27701
821.026	27637
821.167	27545
821.307	27572
821.447	27549
821.588	27519
821.728	27359
821.868	27184
822.008	26986
822.149	27062
822.289	27039
822.429	26800
822.569	26613
822.709	26781
822.849	26518
822.99	26545
823.13	26629
823.27	26594
823.41	26438
823.55	26138
823.69	26393
823.83	26465
823.97	26370
824.11	26271
824.25	26187
824.389	26271
824.529	26240
824.669	26244
824.809	26275
824.949	26286
825.089	26347
825.228	26343
825.368	26107
825.508	26020
825.648	26062
825.787	26191
825.927	26073
826.067	26043
826.206	26157
826.346	26043
826.485	26210
826.625	25936
826.765	26172
826.904	26180
827.044	25837
827.183	25928
827.323	25803
827.462	25871
827.601	25898
827.741	25871
827.88	25887
828.02	25761
828.159	25807
828.298	25776
828.437	25894
828.577	25719
828.716	25921
828.855	25700
828.994	25559
829.134	25483
829.273	25552
829.412	25487
829.551	25472
829.69	25540
829.829	25472
829.968	25441
830.107	25594
830.246	25457
830.385	25422
830.524	25285
830.663	25388
830.802	25187
830.941	24973
831.08	25164
831.219	25259
831.357	25339
831.496	25460
831.635	25053
831.774	24977
831.913	25000
832.051	24928
832.19	24901
832.329	24852
832.467	24817
832.606	24798
832.744	24867
832.883	24882
833.022	24650
833.16	24726
833.299	24844
833.437	24776
833.576	24817
833.714	24882
833.852	24871
833.991	24848
834.129	24996
834.267	24954
834.406	24806
834.544	24886
834.682	24810
834.821	24848
834.959	25061
835.097	24810
835.235	24840
835.373	24787
835.511	24802
835.65	24608
835.788	24669
835.926	24585
836.064	24433
836.202	24597
836.34	24692
836.478	24722
836.615	24513
836.753	24722
836.891	24715
837.029	24753
837.167	24597
837.305	24578
837.443	24700
837.58	24330
837.718	24597
837.856	24525
837.993	24369
838.131	24414
838.269	24304
838.406	24456
838.544	24254
838.681	24174
838.819	24213
838.956	24064
839.094	23977
839.231	24022
839.369	24114
839.506	24254
839.643	24209
839.781	23999
839.918	23939
840.055	23969
840.193	24041
840.33	23908
840.467	23988
840.604	23920
840.742	24304
840.879	23805
841.016	23790
841.153	23729
841.29	23904
841.427	23817
841.564	23878
841.701	23859
841.838	23767
841.975	23802
842.112	23752
842.249	23699
842.385	23623
842.522	23836
842.659	23722
842.796	23535
842.933	23524
843.069	23566
843.206	23615
843.343	23684
843.479	23634
843.616	23729
843.752	23414
843.889	23368
844.025	23516
844.162	23448
844.298	23436
844.435	23364
844.571	23444
844.708	23383
844.844	23608
844.98	23516
845.117	23623
845.253	23421
845.389	23269
845.525	23227
845.661	23200
845.798	23132
845.934	23208
846.07	23003
846.206	23140
846.342	23273
846.478	22972
846.614	22911
846.75	22824
846.886	22839
847.022	22930
847.158	22972
847.294	22866
847.429	23044
847.565	22831
847.701	23037
847.837	22493
847.972	22630
848.108	22691
848.244	22713
848.379	22546
848.515	22527
848.65	22413
848.786	22481
848.921	22379
849.057	22580
849.192	22500
849.328	22512
849.463	22481
849.598	22382
849.734	22177
849.869	22360
850.004	22249
850.14	22242
850.275	22219
850.41	22112
850.545	22215
850.68	22166
850.815	22185
850.95	22215
851.085	22337
851.22	22295
851.355	22360
851.49	22249
851.625	22147
851.76	22124
851.895	22188
852.03	22196
852.165	22101
852.299	22226
852.434	22417
852.569	22363
852.703	22177
852.838	22287
852.973	22337
853.107	22306
853.242	22093
853.376	22109
853.511	21956
853.645	22116
853.78	21998
853.914	22070
854.048	21934
854.183	22013
854.317	22074
854.451	22154
854.585	22040
854.72	22006
854.854	22070
854.988	21918
855.122	22040
855.256	22063
855.39	21983
855.524	22029
855.658	22063
855.792	22086
855.926	22044
856.06	21945
856.194	22109
856.327	21960
856.461	21945
856.595	21945
856.729	21975
856.862	22124
856.996	22101
857.13	22204
857.263	22105
857.397	22063
857.53	21987
857.664	22082
857.797	22147
857.931	22105
858.064	22131
858.197	22181
858.331	22150
858.464	21949
858.597	21991
858.731	21945
858.864	21907
858.997	22078
859.13	21907
859.263	22044
859.396	22082
859.529	21953
859.662	22101
859.795	22048
859.928	22017
860.061	22063
860.194	22181
860.327	22101
860.46	22017
860.592	22051
860.725	22215
860.858	22074
860.99	22143
861.123	21918
861.256	21838
861.388	22021
861.521	22744
861.653	21838
861.786	21831
861.918	21869
862.05	21915
862.183	22029
862.315	21968
862.447	22002
862.58	22048
862.712	21724
862.844	21785
862.976	21804
863.108	21854
863.24	22230
863.372	21751
863.504	21686
863.636	21732
863.768	21728
863.9	21610
864.032	21660
864.164	21705
864.296	21736
864.428	21827
864.559	21918
864.691	21675
864.823	21720
864.954	21713
865.086	21759
865.217	21610
865.349	21504
865.48	21591
865.612	21694
865.743	21770
865.875	21694
866.006	21496
866.137	21591
866.269	21618
866.4	21648
866.531	21576
866.662	21572
866.793	21462
866.924	21336
867.055	21580
867.186	21576
867.317	21496
867.448	21424
867.579	21511
867.71	21458
867.841	21428
867.972	21511
868.103	21492
868.233	21496
868.364	21526
868.495	21660
868.625	21831
868.756	21842
868.886	21762
869.017	21717
869.147	21800
869.278	21778
869.408	21850
869.539	21709
869.669	21701
869.799	21835
869.929	21838
870.06	21819
870.19	22055
870.32	22002
870.45	22169
870.58	22173
870.71	22268
870.84	22105
870.97	22204
871.1	22188
871.23	22192
871.36	22352
871.489	22124
871.619	22409
871.749	22459
871.879	22470
872.008	22428
872.138	22344
872.267	22246
872.397	22192
872.526	22116
872.656	22105
872.785	22185
872.915	22402
873.044	22447
873.173	22402
873.303	22466
873.432	22538
873.561	22394
873.69	22424
873.819	22287
873.948	22481
874.077	22402
874.206	22226
874.335	22413
874.464	22474
874.593	22592
874.722	22573
874.851	22523
874.979	22531
875.108	22592
875.237	22565
875.365	22470
875.494	22618
875.623	22755
875.751	22675
875.88	22637
876.008	22763
876.136	22759
876.265	22961
876.393	23041
876.521	23003
876.65	23075
876.778	22968
876.906	22877
877.034	22915
877.162	22854
877.29	22946
877.418	22949
877.546	22908
877.674	22900
877.802	22919
877.93	22942
878.058	22869
878.185	22919
878.313	22923
878.441	22938
878.568	22896
878.696	22877
878.824	23025
878.951	22995
879.079	23105
879.206	23223
879.333	23094
879.461	22915
879.588	22892
879.715	23254
879.842	23162
879.97	23140
880.097	22847
880.224	22767
880.351	22805
880.478	22653
880.605	22710
880.732	22835
880.859	22961
880.986	22725
881.112	22797
881.239	22596
881.366	22443
881.493	22436
881.619	22337
881.746	22276
881.872	22181
881.999	22322
882.125	22268
882.252	22329
882.378	22314
882.505	22272
882.631	22181
882.757	22010
882.883	22154
883.01	22021
883.136	22010
883.262	21949
883.388	21895
883.514	22051
883.64	22059
883.766	21873
883.892	21774
884.018	21873
884.143	21987
884.269	22006
884.395	21747
884.52	21629
884.646	21610
884.772	21614
884.897	21553
885.023	21587
885.148	21686
885.274	21747
885.399	21701
885.524	21686
885.65	21694
885.775	21671
885.9	21526
886.025	21838
886.15	21713
886.275	21534
886.4	21595
886.525	21595
886.65	21618
886.775	21485
886.9	21762
887.025	21835
887.149	21660
887.274	21420
887.399	21370
887.523	21405
887.648	21420
887.773	21359
887.897	21355
888.021	21416
888.146	21443
888.27	21652
888.395	21469
888.519	21332
888.643	21367
888.767	21538
888.891	21393
889.015	21264
889.139	21233
889.263	21199
889.387	21249
889.511	21542
889.635	21260
889.759	21146
889.883	21249
890.006	21306
890.13	21317
890.254	21058
890.377	21184
890.501	20960
890.624	20971
890.748	20986
890.871	20921
890.995	20727
891.118	20705
891.241	20731
891.364	20777
891.488	20921
891.611	20769
891.734	20842
891.857	20804
891.98	20765
892.103	20815
892.226	20925
892.349	20826
892.471	20632
892.594	20701
892.717	20781
892.839	20667
892.962	20705
893.085	20670
893.207	20545
893.33	20549
893.452	20541
893.575	20617
893.697	20708
893.819	20796
893.941	20800
894.064	20765
894.186	20568
894.308	20583
894.43	20788
894.552	20769
894.674	20716
894.796	20602
894.918	20674
895.04	20587
895.161	20724
895.283	20727
895.405	20564
895.526	20575
895.648	20731
895.769	20556
895.891	20754
896.012	20720
896.134	20701
896.255	20689
896.376	20579
896.498	20693
896.619	20686
896.74	20556
896.861	20758
896.982	20918
897.103	21009
897.224	20944
897.345	20902
897.466	20735
897.587	20834
897.708	20868
897.828	20906
897.949	20815
898.07	20621
898.19	20735
898.311	20918
898.431	20754
898.552	20811
898.672	20921
898.792	20891
898.913	20769
899.033	20651
899.153	20625
899.273	20511
899.393	20644
899.513	20705
899.633	20594
899.753	20689
899.873	20434
899.993	20705
900.113	20526
900.232	20552
900.352	20514
900.472	20347
900.591	20256
900.711	20377
900.83	20351
900.95	20526
901.069	20606
901.189	20225
901.308	20084
901.427	19989
901.546	19913
901.665	19894
901.784	20012
901.904	19837
902.023	19795
902.141	19586
902.26	19480
902.379	19540
902.498	19514
902.617	19487
902.735	19575
902.854	19537
902.973	19358
903.091	19209
903.21	19228
903.328	19072
903.446	18962
903.565	19012
903.683	18909
903.801	18772
903.919	18970
904.038	18932
904.156	18646
904.274	18753
904.392	18760
904.51	18825
904.627	18745
904.745	18791
904.863	18681
904.981	18574
905.098	18296
905.216	18365
905.334	18433
905.451	18334
905.569	18448
905.686	18338
905.803	18213
905.921	18216
906.038	18300
906.155	18178
906.272	18057
906.389	18079
906.506	17897
906.623	17851
906.74	17882
906.857	17779
906.974	17889
907.091	17946
907.208	18121
907.324	17927
907.441	17752
907.557	17691
907.674	17657
907.79	17619
907.907	17535
908.023	17657
908.139	17630
908.256	17611
908.372	17478
908.488	17524
908.604	17383
908.72	17303
908.836	17364
908.952	17318
909.068	17296
909.184	17417
909.3	17246
909.415	17398
909.531	17296
909.647	17140
909.762	17109
909.878	16987
909.993	17033
910.108	16938
910.224	17014
910.339	16984
910.454	16915
910.57	16858
910.685	16675
910.8	17045
910.915	16995
911.03	16801
911.145	16668
911.259	16637
911.374	16668
911.489	16535
911.604	16504
911.718	16337
911.833	16356
911.947	16284
912.062	16185
912.176	16291
912.291	16367
912.405	16246
912.519	16402
912.633	16637
912.748	16344
912.862	16310
912.976	16147
913.09	16017
913.204	16105
913.318	16169
913.431	16196
913.545	16200
913.659	16200
913.772	16063
913.886	16074
914	16002
914.113	16006
914.226	16044
914.34	16036
914.453	15873
914.566	16044
914.68	15812
914.793	15808
914.906	15679
915.019	15599
915.132	15584
915.245	15500
915.358	15656
915.47	15564
915.583	15599
915.696	15580
915.809	15679
915.921	15629
916.034	15477
916.146	15534
916.259	15397
916.371	15500
916.483	15633
916.595	15412
916.708	15477
916.82	15367
916.932	15340
917.044	15336
917.156	15287
917.268	15169
917.38	15218
917.491	15176
917.603	15241
917.715	15260
917.826	15222
917.938	15081
918.049	15062
918.161	15062
918.272	15302
918.384	15173
918.495	15119
918.606	14906
918.717	14921
918.828	15013
918.939	14967
919.05	14876
919.161	14899
919.272	14769
919.383	14697
919.494	14883
919.604	15199
919.715	14929
919.826	14815
919.936	14906
920.047	14910
920.157	14941
920.267	14925
920.378	14918
920.488	14883
920.598	15089
920.708	15154
920.818	15039
920.928	14975
921.038	15192
921.148	15199
921.258	14804
921.368	14826
921.477	14655
921.587	14674
921.697	14415
921.806	14610
921.916	14503
922.025	14393
922.134	14244
922.244	14225
922.353	14317
922.462	14138
922.571	14088
922.68	13940
922.789	13986
922.898	13936
923.007	13871
923.116	13890
923.224	13986
923.333	13890
923.442	13738
923.55	13647
923.659	13689
923.767	13780
923.876	13666
923.984	13791
924.092	13639
924.201	13708
924.309	13715
924.417	13639
924.525	13616
924.633	13533
924.741	14343
924.849	13327
924.956	13537
925.064	13407
925.172	13213
925.279	13278
925.387	13411
925.494	13354
925.602	13403
925.709	13358
925.816	13156
925.924	13190
926.031	13278
926.138	13240
926.245	13221
926.352	13187
926.459	13259
926.566	13251
926.673	13194
926.779	13027
926.886	12909
926.993	12966
927.099	12909
927.206	12760
927.312	12795
927.419	12882
927.525	12852
927.631	12856
927.737	12681
927.843	12814
927.95	12559
928.056	12658
928.162	12681
928.267	12711
928.373	13251
928.479	12719
928.585	12422
928.69	12589
928.796	12631
928.901	12479
929.007	12471
929.112	12532
929.218	12429
929.323	12323
929.428	12384
929.533	12418
929.638	12311
929.743	12334
929.848	12376
929.953	12338
930.058	12239
930.163	12083
930.267	12129
930.372	12133
930.477	12041
930.581	12273
930.685	12205
930.79	11950
930.894	12015
930.998	11920
931.103	12121
931.207	11665
931.311	11642
931.415	11581
931.519	11406
931.623	11318
