Data from test_V78500241_3423.txt Node
Date: Fri Mar 25 15:33:41 CST 2022
User: usil
Spectrometer: V785-0024
Trigger mode: 0
Integration Time (sec): 4.000000E-1
Scans to average: 1
Nonlinearity correction enabled: false
Boxcar width: 0
Storing dark spectrum: false
XAxis mode: Wavelengths
Number of Pixels in Spectrum: 1024
>>>>>Begin Spectral Data<<<<<
801.071	27389
801.214	27184
801.356	26906
801.499	26960
801.641	26796
801.783	26735
801.926	26921
802.068	26819
802.211	26804
802.353	26632
802.496	26667
802.638	26419
802.78	26438
802.923	26434
803.065	26396
803.208	26461
803.35	26389
803.492	26560
803.635	26663
803.777	26503
803.919	26689
804.061	26967
804.204	26644
804.346	26598
804.488	26427
804.63	26617
804.773	26522
804.915	26571
805.057	26682
805.199	26568
805.341	26609
805.483	26697
805.626	26648
805.768	26598
805.91	26667
806.052	26739
806.194	26648
806.336	26785
806.478	26750
806.62	26602
806.762	26762
806.904	27001
807.046	27188
807.188	27161
807.33	27036
807.472	27085
807.614	26925
807.756	27085
807.898	26994
808.04	26868
808.182	26918
808.324	26899
808.465	27051
808.607	27195
808.749	27252
808.891	27427
809.033	27427
809.174	27363
809.316	27256
809.458	27165
809.6	27332
809.741	27329
809.883	27359
810.025	27481
810.166	27515
810.308	27587
810.45	27576
810.591	27542
810.733	27325
810.875	27382
811.016	27169
811.158	27131
811.299	27332
811.441	27397
811.582	27458
811.724	27287
811.865	27230
812.007	27222
812.148	27161
812.29	27283
812.431	27431
812.573	27553
812.714	27633
812.855	27789
812.997	27846
813.138	28040
813.279	27888
813.421	27846
813.562	27789
813.703	27583
813.845	27496
813.986	27207
814.127	27036
814.268	26952
814.41	26982
814.551	26895
814.692	27039
814.833	26982
814.974	26845
815.115	26918
815.256	26845
815.397	26716
815.539	26735
815.68	26659
815.821	26526
815.962	26697
816.103	26632
816.244	26667
816.385	26492
816.526	26499
816.666	26339
816.807	26065
816.948	26271
817.089	26191
817.23	26221
817.371	26180
817.512	26103
817.653	26218
817.793	26096
817.934	26054
818.075	26187
818.216	26145
818.356	26195
818.497	26031
818.638	25837
818.778	25997
818.919	25860
819.06	26008
819.2	25936
819.341	26187
819.481	26263
819.622	26278
819.762	26473
819.903	26473
820.043	26450
820.184	26199
820.324	26286
820.465	26339
820.605	26343
820.746	26355
820.886	26176
821.026	26278
821.167	26187
821.307	26298
821.447	26157
821.588	26088
821.728	26035
821.868	25746
822.008	25731
822.149	25605
822.289	25632
822.429	25369
822.569	25331
822.709	25285
822.849	25126
822.99	25129
823.13	25042
823.27	25126
823.41	24966
823.55	24939
823.69	24947
823.83	24992
823.97	24916
824.11	24867
824.25	24726
824.389	24916
824.529	24886
824.669	24715
824.809	24878
824.949	24817
825.089	24779
825.228	24791
825.368	24677
825.508	24536
825.648	24684
825.787	24604
825.927	24673
826.067	24566
826.206	24582
826.346	24741
826.485	24760
826.625	24601
826.765	24779
826.904	24642
827.044	24399
827.183	24536
827.323	24395
827.462	24391
827.601	24399
827.741	24346
827.88	24311
828.02	24247
828.159	24300
828.298	24372
828.437	24369
828.577	24342
828.716	24414
828.855	24292
828.994	24114
829.134	24098
829.273	24148
829.412	24015
829.551	23999
829.69	23999
829.829	24068
829.968	24243
830.107	24205
830.246	24076
830.385	24182
830.524	23988
830.663	23939
830.802	23783
830.941	23672
831.08	23745
831.219	23707
831.357	23786
831.496	23901
831.635	23878
831.774	23520
831.913	23573
832.051	23535
832.19	23490
832.329	23474
832.467	23436
832.606	23223
832.744	23414
832.883	23322
833.022	23246
833.16	23341
833.299	23486
833.437	23425
833.576	23531
833.714	23486
833.852	23581
833.991	23452
834.129	23471
834.267	23547
834.406	23318
834.544	23551
834.682	23493
834.821	23471
834.959	23596
835.097	23395
835.235	23646
835.373	23474
835.511	23368
835.65	23303
835.788	23376
835.926	23170
836.064	23208
836.202	23174
836.34	23345
836.478	23341
836.615	23258
836.753	23364
836.891	23303
837.029	23296
837.167	23223
837.305	23155
837.443	23132
837.58	23170
837.718	23170
837.856	23124
837.993	23155
838.131	23109
838.269	22999
838.406	23174
838.544	23033
838.681	22786
838.819	22763
838.956	22675
839.094	22645
839.231	22717
839.369	22691
839.506	23060
839.643	22839
839.781	22660
839.918	22561
840.055	22721
840.193	22641
840.33	22512
840.467	22626
840.604	22596
840.742	22824
840.879	22523
841.016	22497
841.153	22443
841.29	22641
841.427	22493
841.564	22584
841.701	22516
841.838	22504
841.975	22550
842.112	22504
842.249	22451
842.385	22447
842.522	22474
842.659	22344
842.796	22303
842.933	22379
843.069	22276
843.206	22261
843.343	22276
843.479	22284
843.616	22287
843.752	22105
843.889	22135
844.025	22325
844.162	22128
844.298	22223
844.435	22112
844.571	21991
844.708	22211
844.844	22424
844.98	22261
845.117	22185
845.253	22002
845.389	21979
845.525	21968
845.661	22082
845.798	21915
845.934	21907
846.07	21838
846.206	21888
846.342	22013
846.478	21876
846.614	21713
846.75	21523
846.886	21557
847.022	21705
847.158	21553
847.294	21656
847.429	21572
847.565	21675
847.701	21884
847.837	21408
847.972	21192
848.108	21359
848.244	21420
848.379	21298
848.515	21180
848.65	21157
848.786	21062
848.921	21154
849.057	21340
849.192	21279
849.328	21165
849.463	21173
849.598	21180
849.734	21169
849.869	21017
850.004	20952
850.14	20880
850.275	20956
850.41	20902
850.545	20830
850.68	20925
850.815	20948
850.95	20963
851.085	21207
851.22	21096
851.355	20929
851.49	20902
851.625	20921
851.76	20910
851.895	20819
852.03	20781
852.165	20967
852.299	20979
852.434	21017
852.569	20948
852.703	20925
852.838	20975
852.973	20948
853.107	21009
853.242	20853
853.376	20777
853.511	20689
853.645	20686
853.78	20788
853.914	20724
854.048	20716
854.183	20720
854.317	20758
854.451	20990
854.585	20689
854.72	20705
854.854	20921
854.988	20739
855.122	20735
855.256	20609
855.39	20659
855.524	20883
855.658	20762
855.792	20807
855.926	20743
856.06	20750
856.194	20899
856.327	20743
856.461	20708
856.595	20731
856.729	20739
856.862	20697
856.996	20804
857.13	20819
857.263	20842
857.397	20769
857.53	20701
857.664	20853
857.797	20883
857.931	20792
858.064	20895
858.197	20830
858.331	20792
858.464	20564
858.597	20648
858.731	20823
858.864	20735
858.997	20765
859.13	20765
859.263	20785
859.396	20861
859.529	20724
859.662	20739
859.795	20724
859.928	20735
860.061	20887
860.194	20902
860.327	20815
860.46	20693
860.592	20845
860.725	20880
860.858	20796
860.99	20777
861.123	20712
861.256	20686
861.388	20842
861.521	21500
861.653	20571
861.786	20594
861.918	20537
862.05	20663
862.183	20674
862.315	20765
862.447	20777
862.58	20686
862.712	20415
862.844	20492
862.976	20556
863.108	20571
863.24	20914
863.372	20355
863.504	20465
863.636	20583
863.768	20431
863.9	20533
864.032	20347
864.164	20408
864.296	20537
864.428	20518
864.559	20670
864.691	20537
864.823	20518
864.954	20427
865.086	20271
865.217	20362
865.349	20286
865.48	20434
865.612	20347
865.743	20552
865.875	20454
866.006	20332
866.137	20286
866.269	20370
866.4	20381
866.531	20305
866.662	20393
866.793	20313
866.924	20473
867.055	20358
867.186	20381
867.317	20187
867.448	20278
867.579	20240
867.71	20164
867.841	20195
867.972	20309
868.103	20259
868.233	20374
868.364	20438
868.495	20461
868.625	20522
868.756	20697
868.886	20533
869.017	20522
869.147	20712
869.278	20617
869.408	20686
869.539	20575
869.669	20632
869.799	20724
869.929	20629
870.06	20640
870.19	20899
870.32	20929
870.45	20918
870.58	20899
870.71	21058
870.84	21058
870.97	20883
871.1	20937
871.23	21119
871.36	21089
871.489	21024
871.619	21184
871.749	21146
871.879	21176
872.008	21420
872.138	21146
872.267	21184
872.397	21051
872.526	20902
872.656	21009
872.785	20986
872.915	21195
873.044	21207
873.173	21150
873.303	21051
873.432	21283
873.561	21222
873.69	21294
873.819	21218
873.948	21199
874.077	21218
874.206	21131
874.335	21138
874.464	21332
874.593	21530
874.722	21420
874.851	21580
874.979	21405
875.108	21424
875.237	21401
875.365	21348
875.494	21397
875.623	21462
875.751	21412
875.88	21462
876.008	21610
876.136	21656
876.265	21690
876.393	21937
876.521	21953
876.65	21880
876.778	21827
876.906	21641
877.034	21808
877.162	21774
877.29	21785
877.418	21854
877.546	21797
877.674	21698
877.802	21759
877.93	21827
878.058	21606
878.185	21644
878.313	21694
878.441	21789
878.568	21648
878.696	21728
878.824	21656
878.951	21880
879.079	21880
879.206	21998
879.333	21945
879.461	21861
879.588	21846
879.715	22017
879.842	22067
879.97	21819
880.097	21587
880.224	21572
880.351	21618
880.478	21515
880.605	21530
880.732	21610
880.859	21960
880.986	21595
881.112	21500
881.239	21454
881.366	21351
881.493	21291
881.619	21211
881.746	21226
881.872	21188
881.999	21157
882.125	21173
882.252	21161
882.378	21138
882.505	21222
882.631	20982
882.757	20929
882.883	20967
883.01	20899
883.136	20853
883.262	20746
883.388	20720
883.514	20910
883.64	20925
883.766	20826
883.892	20739
884.018	20708
884.143	21009
884.269	20929
884.395	20663
884.52	20518
884.646	20583
884.772	20537
884.897	20431
885.023	20454
885.148	20598
885.274	20765
885.399	20697
885.524	20526
885.65	20564
885.775	20636
885.9	20461
886.025	20590
886.15	20549
886.275	20457
886.4	20389
886.525	20590
886.65	20408
886.775	20427
886.9	20682
887.025	20807
887.149	20526
887.274	20332
887.399	20320
887.523	20347
887.648	20267
887.773	20256
887.897	20358
888.021	20404
888.146	20210
888.27	20438
888.395	20404
888.519	20309
888.643	20358
888.767	20419
888.891	20221
889.015	20126
889.139	20233
889.263	20187
889.387	20161
889.511	20244
889.635	20282
889.759	20096
889.883	20103
890.006	20157
890.13	20138
890.254	20077
890.377	20054
890.501	19982
890.624	19830
890.748	19902
890.871	19753
890.995	19799
891.118	19597
891.241	19826
891.364	19689
891.488	19795
891.611	19624
891.734	19685
891.857	19750
891.98	19666
892.103	19742
892.226	19609
892.349	19674
892.471	19460
892.594	19700
892.717	19594
892.839	19559
892.962	19552
893.085	19647
893.207	19594
893.33	19487
893.452	19544
893.575	19727
893.697	19544
893.819	19731
893.941	19765
894.064	19868
894.186	19502
894.308	19521
894.43	19677
894.552	19708
894.674	19670
894.796	19537
894.918	19563
895.04	19597
895.161	19708
895.283	19628
895.405	19529
895.526	19643
895.648	19750
895.769	19616
895.891	19609
896.012	19635
896.134	19571
896.255	19666
896.376	19548
896.498	19590
896.619	19700
896.74	19670
896.861	19613
896.982	19868
897.103	20024
897.224	19795
897.345	19784
897.466	19791
897.587	19780
897.708	19955
897.828	19864
897.949	19776
898.07	19670
898.19	19826
898.311	19932
898.431	19738
898.552	19921
898.672	19940
898.792	19970
898.913	19860
899.033	19677
899.153	19655
899.273	19594
899.393	19613
899.513	19601
899.633	19556
899.753	19643
899.873	19556
899.993	19693
900.113	19605
900.232	19548
900.352	19502
900.472	19529
900.591	19419
900.711	19476
900.83	19308
900.95	19453
901.069	19495
901.189	19369
901.308	19084
901.427	18947
901.546	18958
901.665	19012
901.784	18977
901.904	18787
902.023	18738
902.141	18528
902.26	18498
902.379	18612
902.498	18437
902.617	18357
902.735	18506
902.854	18422
902.973	18304
903.091	18262
903.21	18155
903.328	18190
903.446	18178
903.565	17977
903.683	18045
903.801	17863
903.919	17904
904.038	17923
904.156	17649
904.274	17832
904.392	17821
904.51	17737
904.627	17646
904.745	17901
904.863	17752
904.981	17543
905.098	17402
905.216	17425
905.334	17402
905.451	17474
905.569	17459
905.686	17478
905.803	17436
905.921	17197
906.038	17303
906.155	17296
906.272	17067
906.389	17128
906.506	16953
906.623	16968
906.74	16949
906.857	16759
906.974	16858
907.091	17079
907.208	17090
907.324	16972
907.441	16938
907.557	16721
907.674	16774
907.79	16694
907.907	16592
908.023	16759
908.139	16592
908.256	16565
908.372	16538
908.488	16584
908.604	16550
908.72	16402
908.836	16432
908.952	16306
909.068	16470
909.184	16554
909.3	16409
909.415	16421
909.531	16462
909.647	16120
909.762	16090
909.878	16131
909.993	16150
910.108	16143
910.224	16017
910.339	16002
910.454	15907
910.57	15850
910.685	15907
910.8	16147
910.915	16128
911.03	15930
911.145	15819
911.259	15667
911.374	15797
911.489	15652
911.604	15682
911.718	15507
911.833	15443
911.947	15389
912.062	15321
912.176	15538
912.291	15504
912.405	15473
912.519	15679
912.633	15698
912.748	15507
912.862	15477
912.976	15340
913.09	15157
913.204	15218
913.318	15340
913.431	15382
913.545	15367
913.659	15275
913.772	15351
913.886	15055
914	15093
914.113	15154
914.226	15154
914.34	15146
914.453	15013
914.566	15135
914.68	14929
914.793	14921
914.906	14712
915.019	14659
915.132	14629
915.245	14678
915.358	14739
915.47	14727
915.583	14613
915.696	14743
915.809	14796
915.921	14880
916.034	14674
916.146	14629
916.259	14571
916.371	14743
916.483	14754
916.595	14556
916.708	14632
916.82	14549
916.932	14499
917.044	14552
917.156	14461
917.268	14415
917.38	14336
917.491	14317
917.603	14313
917.715	14530
917.826	14434
917.938	14294
918.049	14164
918.161	14328
918.272	14488
918.384	14495
918.495	14278
918.606	14183
918.717	14096
918.828	14168
918.939	14202
919.05	14016
919.161	14073
919.272	13974
919.383	13963
919.494	14073
919.604	14446
919.715	14210
919.826	13997
919.936	14096
920.047	14218
920.157	14043
920.267	14294
920.378	14111
920.488	13986
920.598	14195
920.708	14366
920.818	14263
920.928	14298
921.038	14366
921.148	14355
921.258	14088
921.368	13936
921.477	13909
921.587	13887
921.697	13731
921.806	13879
921.916	13639
922.025	13590
922.134	13521
922.244	13445
922.353	13487
922.462	13396
922.571	13312
922.68	13126
922.789	13099
922.898	13091
923.007	13110
923.116	13145
923.224	13072
923.333	13122
923.442	12970
923.55	13031
923.659	12973
923.767	13084
923.876	12935
923.984	12985
924.092	12909
924.201	12924
924.309	12966
924.417	12913
924.525	12833
924.633	12875
924.741	13742
924.849	12631
924.956	12856
925.064	12646
925.172	12563
925.279	12627
925.387	12620
925.494	12563
925.602	12715
925.709	12627
925.816	12513
925.924	12585
926.031	12597
926.138	12536
926.245	12502
926.352	12521
926.459	12547
926.566	12593
926.673	12414
926.779	12330
926.886	12323
926.993	12205
927.099	12205
927.206	12129
927.312	12106
927.419	12285
927.525	12117
927.631	12186
927.737	12095
927.843	12072
927.95	11897
928.056	12019
928.162	12049
928.267	12034
928.373	12544
928.479	12053
928.585	11847
928.69	11965
928.796	11977
928.901	11908
929.007	11779
929.112	11809
929.218	11802
929.323	11821
929.428	11710
929.533	11859
929.638	11699
929.743	11726
929.848	11741
929.953	11760
930.058	11600
930.163	11459
930.267	11505
930.372	11547
930.477	11406
930.581	11547
930.685	11486
930.79	11280
930.894	11376
930.998	11223
931.103	11452
931.207	11067
931.311	10908
931.415	10957
931.519	10748
931.623	10721
