Data from test_V78500241_1845.txt Node
Date: Fri Mar 25 15:22:42 CST 2022
User: usil
Spectrometer: V785-0024
Trigger mode: 0
Integration Time (sec): 4.000000E-1
Scans to average: 1
Nonlinearity correction enabled: false
Boxcar width: 0
Storing dark spectrum: false
XAxis mode: Wavelengths
Number of Pixels in Spectrum: 1024
>>>>>Begin Spectral Data<<<<<
801.071	27770
801.214	27644
801.356	27462
801.499	27367
801.641	27332
801.783	27252
801.926	27275
802.068	27393
802.211	27245
802.353	27173
802.496	26998
802.638	26895
802.78	26891
802.923	26834
803.065	26830
803.208	26910
803.35	26921
803.492	27138
803.635	27009
803.777	26925
803.919	27116
804.061	27355
804.204	27222
804.346	27154
804.488	27051
804.63	27157
804.773	27043
804.915	27009
805.057	27302
805.199	26994
805.341	27138
805.483	27325
805.626	27283
805.768	27279
805.91	27317
806.052	27252
806.194	27256
806.336	27378
806.478	27180
806.62	27283
806.762	27321
806.904	27367
807.046	27759
807.188	27759
807.33	27644
807.472	27671
807.614	27450
807.756	27519
807.898	27488
808.04	27462
808.182	27450
808.324	27500
808.465	27587
808.607	27755
808.749	27804
808.891	27884
809.033	28040
809.174	27934
809.316	27774
809.458	27865
809.6	27770
809.741	27922
809.883	27861
810.025	28162
810.166	28032
810.308	28120
810.45	28166
810.591	28032
810.733	28029
810.875	27804
811.016	27717
811.158	27736
811.299	27823
811.441	27979
811.582	27972
811.724	27869
811.865	27797
812.007	27854
812.148	27797
812.29	27903
812.431	28063
812.573	28131
812.714	28246
812.855	28417
812.997	28500
813.138	28839
813.279	28485
813.421	28447
813.562	28196
813.703	28036
813.845	28013
813.986	27880
814.127	27580
814.268	27686
814.41	27679
814.551	27500
814.692	27671
814.833	27435
814.974	27450
815.115	27481
815.256	27519
815.397	27363
815.539	27462
815.68	27325
815.821	27272
815.962	27523
816.103	27397
816.244	27237
816.385	27108
816.526	27089
816.666	27051
816.807	26693
816.948	26906
817.089	26838
817.23	26891
817.371	26842
817.512	26853
817.653	26845
817.793	26792
817.934	26819
818.075	26864
818.216	26838
818.356	26940
818.497	26587
818.638	26518
818.778	26621
818.919	26564
819.06	26724
819.2	26739
819.341	26792
819.481	26883
819.622	27070
819.762	27195
819.903	27226
820.043	26895
820.184	27051
820.324	27001
820.465	26910
820.605	27024
820.746	26857
820.886	26918
821.026	26842
821.167	26948
821.307	26975
821.447	26838
821.588	26819
821.728	26590
821.868	26545
822.008	26320
822.149	26187
822.289	26233
822.429	25963
822.569	25936
822.709	25955
822.849	25925
822.99	25909
823.13	25738
823.27	25708
823.41	25704
823.55	25438
823.69	25597
823.83	25628
823.97	25521
824.11	25419
824.25	25419
824.389	25483
824.529	25476
824.669	25518
824.809	25582
824.949	25613
825.089	25457
825.228	25510
825.368	25415
825.508	25346
825.648	25441
825.787	25495
825.927	25502
826.067	25514
826.206	25274
826.346	25297
826.485	25362
826.625	25400
826.765	25464
826.904	25346
827.044	25042
827.183	25164
827.323	25008
827.462	25145
827.601	25175
827.741	25004
827.88	25137
828.02	24928
828.159	25069
828.298	24935
828.437	25145
828.577	25050
828.716	25225
828.855	24981
828.994	24825
829.134	24791
829.273	24798
829.412	24741
829.551	24768
829.69	24795
829.829	24722
829.968	24951
830.107	24875
830.246	24738
830.385	24669
830.524	24661
830.663	24623
830.802	24551
830.941	24418
831.08	24490
831.219	24494
831.357	24517
831.496	24795
831.635	24327
831.774	24418
831.913	24232
832.051	24213
832.19	24091
832.329	24224
832.467	24106
832.606	23874
832.744	24053
832.883	24095
833.022	23999
833.16	24057
833.299	24167
833.437	24174
833.576	24091
833.714	24095
833.852	24247
833.991	24262
834.129	24201
834.267	24243
834.406	24114
834.544	24190
834.682	24178
834.821	24167
834.959	24330
835.097	23984
835.235	24148
835.373	24133
835.511	24209
835.65	23942
835.788	23958
835.926	23931
836.064	23737
836.202	23878
836.34	23973
836.478	24125
836.615	23946
836.753	23889
836.891	24091
837.029	24018
837.167	23977
837.305	23878
837.443	23851
837.58	23802
837.718	23866
837.856	23821
837.993	23661
838.131	23786
838.269	23661
838.406	23809
838.544	23627
838.681	23638
838.819	23459
838.956	23200
839.094	23372
839.231	23337
839.369	23604
839.506	23672
839.643	23581
839.781	23303
839.918	23261
840.055	23326
840.193	23334
840.33	23189
840.467	23250
840.604	23261
840.742	23634
840.879	23048
841.016	23162
841.153	23090
841.29	23330
841.427	23277
841.564	23242
841.701	23280
841.838	23159
841.975	23037
842.112	23094
842.249	23075
842.385	23044
842.522	23117
842.659	23132
842.796	22961
842.933	22957
843.069	23018
843.206	22930
843.343	23090
843.479	23048
843.616	23025
843.752	22873
843.889	22850
844.025	22930
844.162	22759
844.298	22824
844.435	22755
844.571	22592
844.708	22839
844.844	22889
844.98	22885
845.117	22759
845.253	22824
845.389	22580
845.525	22622
845.661	22565
845.798	22523
845.934	22611
846.07	22489
846.206	22489
846.342	22557
846.478	22443
846.614	22329
846.75	22234
846.886	22120
847.022	22371
847.158	22238
847.294	22287
847.429	22276
847.565	22150
847.701	22447
847.837	21915
847.972	21865
848.108	22021
848.244	21983
848.379	21808
848.515	21751
848.65	21842
848.786	21941
848.921	21884
849.057	21937
849.192	21884
849.328	21823
849.463	21827
849.598	21831
849.734	21736
849.869	21732
850.004	21568
850.14	21656
850.275	21679
850.41	21606
850.545	21473
850.68	21519
850.815	21576
850.95	21511
851.085	21800
851.22	21766
851.355	21667
851.49	21469
851.625	21515
851.76	21576
851.895	21618
852.03	21511
852.165	21698
852.299	21789
852.434	21823
852.569	21762
852.703	21675
852.838	21618
852.973	21599
853.107	21709
853.242	21424
853.376	21401
853.511	21378
853.645	21378
853.78	21496
853.914	21412
854.048	21420
854.183	21363
854.317	21477
854.451	21591
854.585	21416
854.72	21401
854.854	21370
854.988	21302
855.122	21408
855.256	21173
855.39	21439
855.524	21500
855.658	21428
855.792	21351
855.926	21488
856.06	21405
856.194	21405
856.327	21443
856.461	21264
856.595	21340
856.729	21431
856.862	21496
856.996	21443
857.13	21462
857.263	21485
857.397	21477
857.53	21275
857.664	21374
857.797	21397
857.931	21439
858.064	21408
858.197	21515
858.331	21325
858.464	21306
858.597	21310
858.731	21256
858.864	21458
858.997	21462
859.13	21496
859.263	21469
859.396	21408
859.529	21340
859.662	21363
859.795	21222
859.928	21412
860.061	21553
860.194	21428
860.327	21435
860.46	21405
860.592	21519
860.725	21534
860.858	21469
860.99	21431
861.123	21412
861.256	21321
861.388	21363
861.521	22128
861.653	21230
861.786	21294
861.918	21260
862.05	21260
862.183	21203
862.315	21367
862.447	21386
862.58	21321
862.712	21207
862.844	21077
862.976	21142
863.108	21077
863.24	21500
863.372	21116
863.504	21203
863.636	21203
863.768	21161
863.9	21192
864.032	21051
864.164	21104
864.296	21180
864.428	21176
864.559	21199
864.691	21146
864.823	21157
864.954	21298
865.086	21074
865.217	20979
865.349	20979
865.48	20994
865.612	21062
865.743	21176
865.875	21119
866.006	20971
866.137	20872
866.269	21032
866.4	21005
866.531	20982
866.662	20944
866.793	20933
866.924	20899
867.055	21085
867.186	21058
867.317	20849
867.448	20823
867.579	21036
867.71	20941
867.841	20868
867.972	21036
868.103	20823
868.233	21062
868.364	21058
868.495	21135
868.625	21093
868.756	21260
868.886	21161
869.017	21230
869.147	21211
869.278	21298
869.408	21222
869.539	21188
869.669	21233
869.799	21096
869.929	21355
870.06	21176
870.19	21389
870.32	21526
870.45	21492
870.58	21633
870.71	21561
870.84	21587
870.97	21545
871.1	21526
871.23	21675
871.36	21770
871.489	21671
871.619	21804
871.749	21785
871.879	21766
872.008	22006
872.138	21793
872.267	21808
872.397	21583
872.526	21542
872.656	21675
872.785	21610
872.915	21728
873.044	21842
873.173	21842
873.303	21762
873.432	21907
873.561	22021
873.69	21873
873.819	21804
873.948	21831
874.077	21968
874.206	21713
874.335	21766
874.464	21812
874.593	22021
874.722	22013
874.851	22044
874.979	21956
875.108	22086
875.237	22017
875.365	21747
875.494	22055
875.623	21987
875.751	21983
875.88	22128
876.008	22124
876.136	22192
876.265	22409
876.393	22630
876.521	22569
876.65	22550
876.778	22462
876.906	22367
877.034	22371
877.162	22409
877.29	22337
877.418	22424
877.546	22295
877.674	22352
877.802	22337
877.93	22287
878.058	22280
878.185	22166
878.313	22280
878.441	22352
878.568	22287
878.696	22287
878.824	22295
878.951	22550
879.079	22447
879.206	22687
879.333	22516
879.461	22314
879.588	22584
879.715	22466
879.842	22687
879.97	22303
880.097	22234
880.224	22173
880.351	22230
880.478	22207
880.605	22116
880.732	22150
880.859	22478
880.986	22192
881.112	22162
881.239	22139
881.366	21926
881.493	21903
881.619	21800
881.746	21774
881.872	21827
881.999	21694
882.125	21644
882.252	21797
882.378	21755
882.505	21690
882.631	21633
882.757	21477
882.883	21557
883.01	21458
883.136	21382
883.262	21272
883.388	21302
883.514	21454
883.64	21515
883.766	21416
883.892	21165
884.018	21317
884.143	21447
884.269	21481
884.395	21260
884.52	21036
884.646	21230
884.772	21127
884.897	20918
885.023	21161
885.148	21218
885.274	21180
885.399	21123
885.524	21074
885.65	21161
885.775	21066
885.9	21119
886.025	21131
886.15	21207
886.275	21039
886.4	21005
886.525	21127
886.65	21135
886.775	20902
886.9	21077
887.025	21329
887.149	21100
887.274	20887
887.399	20823
887.523	20883
887.648	20773
887.773	20667
887.897	20849
888.021	20815
888.146	20758
888.27	20948
888.395	20998
888.519	20986
888.643	20956
888.767	20910
888.891	20655
889.015	20667
889.139	20754
889.263	20644
889.387	20750
889.511	20872
889.635	20826
889.759	20735
889.883	20655
890.006	20689
890.13	20796
890.254	20415
890.377	20590
890.501	20370
890.624	20358
890.748	20476
890.871	20313
890.995	20218
891.118	20149
891.241	20168
891.364	20305
891.488	20343
891.611	20271
891.734	20259
891.857	20343
891.98	20225
892.103	20282
892.226	20081
892.349	20138
892.471	19947
892.594	20157
892.717	20214
892.839	20111
892.962	20081
893.085	20202
893.207	20157
893.33	20058
893.452	20058
893.575	20119
893.697	20145
893.819	20313
893.941	20305
894.064	20294
894.186	20157
894.308	20008
894.43	20282
894.552	20278
894.674	20142
894.796	20073
894.918	20111
895.04	20062
895.161	20157
895.283	20145
895.405	20020
895.526	20172
895.648	20176
895.769	20081
895.891	20138
896.012	20229
896.134	20199
896.255	20199
896.376	20115
896.498	20153
896.619	20153
896.74	20134
896.861	20164
896.982	20473
897.103	20579
897.224	20389
897.345	20431
897.466	20305
897.587	20229
897.708	20427
897.828	20309
897.949	20259
898.07	20298
898.19	20313
898.311	20431
898.431	20298
898.552	20290
898.672	20415
898.792	20339
898.913	20286
899.033	20267
899.153	20157
899.273	20084
899.393	20138
899.513	20115
899.633	20084
899.753	20153
899.873	20001
899.993	20149
900.113	19978
900.232	20031
900.352	19940
900.472	19906
900.591	19769
900.711	19818
900.83	19822
900.95	19970
901.069	19932
901.189	19791
901.308	19563
901.427	19415
901.546	19396
901.665	19388
901.784	19548
901.904	19335
902.023	19141
902.141	19141
902.26	18932
902.379	19023
902.498	18901
902.617	18958
902.735	19019
902.854	18833
902.973	18833
903.091	18753
903.21	18570
903.328	18650
903.446	18597
903.565	18384
903.683	18422
903.801	18308
903.919	18433
904.038	18380
904.156	18209
904.274	18266
904.392	18209
904.51	18136
904.627	18239
904.745	18262
904.863	18197
904.981	18144
905.098	17874
905.216	17866
905.334	17920
905.451	17908
905.569	17771
905.686	17817
905.803	17817
905.921	17714
906.038	17760
906.155	17661
906.272	17554
906.389	17554
906.506	17387
906.623	17376
906.74	17288
906.857	17349
906.974	17330
907.091	17528
907.208	17516
907.324	17421
907.441	17273
907.557	17155
907.674	17121
907.79	17071
907.907	17086
908.023	17143
908.139	17166
908.256	17056
908.372	16972
908.488	16991
908.604	16942
908.72	16763
908.836	16858
908.952	16869
909.068	16885
909.184	16938
909.3	16911
909.415	16869
909.531	16831
909.647	16611
909.762	16527
909.878	16603
909.993	16554
910.108	16580
910.224	16542
910.339	16531
910.454	16257
910.57	16375
910.685	16268
910.8	16428
910.915	16523
911.03	16329
911.145	16242
911.259	16082
911.374	16192
911.489	16158
911.604	16048
911.718	15918
911.833	15926
911.947	15819
912.062	15709
912.176	15850
912.291	15808
912.405	15873
912.519	16006
912.633	16036
912.748	15964
912.862	15888
912.976	15747
913.09	15599
913.204	15679
913.318	15701
913.431	15717
913.545	15762
913.659	15751
913.772	15774
913.886	15564
914	15450
914.113	15591
914.226	15557
914.34	15591
914.453	15462
914.566	15538
914.68	15389
914.793	15294
914.906	15123
915.019	15047
915.132	15055
915.245	15097
915.358	15188
915.47	15157
915.583	15169
915.696	15154
915.809	15313
915.921	15218
916.034	15005
916.146	15089
916.259	15024
916.371	15169
916.483	15058
916.595	14918
916.708	14975
916.82	14845
916.932	14971
917.044	14864
917.156	14876
917.268	14861
917.38	14769
917.491	14750
917.603	14743
917.715	14800
917.826	14876
917.938	14712
918.049	14602
918.161	14625
918.272	14815
918.384	14944
918.495	14750
918.606	14564
918.717	14488
918.828	14511
918.939	14648
919.05	14450
919.161	14438
919.272	14355
919.383	14476
919.494	14552
919.604	14625
919.715	14621
919.826	14381
919.936	14503
920.047	14545
920.157	14514
920.267	14648
920.378	14450
920.488	14434
920.598	14655
920.708	14830
920.818	14579
920.928	14480
921.038	14727
921.148	14651
921.258	14476
921.368	14347
921.477	14278
921.587	14271
921.697	14069
921.806	14180
921.916	14039
922.025	13932
922.134	13875
922.244	13856
922.353	13879
922.462	13719
922.571	13628
922.68	13540
922.789	13476
922.898	13609
923.007	13400
923.116	13620
923.224	13434
923.333	13510
923.442	13308
923.55	13316
923.659	13362
923.767	13434
923.876	13274
923.984	13297
924.092	13263
924.201	13217
924.309	13293
924.417	13263
924.525	13076
924.633	13198
924.741	14115
924.849	13008
924.956	13103
925.064	12981
925.172	12890
925.279	12928
925.387	12981
925.494	12798
925.602	13057
925.709	12894
925.816	12821
925.924	12894
926.031	12920
926.138	12928
926.245	12848
926.352	12825
926.459	12840
926.566	12943
926.673	12779
926.779	12627
926.886	12631
926.993	12441
927.099	12601
927.206	12528
927.312	12395
927.419	12509
927.525	12460
927.631	12433
927.737	12388
927.843	12388
927.95	12213
928.056	12258
928.162	12372
928.267	12391
928.373	12886
928.479	12365
928.585	12121
928.69	12266
928.796	12327
928.901	12152
929.007	11999
929.112	12186
929.218	12251
929.323	11984
929.428	11950
929.533	12079
929.638	12053
929.743	11988
929.848	12053
929.953	12003
930.058	11832
930.163	11794
930.267	11665
930.372	11840
930.477	11699
930.581	11977
930.685	11779
930.79	11638
930.894	11638
930.998	11577
931.103	11657
931.207	11349
931.311	11235
931.415	11151
931.519	11029
931.623	11079
