Data from test_V78500241_573.txt Node
Date: Fri Mar 25 15:13:50 CST 2022
User: usil
Spectrometer: V785-0024
Trigger mode: 0
Integration Time (sec): 4.000000E-1
Scans to average: 1
Nonlinearity correction enabled: false
Boxcar width: 0
Storing dark spectrum: false
XAxis mode: Wavelengths
Number of Pixels in Spectrum: 1024
>>>>>Begin Spectral Data<<<<<
801.071	27298
801.214	27173
801.356	26823
801.499	26990
801.641	26963
801.783	26823
801.926	26948
802.068	26815
802.211	26773
802.353	26682
802.496	26507
802.638	26549
802.78	26442
802.923	26438
803.065	26366
803.208	26412
803.35	26339
803.492	26556
803.635	26617
803.777	26404
803.919	26587
804.061	26883
804.204	26621
804.346	26590
804.488	26590
804.63	26636
804.773	26533
804.915	26674
805.057	26727
805.199	26720
805.341	26777
805.483	26674
805.626	26712
805.768	26667
805.91	26609
806.052	26830
806.194	26632
806.336	26895
806.478	26678
806.62	26693
806.762	27028
806.904	26929
807.046	27188
807.188	27256
807.33	27218
807.472	27233
807.614	27077
807.756	27165
807.898	26952
808.04	26971
808.182	26914
808.324	27058
808.465	27123
808.607	27192
808.749	27169
808.891	27389
809.033	27542
809.174	27424
809.316	27374
809.458	27450
809.6	27500
809.741	27492
809.883	27485
810.025	27682
810.166	27709
810.308	27717
810.45	27675
810.591	27534
810.733	27454
810.875	27382
811.016	27264
811.158	27154
811.299	27348
811.441	27526
811.582	27477
811.724	27321
811.865	27203
812.007	27313
812.148	27325
812.29	27424
812.431	27500
812.573	27736
812.714	27816
812.855	27865
812.997	28025
813.138	28219
813.279	28013
813.421	27987
813.562	27804
813.703	27595
813.845	27568
813.986	27488
814.127	27237
814.268	27051
814.41	27058
814.551	26960
814.692	27100
814.833	27100
814.974	26998
815.115	26921
815.256	26929
815.397	26948
815.539	26880
815.68	26883
815.821	26682
815.962	26960
816.103	26765
816.244	26689
816.385	26625
816.526	26602
816.666	26545
816.807	26267
816.948	26404
817.089	26408
817.23	26473
817.371	26320
817.512	26362
817.653	26282
817.793	26225
817.934	26180
818.075	26317
818.216	26199
818.356	26172
818.497	26138
818.638	26088
818.778	26046
818.919	26043
819.06	26100
819.2	26229
819.341	26301
819.481	26351
819.622	26431
819.762	26659
819.903	26609
820.043	26412
820.184	26427
820.324	26556
820.465	26541
820.605	26583
820.746	26358
820.886	26256
821.026	26370
821.167	26453
821.307	26427
821.447	26396
821.588	26199
821.728	26115
821.868	26012
822.008	25856
822.149	25849
822.289	25727
822.429	25537
822.569	25597
822.709	25510
822.849	25377
822.99	25160
823.13	25255
823.27	25236
823.41	25126
823.55	25145
823.69	25137
823.83	25084
823.97	25069
824.11	25023
824.25	24928
824.389	24958
824.529	25069
824.669	24890
824.809	25175
824.949	24958
825.089	25069
825.228	24958
825.368	24837
825.508	24905
825.648	24825
825.787	24928
825.927	24909
826.067	24833
826.206	24760
826.346	24738
826.485	25023
826.625	24897
826.765	24932
826.904	24833
827.044	24604
827.183	24650
827.323	24391
827.462	24490
827.601	24486
827.741	24578
827.88	24448
828.02	24308
828.159	24532
828.298	24544
828.437	24490
828.577	24475
828.716	24631
828.855	24445
828.994	24289
829.134	24277
829.273	24285
829.412	24228
829.551	24197
829.69	24251
829.829	24315
829.968	24254
830.107	24319
830.246	24224
830.385	24171
830.524	24133
830.663	23961
830.802	23908
830.941	23745
831.08	23798
831.219	23980
831.357	23916
831.496	24159
831.635	23821
831.774	23779
831.913	23703
832.051	23661
832.19	23668
832.329	23661
832.467	23482
832.606	23493
832.744	23398
832.883	23467
833.022	23585
833.16	23585
833.299	23573
833.437	23520
833.576	23608
833.714	23531
833.852	23600
833.991	23592
834.129	23646
834.267	23760
834.406	23623
834.544	23524
834.682	23668
834.821	23558
834.959	23684
835.097	23566
835.235	23627
835.373	23501
835.511	23581
835.65	23436
835.788	23406
835.926	23246
836.064	23307
836.202	23292
836.34	23440
836.478	23551
836.615	23353
836.753	23452
836.891	23516
837.029	23505
837.167	23398
837.305	23265
837.443	23330
837.58	23261
837.718	23166
837.856	23414
837.993	23105
838.131	23299
838.269	23128
838.406	23261
838.544	22991
838.681	22869
838.819	22961
838.956	22786
839.094	22771
839.231	22672
839.369	23033
839.506	23121
839.643	23044
839.781	22767
839.918	22744
840.055	22889
840.193	22702
840.33	22706
840.467	22596
840.604	22694
840.742	22980
840.879	22466
841.016	22580
841.153	22538
841.29	22706
841.427	22653
841.564	22687
841.701	22660
841.838	22527
841.975	22626
842.112	22634
842.249	22500
842.385	22481
842.522	22710
842.659	22523
842.796	22542
842.933	22413
843.069	22375
843.206	22337
843.343	22660
843.479	22436
843.616	22386
843.752	22299
843.889	22204
844.025	22352
844.162	22185
844.298	22318
844.435	22204
844.571	22021
844.708	22166
844.844	22413
844.98	22253
845.117	22246
845.253	22177
845.389	22246
845.525	22010
845.661	22070
845.798	21895
845.934	22021
846.07	21941
846.206	21979
846.342	22051
846.478	21911
846.614	21698
846.75	21751
846.886	21778
847.022	21774
847.158	21629
847.294	21778
847.429	21671
847.565	21644
847.701	21827
847.837	21405
847.972	21424
848.108	21530
848.244	21481
848.379	21344
848.515	21241
848.65	21237
848.786	21340
848.921	21249
849.057	21462
849.192	21443
849.328	21203
849.463	21272
849.598	21245
849.734	21226
849.869	21173
850.004	21043
850.14	21020
850.275	21055
850.41	20861
850.545	20929
850.68	21032
850.815	20963
850.95	20963
851.085	21150
851.22	21062
851.355	21119
851.49	21123
851.625	20906
851.76	21051
851.895	20967
852.03	21066
852.165	21077
852.299	21055
852.434	21028
852.569	21043
852.703	21058
852.838	21104
852.973	21081
853.107	21135
853.242	20982
853.376	20895
853.511	20769
853.645	20925
853.78	20853
853.914	20941
854.048	20739
854.183	20857
854.317	20967
854.451	21131
854.585	20899
854.72	20785
854.854	20872
854.988	20861
855.122	20868
855.256	20739
855.39	20864
855.524	20948
855.658	20944
855.792	20872
855.926	20933
856.06	20769
856.194	20979
856.327	20788
856.461	20765
856.595	20773
856.729	20887
856.862	20933
856.996	20975
857.13	20941
857.263	21047
857.397	20853
857.53	20883
857.664	20891
857.797	20899
857.931	20975
858.064	20925
858.197	21024
858.331	20800
858.464	20705
858.597	20743
858.731	20746
858.864	20811
858.997	20743
859.13	20880
859.263	20979
859.396	20971
859.529	20895
859.662	20777
859.795	20758
859.928	20861
860.061	20902
860.194	21009
860.327	20929
860.46	20868
860.592	21001
860.725	20967
860.858	20902
860.99	20895
861.123	20712
861.256	20849
861.388	20823
861.521	21701
861.653	20693
861.786	20659
861.918	20644
862.05	20804
862.183	20705
862.315	20819
862.447	20853
862.58	20796
862.712	20526
862.844	20541
862.976	20560
863.108	20727
863.24	21066
863.372	20408
863.504	20469
863.636	20552
863.768	20598
863.9	20476
864.032	20556
864.164	20533
864.296	20602
864.428	20613
864.559	20693
864.691	20689
864.823	20590
864.954	20609
865.086	20427
865.217	20541
865.349	20454
865.48	20438
865.612	20495
865.743	20587
865.875	20549
866.006	20457
866.137	20347
866.269	20419
866.4	20442
866.531	20438
866.662	20278
866.793	20431
866.924	20465
867.055	20385
867.186	20522
867.317	20320
867.448	20248
867.579	20351
867.71	20362
867.841	20294
867.972	20408
868.103	20370
868.233	20347
868.364	20511
868.495	20571
868.625	20575
868.756	20682
868.886	20495
869.017	20727
869.147	20781
869.278	20765
869.408	20640
869.539	20769
869.669	20720
869.799	20720
869.929	20773
870.06	20716
870.19	20994
870.32	20986
870.45	20891
870.58	21116
870.71	21180
870.84	21146
870.97	21089
871.1	20982
871.23	21154
871.36	21211
871.489	21195
871.619	21138
871.749	21272
871.879	21230
872.008	21344
872.138	21340
872.267	21211
872.397	21085
872.526	21047
872.656	21176
872.785	21055
872.915	21283
873.044	21363
873.173	21279
873.303	21310
873.432	21294
873.561	21393
873.69	21332
873.819	21192
873.948	21302
874.077	21408
874.206	21214
874.335	21313
874.464	21378
874.593	21500
874.722	21454
874.851	21488
874.979	21553
875.108	21549
875.237	21496
875.365	21374
875.494	21564
875.623	21515
875.751	21538
875.88	21549
876.008	21755
876.136	21603
876.265	21934
876.393	21979
876.521	21945
876.65	22002
876.778	21968
876.906	21781
877.034	21888
877.162	21880
877.29	21797
877.418	21926
877.546	21739
877.674	21895
877.802	21850
877.93	21720
878.058	21724
878.185	21781
878.313	21793
878.441	21770
878.568	21660
878.696	21656
878.824	21941
878.951	21911
879.079	22105
879.206	22162
879.333	21930
879.461	21823
879.588	21842
879.715	22063
879.842	22158
879.97	21903
880.097	21736
880.224	21751
880.351	21705
880.478	21739
880.605	21694
880.732	21667
880.859	21804
880.986	21667
881.112	21675
881.239	21500
881.366	21523
881.493	21294
881.619	21245
881.746	21268
881.872	21268
881.999	21249
882.125	21135
882.252	21298
882.378	21329
882.505	21412
882.631	21138
882.757	21119
882.883	21093
883.01	20944
883.136	20990
883.262	20880
883.388	20796
883.514	20994
883.64	20979
883.766	20796
883.892	20697
884.018	20781
884.143	20834
884.269	20910
884.395	20689
884.52	20674
884.646	20629
884.772	20549
884.897	20564
885.023	20476
885.148	20663
885.274	20849
885.399	20678
885.524	20705
885.65	20648
885.775	20727
885.9	20667
886.025	20777
886.15	20598
886.275	20590
886.4	20476
886.525	20480
886.65	20492
886.775	20556
886.9	20769
887.025	20716
887.149	20613
887.274	20492
887.399	20454
887.523	20339
887.648	20374
887.773	20172
887.897	20492
888.021	20332
888.146	20248
888.27	20457
888.395	20564
888.519	20313
888.643	20339
888.767	20385
888.891	20332
889.015	20214
889.139	20237
889.263	20050
889.387	20290
889.511	20362
889.635	20221
889.759	20210
889.883	20183
890.006	20221
890.13	20199
890.254	20100
890.377	20122
890.501	19963
890.624	20008
890.748	20054
890.871	19822
890.995	19712
891.118	19651
891.241	19856
891.364	19837
891.488	19898
891.611	19841
891.734	19776
891.857	19742
891.98	19715
892.103	19795
892.226	19791
892.349	19628
892.471	19635
892.594	19514
892.717	19662
892.839	19655
892.962	19681
893.085	19734
893.207	19635
893.33	19533
893.452	19495
893.575	19674
893.697	19616
893.819	19826
893.941	19807
894.064	19791
894.186	19647
894.308	19544
894.43	19769
894.552	19738
894.674	19757
894.796	19616
894.918	19643
895.04	19670
895.161	19761
895.283	19746
895.405	19533
895.526	19651
895.648	19727
895.769	19685
895.891	19719
896.012	19772
896.134	19708
896.255	19837
896.376	19578
896.498	19753
896.619	19765
896.74	19761
896.861	19731
896.982	20043
897.103	20145
897.224	19932
897.345	19917
897.466	19845
897.587	19852
897.708	19970
897.828	19997
897.949	19818
898.07	19700
898.19	19791
898.311	19940
898.431	19871
898.552	19841
898.672	19925
898.792	19967
898.913	19944
899.033	19811
899.153	19738
899.273	19624
899.393	19708
899.513	19643
899.633	19780
899.753	19734
899.873	19780
899.993	19700
900.113	19658
900.232	19624
900.352	19521
900.472	19480
900.591	19358
900.711	19396
900.83	19278
900.95	19514
901.069	19582
901.189	19346
901.308	19088
901.427	19160
901.546	19179
901.665	19065
901.784	19061
901.904	18920
902.023	18741
902.141	18627
902.26	18544
902.379	18654
902.498	18566
902.617	18422
902.735	18658
902.854	18544
902.973	18502
903.091	18197
903.21	18190
903.328	18296
903.446	18209
903.565	17961
903.683	18045
903.801	18022
903.919	18038
904.038	17992
904.156	17866
904.274	17893
904.392	17718
904.51	17843
904.627	17729
904.745	17859
904.863	17828
904.981	17554
905.098	17406
905.216	17429
905.334	17474
905.451	17505
905.569	17471
905.686	17482
905.803	17478
905.921	17360
906.038	17391
906.155	17292
906.272	17231
906.389	17140
906.506	17052
906.623	17003
906.74	17022
906.857	16919
906.974	16930
907.091	17174
907.208	17102
907.324	17037
907.441	16854
907.557	16797
907.674	16782
907.79	16763
907.907	16702
908.023	16763
908.139	16771
908.256	16698
908.372	16611
908.488	16558
908.604	16497
908.72	16325
908.836	16535
908.952	16413
909.068	16421
909.184	16535
909.3	16538
909.415	16451
909.531	16424
909.647	16120
909.762	16116
909.878	16150
909.993	16147
910.108	16192
910.224	16086
910.339	16101
910.454	16021
910.57	15983
910.685	15915
910.8	16238
910.915	16238
911.03	16010
911.145	15835
911.259	15789
911.374	15857
911.489	15629
911.604	15705
911.718	15606
911.833	15492
911.947	15496
912.062	15336
912.176	15500
912.291	15542
912.405	15500
912.519	15584
912.633	15644
912.748	15553
912.862	15466
912.976	15488
913.09	15241
913.204	15252
913.318	15344
913.431	15325
913.545	15447
913.659	15428
913.772	15291
913.886	15180
914	15241
914.113	15222
914.226	15211
914.34	15157
914.453	15036
914.566	15211
914.68	15055
914.793	14944
914.906	14868
915.019	14750
915.132	14659
915.245	14819
915.358	14800
915.47	14735
915.583	14739
915.696	14788
915.809	14849
915.921	14891
916.034	14625
916.146	14659
916.259	14602
916.371	14754
916.483	14739
916.595	14560
916.708	14670
916.82	14583
916.932	14636
917.044	14533
917.156	14579
917.268	14415
917.38	14396
917.491	14400
917.603	14408
917.715	14549
917.826	14613
917.938	14328
918.049	14313
918.161	14484
918.272	14533
918.384	14583
918.495	14438
918.606	14195
918.717	14244
918.828	14256
918.939	14240
919.05	14046
919.161	14138
919.272	13967
919.383	14054
919.494	14157
919.604	14358
919.715	14244
919.826	14157
919.936	14084
920.047	14225
920.157	14187
920.267	14408
920.378	14221
920.488	14214
920.598	14332
920.708	14412
920.818	14328
920.928	14286
921.038	14530
921.148	14484
921.258	14096
921.368	14062
921.477	13887
921.587	13928
921.697	13803
921.806	13921
921.916	13757
922.025	13636
922.134	13582
922.244	13502
922.353	13601
922.462	13422
922.571	13426
922.68	13308
922.789	13221
922.898	13263
923.007	13179
923.116	13301
923.224	13285
923.333	13164
923.442	13080
923.55	13012
923.659	12981
923.767	13072
923.876	12989
923.984	13122
924.092	12913
924.201	13057
924.309	12996
924.417	13019
924.525	12795
924.633	12871
924.741	13826
924.849	12646
924.956	12852
925.064	12692
925.172	12631
925.279	12673
925.387	12673
925.494	12642
925.602	12734
925.709	12669
925.816	12525
925.924	12551
926.031	12757
926.138	12582
926.245	12620
926.352	12502
926.459	12681
926.566	12631
926.673	12433
926.779	12506
926.886	12388
926.993	12323
927.099	12304
927.206	12319
927.312	12133
927.419	12216
927.525	12258
927.631	12254
927.737	12152
927.843	12083
927.95	11923
928.056	12022
928.162	12030
928.267	12053
928.373	12722
928.479	12186
928.585	11847
928.69	12026
928.796	12041
928.901	11901
929.007	11828
929.112	12011
929.218	11889
929.323	11775
929.428	11840
929.533	11973
929.638	11653
929.743	11710
929.848	11783
929.953	11707
930.058	11642
930.163	11452
930.267	11493
930.372	11570
930.477	11406
930.581	11638
930.685	11501
930.79	11406
930.894	11379
930.998	11387
931.103	11452
931.207	11098
931.311	11018
931.415	10949
931.519	10759
931.623	10702
