Data from test_V78500241_3139.txt Node
Date: Fri Mar 25 15:31:43 CST 2022
User: usil
Spectrometer: V785-0024
Trigger mode: 0
Integration Time (sec): 4.000000E-1
Scans to average: 1
Nonlinearity correction enabled: false
Boxcar width: 0
Storing dark spectrum: false
XAxis mode: Wavelengths
Number of Pixels in Spectrum: 1024
>>>>>Begin Spectral Data<<<<<
801.071	27123
801.214	27211
801.356	26895
801.499	26758
801.641	26594
801.783	26815
801.926	26648
802.068	26651
802.211	26655
802.353	26609
802.496	26499
802.638	26305
802.78	26332
802.923	26199
803.065	26214
803.208	26408
803.35	26385
803.492	26282
803.635	26461
803.777	26358
803.919	26473
804.061	26853
804.204	26453
804.346	26419
804.488	26256
804.63	26560
804.773	26267
804.915	26385
805.057	26609
805.199	26446
805.341	26442
805.483	26625
805.626	26689
805.768	26587
805.91	26499
806.052	26541
806.194	26476
806.336	26731
806.478	26587
806.62	26530
806.762	26644
806.904	26705
807.046	27047
807.188	26979
807.33	26975
807.472	27055
807.614	26979
807.756	26963
807.898	26891
808.04	26750
808.182	26804
808.324	26712
808.465	26876
808.607	26948
808.749	27131
808.891	27378
809.033	27268
809.174	27310
809.316	27268
809.458	27154
809.6	27119
809.741	27222
809.883	27256
810.025	27507
810.166	27427
810.308	27443
810.45	27233
810.591	27454
810.733	27169
810.875	27165
811.016	27062
811.158	27146
811.299	27264
811.441	27389
811.582	27317
811.724	27119
811.865	27104
812.007	27096
812.148	27123
812.29	27146
812.431	27264
812.573	27386
812.714	27553
812.855	27576
812.997	27759
813.138	27937
813.279	27762
813.421	27701
813.562	27625
813.703	27492
813.845	27359
813.986	26971
814.127	26963
814.268	26807
814.41	26815
814.551	26815
814.692	26979
814.833	26769
814.974	26826
815.115	26834
815.256	26564
815.397	26708
815.539	26781
815.68	26670
815.821	26621
815.962	26697
816.103	26533
816.244	26404
816.385	26400
816.526	26450
816.666	26130
816.807	26130
816.948	26130
817.089	26199
817.23	26073
817.371	26145
817.512	25986
817.653	25898
817.793	26073
817.934	26012
818.075	26005
818.216	26142
818.356	26035
818.497	26054
818.638	25761
818.778	25871
818.919	25871
819.06	25902
819.2	25871
819.341	26043
819.481	26016
819.622	26142
819.762	26446
819.903	26267
820.043	26343
820.184	26252
820.324	26221
820.465	26202
820.605	26115
820.746	26134
820.886	25883
821.026	26161
821.167	26046
821.307	26111
821.447	26119
821.588	25917
821.728	25742
821.868	25578
822.008	25552
822.149	25533
822.289	25506
822.429	25270
822.569	25141
822.709	25244
822.849	25050
822.99	25053
823.13	24985
823.27	24958
823.41	24844
823.55	24753
823.69	24916
823.83	24867
823.97	24928
824.11	24635
824.25	24726
824.389	24772
824.529	24726
824.669	24688
824.809	24772
824.949	24650
825.089	24722
825.228	24665
825.368	24547
825.508	24555
825.648	24505
825.787	24604
825.927	24635
826.067	24498
826.206	24585
826.346	24582
826.485	24658
826.625	24407
826.765	24776
826.904	24517
827.044	24258
827.183	24235
827.323	24148
827.462	24361
827.601	24228
827.741	24121
827.88	24232
828.02	24152
828.159	24232
828.298	24292
828.437	24357
828.577	24182
828.716	24292
828.855	24155
828.994	23927
829.134	24060
829.273	24022
829.412	24026
829.551	23897
829.69	23931
829.829	23977
829.968	24140
830.107	24053
830.246	24076
830.385	23874
830.524	23973
830.663	23855
830.802	23642
830.941	23661
831.08	23573
831.219	23531
831.357	23691
831.496	23760
831.635	23573
831.774	23558
831.913	23459
832.051	23410
832.19	23417
832.329	23433
832.467	23231
832.606	23318
832.744	23246
832.883	23261
833.022	23143
833.16	23273
833.299	23406
833.437	23299
833.576	23193
833.714	23436
833.852	23398
833.991	23330
834.129	23379
834.267	23398
834.406	23341
834.544	23368
834.682	23315
834.821	23280
834.959	23524
835.097	23288
835.235	23337
835.373	23231
835.511	23288
835.65	23216
835.788	23181
835.926	23037
836.064	23067
836.202	23098
836.34	23162
836.478	23128
836.615	23178
836.753	23197
836.891	23273
837.029	23227
837.167	23265
837.305	23075
837.443	22987
837.58	23075
837.718	23010
837.856	23029
837.993	23018
838.131	23014
838.269	22900
838.406	22946
838.544	22736
838.681	22752
838.819	22599
838.956	22436
839.094	22447
839.231	22592
839.369	22759
839.506	22991
839.643	22782
839.781	22611
839.918	22527
840.055	22516
840.193	22451
840.33	22443
840.467	22497
840.604	22489
840.742	22774
840.879	22337
841.016	22367
841.153	22276
841.29	22512
841.427	22390
841.564	22440
841.701	22455
841.838	22424
841.975	22322
842.112	22390
842.249	22325
842.385	22310
842.522	22478
842.659	22265
842.796	22223
842.933	22299
843.069	22188
843.206	22226
843.343	22276
843.479	22306
843.616	22181
843.752	22059
843.889	22040
844.025	22204
844.162	21975
844.298	22021
844.435	21899
844.571	21975
844.708	21941
844.844	22097
844.98	22230
845.117	22139
845.253	21911
845.389	21876
845.525	21774
845.661	21831
845.798	21766
845.934	21808
846.07	21633
846.206	21812
846.342	21800
846.478	21717
846.614	21530
846.75	21397
846.886	21431
847.022	21466
847.158	21450
847.294	21500
847.429	21496
847.565	21454
847.701	21667
847.837	21138
847.972	21176
848.108	21264
848.244	21302
848.379	21157
848.515	21093
848.65	21013
848.786	21089
848.921	21081
849.057	21180
849.192	21096
849.328	21001
849.463	21032
849.598	21005
849.734	20933
849.869	20948
850.004	20887
850.14	20853
850.275	20746
850.41	20788
850.545	20804
850.68	20712
850.815	20765
850.95	20781
851.085	20853
851.22	20914
851.355	20777
851.49	20845
851.625	20720
851.76	20796
851.895	20754
852.03	20632
852.165	20845
852.299	20902
852.434	20880
852.569	20788
852.703	20705
852.838	20811
852.973	20895
853.107	20925
853.242	20830
853.376	20636
853.511	20450
853.645	20609
853.78	20773
853.914	20598
854.048	20636
854.183	20518
854.317	20644
854.451	20781
854.585	20697
854.72	20526
854.854	20758
854.988	20476
855.122	20587
855.256	20427
855.39	20583
855.524	20739
855.658	20727
855.792	20594
855.926	20651
856.06	20701
856.194	20735
856.327	20552
856.461	20659
856.595	20476
856.729	20617
856.862	20720
856.996	20545
857.13	20705
857.263	20773
857.397	20731
857.53	20568
857.664	20781
857.797	20727
857.931	20758
858.064	20701
858.197	20716
858.331	20636
858.464	20522
858.597	20541
858.731	20606
858.864	20541
858.997	20549
859.13	20549
859.263	20606
859.396	20674
859.529	20594
859.662	20549
859.795	20549
859.928	20602
860.061	20834
860.194	20773
860.327	20769
860.46	20590
860.592	20674
860.725	20743
860.858	20678
860.99	20537
861.123	20549
861.256	20621
861.388	20636
861.521	21272
861.653	20476
861.786	20366
861.918	20480
862.05	20495
862.183	20598
862.315	20587
862.447	20617
862.58	20423
862.712	20336
862.844	20286
862.976	20309
863.108	20415
863.24	20765
863.372	20358
863.504	20351
863.636	20351
863.768	20442
863.9	20275
864.032	20275
864.164	20389
864.296	20301
864.428	20385
864.559	20393
864.691	20507
864.823	20415
864.954	20412
865.086	20351
865.217	20252
865.349	20214
865.48	20256
865.612	20259
865.743	20450
865.875	20290
866.006	20240
866.137	20404
866.269	20301
866.4	20278
866.531	20225
866.662	20157
866.793	20195
866.924	20256
867.055	20225
867.186	20214
867.317	20149
867.448	20130
867.579	20092
867.71	20145
867.841	20012
867.972	20096
868.103	20145
868.233	20191
868.364	20138
868.495	20339
868.625	20469
868.756	20419
868.886	20393
869.017	20484
869.147	20511
869.278	20465
869.408	20469
869.539	20480
869.669	20541
869.799	20549
869.929	20541
870.06	20454
870.19	20785
870.32	20655
870.45	20743
870.58	20937
870.71	20994
870.84	20952
870.97	20792
871.1	20842
871.23	21036
871.36	20956
871.489	20948
871.619	20975
871.749	20967
871.879	20967
872.008	21119
872.138	21112
872.267	21017
872.397	20921
872.526	20739
872.656	20910
872.785	20906
872.915	21116
873.044	21184
873.173	21043
873.303	21146
873.432	21116
873.561	21070
873.69	21077
873.819	21055
873.948	20956
874.077	20952
874.206	21039
874.335	21074
874.464	21176
874.593	21378
874.722	21233
874.851	21260
874.979	21412
875.108	21378
875.237	21306
875.365	21192
875.494	21222
875.623	21332
875.751	21245
875.88	21325
876.008	21344
876.136	21450
876.265	21667
876.393	21899
876.521	21755
876.65	21770
876.778	21629
876.906	21614
877.034	21705
877.162	21698
877.29	21625
877.418	21667
877.546	21679
877.674	21614
877.802	21583
877.93	21599
878.058	21694
878.185	21485
878.313	21694
878.441	21694
878.568	21485
878.696	21507
878.824	21644
878.951	21679
879.079	21831
879.206	21945
879.333	21812
879.461	21755
879.588	21698
879.715	21785
879.842	21903
879.97	21743
880.097	21557
880.224	21534
880.351	21473
880.478	21511
880.605	21523
880.732	21466
880.859	21701
880.986	21557
881.112	21534
881.239	21306
881.366	21230
881.493	21135
881.619	21104
881.746	21123
881.872	21154
881.999	20994
882.125	20971
882.252	20998
882.378	20986
882.505	21108
882.631	20899
882.757	20785
882.883	20735
883.01	20842
883.136	20697
883.262	20541
883.388	20629
883.514	20670
883.64	20891
883.766	20689
883.892	20625
884.018	20530
884.143	20746
884.269	20708
884.395	20389
884.52	20488
884.646	20408
884.772	20438
884.897	20336
885.023	20533
885.148	20446
885.274	20613
885.399	20461
885.524	20556
885.65	20454
885.775	20412
885.9	20488
886.025	20571
886.15	20522
886.275	20396
886.4	20282
886.525	20457
886.65	20259
886.775	20301
886.9	20507
887.025	20602
887.149	20393
887.274	20252
887.399	20176
887.523	20237
887.648	20069
887.773	20153
887.897	20263
888.021	20180
888.146	20088
888.27	20313
888.395	20305
888.519	20069
888.643	20259
888.767	20305
888.891	20122
889.015	20039
889.139	20153
889.263	20020
889.387	20161
889.511	20176
889.635	20126
889.759	19967
889.883	19925
890.006	20001
890.13	20043
890.254	19849
890.377	20001
890.501	19811
890.624	19708
890.748	19822
890.871	19681
890.995	19647
891.118	19438
891.241	19658
891.364	19624
891.488	19784
891.611	19571
891.734	19594
891.857	19632
891.98	19643
892.103	19495
892.226	19567
892.349	19514
892.471	19396
892.594	19563
892.717	19533
892.839	19430
892.962	19537
893.085	19514
893.207	19426
893.33	19457
893.452	19441
893.575	19521
893.697	19441
893.819	19674
893.941	19605
894.064	19670
894.186	19502
894.308	19556
894.43	19643
894.552	19712
894.674	19632
894.796	19415
894.918	19415
895.04	19308
895.161	19499
895.283	19548
895.405	19373
895.526	19438
895.648	19609
895.769	19643
895.891	19552
896.012	19540
896.134	19571
896.255	19571
896.376	19521
896.498	19571
896.619	19487
896.74	19510
896.861	19540
896.982	19822
897.103	19947
897.224	19837
897.345	19715
897.466	19731
897.587	19651
897.708	19860
897.828	19647
897.949	19693
898.07	19609
898.19	19666
898.311	19734
898.431	19613
898.552	19685
898.672	19902
898.792	19776
898.913	19757
899.033	19689
899.153	19670
899.273	19381
899.393	19556
899.513	19521
899.633	19510
899.753	19487
899.873	19445
899.993	19464
900.113	19495
900.232	19472
900.352	19422
900.472	19320
900.591	19301
900.711	19381
900.83	19232
900.95	19327
901.069	19354
901.189	19187
901.308	18954
901.427	18901
901.546	18916
901.665	18871
901.784	18951
901.904	18730
902.023	18616
902.141	18506
902.26	18506
902.379	18486
902.498	18350
902.617	18308
902.735	18426
902.854	18403
902.973	18330
903.091	18133
903.21	18076
903.328	18167
903.446	17863
903.565	17843
903.683	17790
903.801	17745
903.919	17722
904.038	17805
904.156	17619
904.274	17764
904.392	17665
904.51	17638
904.627	17619
904.745	17684
904.863	17718
904.981	17535
905.098	17372
905.216	17322
905.334	17436
905.451	17376
905.569	17315
905.686	17315
905.803	17376
905.921	17056
906.038	17166
906.155	17121
906.272	17098
906.389	17029
906.506	16866
906.623	16793
906.74	16774
906.857	16725
906.974	16763
907.091	16828
907.208	17014
907.324	16938
907.441	16710
907.557	16637
907.674	16637
907.79	16538
907.907	16546
908.023	16630
908.139	16558
908.256	16535
908.372	16561
908.488	16523
908.604	16348
908.72	16337
908.836	16310
908.952	16249
909.068	16367
909.184	16337
909.3	16333
909.415	16303
909.531	16348
909.647	16032
909.762	16101
909.878	15903
909.993	15964
910.108	15937
910.224	15941
910.339	15880
910.454	15964
910.57	15800
910.685	15705
910.8	15968
910.915	15964
911.03	15781
911.145	15599
911.259	15686
911.374	15633
911.489	15606
911.604	15473
911.718	15367
911.833	15431
911.947	15245
912.062	15283
912.176	15393
912.291	15435
912.405	15351
912.519	15542
912.633	15557
912.748	15416
912.862	15317
912.976	15176
913.09	15039
913.204	15222
913.318	15169
913.431	15275
913.545	15218
913.659	15325
913.772	15138
913.886	15058
914	15001
914.113	14990
914.226	15032
914.34	15127
914.453	14853
914.566	15036
914.68	14891
914.793	14933
914.906	14648
915.019	14590
915.132	14594
915.245	14606
915.358	14670
915.47	14617
915.583	14648
915.696	14663
915.809	14686
915.921	14796
916.034	14625
916.146	14571
916.259	14514
916.371	14636
916.483	14594
916.595	14473
916.708	14575
916.82	14434
916.932	14408
917.044	14503
917.156	14400
917.268	14309
917.38	14267
917.491	14263
917.603	14339
917.715	14377
917.826	14374
917.938	14199
918.049	14164
918.161	14256
918.272	14412
918.384	14370
918.495	14320
918.606	14107
918.717	14039
918.828	14069
918.939	14043
919.05	14012
919.161	13963
919.272	13799
919.383	13989
919.494	14115
919.604	14130
919.715	14035
919.826	13921
919.936	13970
920.047	14020
920.157	14027
920.267	14214
920.378	14126
920.488	13940
920.598	14263
920.708	14370
920.818	14199
920.928	14149
921.038	14385
921.148	14252
921.258	13890
921.368	13909
921.477	13856
921.587	13830
921.697	13719
921.806	13746
921.916	13590
922.025	13441
922.134	13468
922.244	13411
922.353	13472
922.462	13301
922.571	13209
922.68	13065
922.789	13118
922.898	13107
923.007	13114
923.116	13023
923.224	13015
923.333	12996
923.442	12962
923.55	12852
923.659	12924
923.767	12970
923.876	12882
923.984	12897
924.092	12791
924.201	12798
924.309	12913
924.417	12905
924.525	12741
924.633	12810
924.741	13674
924.849	12521
924.956	12711
925.064	12566
925.172	12475
925.279	12540
925.387	12509
925.494	12479
925.602	12612
925.709	12494
925.816	12479
925.924	12502
926.031	12486
926.138	12456
926.245	12540
926.352	12350
926.459	12494
926.566	12589
926.673	12342
926.779	12251
926.886	12304
926.993	12190
927.099	12102
927.206	12064
927.312	12038
927.419	12114
927.525	12136
927.631	12087
927.737	12083
927.843	11946
927.95	11893
928.056	11942
928.162	11996
928.267	11961
928.373	12646
928.479	12011
928.585	11809
928.69	11904
928.796	11889
928.901	11722
929.007	11661
929.112	11794
929.218	11847
929.323	11786
929.428	11646
929.533	11809
929.638	11596
929.743	11604
929.848	11630
929.953	11627
930.058	11596
930.163	11311
930.267	11414
930.372	11493
930.477	11303
930.581	11596
930.685	11345
930.79	11261
930.894	11326
930.998	11220
931.103	11406
931.207	11067
931.311	10965
931.415	10919
931.519	10710
931.623	10599
