Data from test_V78500241_2251.txt Node
Date: Fri Mar 25 15:25:31 CST 2022
User: usil
Spectrometer: V785-0024
Trigger mode: 0
Integration Time (sec): 4.000000E-1
Scans to average: 1
Nonlinearity correction enabled: false
Boxcar width: 0
Storing dark spectrum: false
XAxis mode: Wavelengths
Number of Pixels in Spectrum: 1024
>>>>>Begin Spectral Data<<<<<
801.071	27686
801.214	27694
801.356	27431
801.499	27397
801.641	27291
801.783	27374
801.926	27336
802.068	27268
802.211	27237
802.353	27104
802.496	27089
802.638	26933
802.78	26880
802.923	26845
803.065	26754
803.208	26811
803.35	26925
803.492	27100
803.635	27062
803.777	26925
803.919	27108
804.061	27405
804.204	27123
804.346	27070
804.488	26979
804.63	27055
804.773	26948
804.915	27142
805.057	27211
805.199	27055
805.341	27001
805.483	27192
805.626	27294
805.768	27169
805.91	27203
806.052	27211
806.194	27066
806.336	27355
806.478	27310
806.62	27203
806.762	27386
806.904	27618
807.046	27709
807.188	27576
807.33	27690
807.472	27720
807.614	27618
807.756	27622
807.898	27595
808.04	27500
808.182	27523
808.324	27435
808.465	27519
808.607	27751
808.749	27873
808.891	27884
809.033	27968
809.174	27937
809.316	27736
809.458	27869
809.6	27850
809.741	27956
809.883	27979
810.025	28188
810.166	28112
810.308	28200
810.45	28166
810.591	28086
810.733	27884
810.875	27793
811.016	27793
811.158	27838
811.299	27831
811.441	27972
811.582	28143
811.724	27781
811.865	27755
812.007	27774
812.148	27857
812.29	27842
812.431	28021
812.573	27930
812.714	28382
812.855	28200
812.997	28531
813.138	28504
813.279	28489
813.421	28322
813.562	28356
813.703	28120
813.845	28032
813.986	27842
814.127	27701
814.268	27629
814.41	27564
814.551	27519
814.692	27660
814.833	27420
814.974	27534
815.115	27667
815.256	27302
815.397	27382
815.539	27542
815.68	27207
815.821	27264
815.962	27325
816.103	27408
816.244	27085
816.385	27081
816.526	27001
816.666	26811
816.807	26762
816.948	26861
817.089	26899
817.23	26823
817.371	26769
817.512	26743
817.653	26838
817.793	26861
817.934	26716
818.075	26731
818.216	26838
818.356	26712
818.497	26651
818.638	26408
818.778	26526
818.919	26549
819.06	26564
819.2	26853
819.341	26819
819.481	26811
819.622	26876
819.762	27226
819.903	27024
820.043	26925
820.184	26864
820.324	26986
820.465	26994
820.605	26971
820.746	26834
820.886	26811
821.026	26921
821.167	26743
821.307	26842
821.447	26876
821.588	26754
821.728	26632
821.868	26469
822.008	26221
822.149	26256
822.289	26153
822.429	26035
822.569	25887
822.709	26008
822.849	25693
822.99	25681
823.13	25696
823.27	25727
823.41	25613
823.55	25430
823.69	25559
823.83	25586
823.97	25605
824.11	25274
824.25	25419
824.389	25460
824.529	25502
824.669	25422
824.809	25502
824.949	25499
825.089	25518
825.228	25464
825.368	25236
825.508	25297
825.648	25228
825.787	25202
825.927	25301
826.067	25316
826.206	25327
826.346	25384
826.485	25297
826.625	25225
826.765	25457
826.904	25263
827.044	25065
827.183	24958
827.323	24897
827.462	25091
827.601	24939
827.741	24867
827.88	24977
828.02	24928
828.159	24935
828.298	25031
828.437	25126
828.577	24932
828.716	25061
828.855	24844
828.994	24707
829.134	24646
829.273	24795
829.412	24631
829.551	24593
829.69	24738
829.829	24661
829.968	24707
830.107	24646
830.246	24715
830.385	24684
830.524	24582
830.663	24574
830.802	24528
830.941	24289
831.08	24232
831.219	24350
831.357	24346
831.496	24551
831.635	24330
831.774	24251
831.913	24140
832.051	24182
832.19	24049
832.329	23999
832.467	24034
832.606	23954
832.744	23946
832.883	23885
833.022	23843
833.16	23946
833.299	24087
833.437	24064
833.576	23965
833.714	23965
833.852	24076
833.991	24018
834.129	24030
834.267	24121
834.406	23988
834.544	24098
834.682	23999
834.821	24087
834.959	24110
835.097	23863
835.235	24098
835.373	23897
835.511	23984
835.65	23771
835.788	23771
835.926	23764
836.064	23843
836.202	23661
836.34	23802
836.478	23923
836.615	23741
836.753	23840
836.891	23912
837.029	23798
837.167	23737
837.305	23813
837.443	23722
837.58	23710
837.718	23741
837.856	23615
837.993	23649
838.131	23646
838.269	23471
838.406	23646
838.544	23566
838.681	23364
838.819	23334
838.956	23117
839.094	23162
839.231	23170
839.369	23398
839.506	23570
839.643	23486
839.781	23136
839.918	23083
840.055	23044
840.193	23174
840.33	22869
840.467	23140
840.604	23071
840.742	23288
840.879	22908
841.016	22968
841.153	22995
841.29	23151
841.427	22915
841.564	22991
841.701	23064
841.838	22938
841.975	23010
842.112	23010
842.249	22854
842.385	22786
842.522	23029
842.659	22885
842.796	22797
842.933	22812
843.069	22866
843.206	22721
843.343	23044
843.479	22729
843.616	22744
843.752	22523
843.889	22508
844.025	22759
844.162	22504
844.298	22763
844.435	22516
844.571	22725
844.708	22618
844.844	22786
844.98	22831
845.117	22683
845.253	22531
845.389	22489
845.525	22379
845.661	22481
845.798	22382
845.934	22284
846.07	22318
846.206	22329
846.342	22379
846.478	22284
846.614	22166
846.75	21960
846.886	22059
847.022	22162
847.158	22120
847.294	21998
847.429	22177
847.565	22013
847.701	22207
847.837	21835
847.972	21797
848.108	21838
848.244	21774
848.379	21686
848.515	21622
848.65	21633
848.786	21618
848.921	21606
849.057	21717
849.192	21713
849.328	21709
849.463	21709
849.598	21568
849.734	21420
849.869	21485
850.004	21450
850.14	21424
850.275	21420
850.41	21386
850.545	21416
850.68	21549
850.815	21454
850.95	21329
851.085	21568
851.22	21481
851.355	21439
851.49	21306
851.625	21302
851.76	21332
851.895	21317
852.03	21405
852.165	21283
852.299	21492
852.434	21454
852.569	21408
852.703	21485
852.838	21374
852.973	21622
853.107	21606
853.242	21260
853.376	21298
853.511	21093
853.645	21241
853.78	21279
853.914	21161
854.048	21176
854.183	21233
854.317	21294
854.451	21393
854.585	21237
854.72	21184
854.854	21291
854.988	21241
855.122	21119
855.256	21119
855.39	21123
855.524	21287
855.658	21287
855.792	21298
855.926	21275
856.06	21348
856.194	21363
856.327	21226
856.461	21268
856.595	21188
856.729	21131
856.862	21317
856.996	21363
857.13	21386
857.263	21382
857.397	21310
857.53	21089
857.664	21344
857.797	21237
857.931	21450
858.064	21241
858.197	21310
858.331	21131
858.464	21150
858.597	21169
858.731	21214
858.864	21226
858.997	21264
859.13	21165
859.263	21195
859.396	21287
859.529	21203
859.662	21192
859.795	21195
859.928	21180
860.061	21473
860.194	21237
860.327	21310
860.46	21275
860.592	21363
860.725	21313
860.858	21291
860.99	21283
861.123	21039
861.256	21089
861.388	21279
861.521	21998
861.653	21093
861.786	21089
861.918	21066
862.05	21116
862.183	21058
862.315	21104
862.447	21184
862.58	21154
862.712	20921
862.844	20883
862.976	21009
863.108	21089
863.24	21378
863.372	20994
863.504	21024
863.636	20921
863.768	21070
863.9	20952
864.032	20823
864.164	20872
864.296	20944
864.428	21017
864.559	20883
864.691	21074
864.823	20899
864.954	20960
865.086	20925
865.217	20731
865.349	20739
865.48	20804
865.612	20861
865.743	21074
865.875	20762
866.006	20842
866.137	20823
866.269	20857
866.4	20876
866.531	20727
866.662	20792
866.793	20731
866.924	20674
867.055	20807
867.186	20918
867.317	20651
867.448	20674
867.579	20750
867.71	20667
867.841	20697
867.972	20876
868.103	20773
868.233	20804
868.364	20838
868.495	20895
868.625	20941
868.756	21055
868.886	20921
869.017	20918
869.147	21127
869.278	21055
869.408	21047
869.539	21077
869.669	21157
869.799	20990
869.929	21089
870.06	21108
870.19	21325
870.32	21340
870.45	21454
870.58	21340
870.71	21507
870.84	21416
870.97	21447
871.1	21477
871.23	21595
871.36	21599
871.489	21405
871.619	21519
871.749	21595
871.879	21625
872.008	21785
872.138	21538
872.267	21557
872.397	21435
872.526	21553
872.656	21466
872.785	21458
872.915	21717
873.044	21720
873.173	21705
873.303	21618
873.432	21766
873.561	21800
873.69	21671
873.819	21538
873.948	21679
874.077	21656
874.206	21534
874.335	21679
874.464	21736
874.593	21884
874.722	21785
874.851	21797
874.979	21956
875.108	21857
875.237	21793
875.365	21869
875.494	21842
875.623	21953
875.751	21793
875.88	21975
876.008	21983
876.136	22097
876.265	22318
876.393	22303
876.521	22428
876.65	22253
876.778	22234
876.906	22234
877.034	22276
877.162	22287
877.29	22154
877.418	22234
877.546	22169
877.674	22341
877.802	22112
877.93	22196
878.058	22143
878.185	22177
878.313	22074
878.441	22097
878.568	22032
878.696	22078
878.824	22226
878.951	22238
879.079	22489
879.206	22417
879.333	22306
879.461	22257
879.588	22299
879.715	22344
879.842	22451
879.97	22363
880.097	22090
880.224	21998
880.351	22048
880.478	21983
880.605	22025
880.732	21956
880.859	22169
880.986	22090
881.112	22101
881.239	21861
881.366	21705
881.493	21629
881.619	21679
881.746	21549
881.872	21614
881.999	21542
882.125	21682
882.252	21652
882.378	21591
882.505	21774
882.631	21424
882.757	21287
882.883	21313
883.01	21268
883.136	21344
883.262	21039
883.388	21138
883.514	21252
883.64	21351
883.766	21192
883.892	21085
884.018	21100
884.143	21233
884.269	21306
884.395	21142
884.52	20937
884.646	20876
884.772	20792
884.897	20777
885.023	20838
885.148	20933
885.274	21150
885.399	21020
885.524	20842
885.65	20914
885.775	20944
885.9	20880
886.025	20979
886.15	21047
886.275	20857
886.4	20853
886.525	20967
886.65	20941
886.775	20925
886.9	20902
887.025	21165
887.149	20952
887.274	20705
887.399	20777
887.523	20606
887.648	20632
887.773	20621
887.897	20705
888.021	20720
888.146	20632
888.27	20823
888.395	20880
888.519	20765
888.643	20678
888.767	20705
888.891	20571
889.015	20537
889.139	20655
889.263	20598
889.387	20579
889.511	20724
889.635	20598
889.759	20419
889.883	20518
890.006	20503
890.13	20720
890.254	20473
890.377	20480
890.501	20358
890.624	20191
890.748	20351
890.871	20195
890.995	19959
891.118	20092
891.241	20096
891.364	20149
891.488	20259
891.611	20035
891.734	20054
891.857	20084
891.98	20092
892.103	20202
892.226	20088
892.349	20145
892.471	19921
892.594	19936
892.717	20126
892.839	19978
892.962	19993
893.085	20046
893.207	19944
893.33	19871
893.452	19947
893.575	19970
893.697	20046
893.819	20157
893.941	20259
894.064	20221
894.186	20016
894.308	19864
894.43	20062
894.552	20088
894.674	20058
894.796	19852
894.918	20024
895.04	20001
895.161	19986
895.283	20054
895.405	19894
895.526	20081
895.648	19909
895.769	20012
895.891	20008
896.012	20016
896.134	20012
896.255	19978
896.376	20084
896.498	20016
896.619	19955
896.74	19909
896.861	20115
896.982	20347
897.103	20465
897.224	20248
897.345	20161
897.466	20145
897.587	20138
897.708	20267
897.828	20183
897.949	20119
898.07	20050
898.19	20161
898.311	20256
898.431	20199
898.552	20221
898.672	20191
898.792	20218
898.913	20134
899.033	20199
899.153	19890
899.273	19875
899.393	19883
899.513	19970
899.633	19967
899.753	19951
899.873	19906
899.993	19928
900.113	19887
900.232	19951
900.352	19887
900.472	19875
900.591	19677
900.711	19795
900.83	19655
900.95	19830
901.069	19989
901.189	19651
901.308	19449
901.427	19343
901.546	19426
901.665	19327
901.784	19320
901.904	19225
902.023	19099
902.141	18932
902.26	18932
902.379	18981
902.498	18829
902.617	18863
902.735	18829
902.854	18722
902.973	18745
903.091	18566
903.21	18528
903.328	18559
903.446	18452
903.565	18285
903.683	18308
903.801	18258
903.919	18327
904.038	18296
904.156	18197
904.274	18129
904.392	18064
904.51	18053
904.627	18171
904.745	18117
904.863	18114
904.981	17931
905.098	17817
905.216	17821
905.334	17893
905.451	17714
905.569	17726
905.686	17847
905.803	17718
905.921	17551
906.038	17642
906.155	17585
906.272	17433
906.389	17326
906.506	17223
906.623	17311
906.74	17353
906.857	17227
906.974	17284
907.091	17330
907.208	17368
907.324	17349
907.441	17261
907.557	17018
907.674	16984
907.79	16938
907.907	16877
908.023	17067
908.139	17052
908.256	16961
908.372	16911
908.488	16786
908.604	16778
908.72	16660
908.836	16706
908.952	16668
909.068	16729
909.184	16854
909.3	16687
909.415	16809
909.531	16733
909.647	16538
909.762	16451
909.878	16417
909.993	16470
910.108	16481
910.224	16230
910.339	16322
910.454	16322
910.57	16154
910.685	16196
910.8	16329
910.915	16382
911.03	16253
911.145	15998
911.259	16074
911.374	16086
911.489	16044
911.604	15926
911.718	15717
911.833	15781
911.947	15694
912.062	15561
912.176	15701
912.291	15736
912.405	15766
912.519	15850
912.633	16006
912.748	15888
912.862	15774
912.976	15599
913.09	15538
913.204	15526
913.318	15637
913.431	15698
913.545	15713
913.659	15606
913.772	15526
913.886	15397
914	15313
914.113	15485
914.226	15523
914.34	15439
914.453	15275
914.566	15458
914.68	15313
914.793	15264
914.906	15066
915.019	14975
915.132	14952
915.245	14963
915.358	15001
915.47	15097
915.583	15005
915.696	15028
915.809	15058
915.921	15100
916.034	14986
916.146	14895
916.259	14849
916.371	15013
916.483	14933
916.595	14929
916.708	14788
916.82	14918
916.932	14857
917.044	14781
917.156	14701
917.268	14651
917.38	14720
917.491	14724
917.603	14807
917.715	14750
917.826	14640
917.938	14602
918.049	14564
918.161	14651
918.272	14857
918.384	14773
918.495	14640
918.606	14446
918.717	14412
918.828	14571
918.939	14396
919.05	14305
919.161	14415
919.272	14320
919.383	14233
919.494	14545
919.604	14541
919.715	14377
919.826	14248
919.936	14339
920.047	14419
920.157	14408
920.267	14590
920.378	14434
920.488	14400
920.598	14511
920.708	14674
920.818	14499
920.928	14465
921.038	14686
921.148	14678
921.258	14332
921.368	14332
921.477	14195
921.587	14107
921.697	14020
921.806	14138
921.916	14046
922.025	13780
922.134	13849
922.244	13738
922.353	13849
922.462	13712
922.571	13563
922.68	13422
922.789	13419
922.898	13426
923.007	13343
923.116	13445
923.224	13388
923.333	13396
923.442	13331
923.55	13312
923.659	13263
923.767	13308
923.876	13091
923.984	13293
924.092	13183
924.201	13168
924.309	13103
924.417	13171
924.525	13126
924.633	13061
924.741	13845
924.849	12954
924.956	13034
925.064	12859
925.172	12749
925.279	12909
925.387	12875
925.494	12909
925.602	12962
925.709	12901
925.816	12772
925.924	12768
926.031	12886
926.138	12806
926.245	12837
926.352	12730
926.459	12844
926.566	12825
926.673	12722
926.779	12654
926.886	12498
926.993	12433
927.099	12418
927.206	12388
927.312	12353
927.419	12460
927.525	12395
927.631	12448
927.737	12365
927.843	12254
927.95	12163
928.056	12220
928.162	12277
928.267	12228
928.373	12916
928.479	12292
928.585	12068
928.69	12209
928.796	12232
928.901	12057
929.007	11965
929.112	12110
929.218	12053
929.323	11992
929.428	11920
929.533	12129
929.638	11950
929.743	11935
929.848	12057
929.953	11958
930.058	11832
930.163	11649
930.267	11649
930.372	11817
930.477	11672
930.581	11786
930.685	11619
930.79	11478
930.894	11543
930.998	11524
931.103	11661
931.207	11315
931.311	11258
931.415	11018
931.519	10896
931.623	10873
