Data from test_V78500241_1538.txt Node
Date: Fri Mar 25 15:20:33 CST 2022
User: usil
Spectrometer: V785-0024
Trigger mode: 0
Integration Time (sec): 4.000000E-1
Scans to average: 1
Nonlinearity correction enabled: false
Boxcar width: 0
Storing dark spectrum: false
XAxis mode: Wavelengths
Number of Pixels in Spectrum: 1024
>>>>>Begin Spectral Data<<<<<
801.071	28055
801.214	28051
801.356	27610
801.499	27709
801.641	27629
801.783	27603
801.926	27488
802.068	27637
802.211	27561
802.353	27359
802.496	27492
802.638	27127
802.78	27294
802.923	27123
803.065	27089
803.208	27096
803.35	27245
803.492	27378
803.635	27488
803.777	27272
803.919	27420
804.061	27816
804.204	27519
804.346	27420
804.488	27317
804.63	27439
804.773	27386
804.915	27488
805.057	27504
805.199	27500
805.341	27614
805.483	27599
805.626	27576
805.768	27420
805.91	27667
806.052	27622
806.194	27431
806.336	27812
806.478	27599
806.62	27557
806.762	27743
806.904	27835
807.046	28131
807.188	27949
807.33	27968
807.472	27960
807.614	27991
807.756	27941
807.898	27854
808.04	27831
808.182	27728
808.324	27728
808.465	27926
808.607	28158
808.749	28219
808.891	28367
809.033	28386
809.174	28143
809.316	28150
809.458	28188
809.6	28280
809.741	28386
809.883	28204
810.025	28626
810.166	28489
810.308	28443
810.45	28451
810.591	28265
810.733	28082
810.875	28059
811.016	28032
811.158	28090
811.299	28257
811.441	28401
811.582	28333
811.724	28238
811.865	28234
812.007	28112
812.148	28173
812.29	28196
812.431	28363
812.573	28497
812.714	28702
812.855	28805
812.997	28934
813.138	28938
813.279	28793
813.421	28740
813.562	28679
813.703	28653
813.845	28451
813.986	28322
814.127	28002
814.268	27956
814.41	27987
814.551	27816
814.692	27983
814.833	27994
814.974	27911
815.115	28017
815.256	27827
815.397	27739
815.539	27911
815.68	27793
815.821	27580
815.962	27816
816.103	27774
816.244	27542
816.385	27427
816.526	27363
816.666	27275
816.807	27142
816.948	27435
817.089	27382
817.23	27165
817.371	27256
817.512	27211
817.653	27108
817.793	27055
817.934	27184
818.075	27249
818.216	27150
818.356	27135
818.497	27127
818.638	26876
818.778	26872
818.919	26899
819.06	26986
819.2	26998
819.341	27192
819.481	27142
819.622	27268
819.762	27542
819.903	27454
820.043	27332
820.184	27405
820.324	27287
820.465	27287
820.605	27135
820.746	27329
820.886	27214
821.026	27279
821.167	27268
821.307	27233
821.447	27207
821.588	27096
821.728	26853
821.868	26906
822.008	26613
822.149	26686
822.289	26571
822.429	26385
822.569	26347
822.709	26259
822.849	26142
822.99	26115
823.13	26111
823.27	26107
823.41	26024
823.55	25830
823.69	25913
823.83	26008
823.97	25849
824.11	25868
824.25	25780
824.389	25731
824.529	25936
824.669	25795
824.809	25864
824.949	25982
825.089	25978
825.228	25742
825.368	25609
825.508	25712
825.648	25700
825.787	25647
825.927	25746
826.067	25666
826.206	25639
826.346	25674
826.485	25708
826.625	25563
826.765	25757
826.904	25662
827.044	25438
827.183	25411
827.323	25327
827.462	25571
827.601	25388
827.741	25270
827.88	25434
828.02	25194
828.159	25316
828.298	25556
828.437	25502
828.577	25247
828.716	25396
828.855	25419
828.994	25099
829.134	25118
829.273	25152
829.412	25072
829.551	24989
829.69	25084
829.829	25076
829.968	25179
830.107	25042
830.246	25023
830.385	25008
830.524	24996
830.663	24920
830.802	24760
830.941	24768
831.08	24688
831.219	24696
831.357	24890
831.496	24992
831.635	24604
831.774	24563
831.913	24460
832.051	24551
832.19	24608
832.329	24426
832.467	24414
832.606	24388
832.744	24426
832.883	24330
833.022	24319
833.16	24315
833.299	24319
833.437	24418
833.576	24445
833.714	24445
833.852	24369
833.991	24464
834.129	24456
834.267	24479
834.406	24452
834.544	24315
834.682	24342
834.821	24426
834.959	24631
835.097	24338
835.235	24486
835.373	24384
835.511	24323
835.65	24144
835.788	24277
835.926	24110
836.064	24152
836.202	24060
836.34	24251
836.478	24300
836.615	24281
836.753	24182
836.891	24239
837.029	24277
837.167	24216
837.305	24121
837.443	24083
837.58	23988
837.718	24110
837.856	23992
837.993	24064
838.131	24136
838.269	23931
838.406	23882
838.544	23912
838.681	23813
838.819	23695
838.956	23581
839.094	23455
839.231	23600
839.369	23653
839.506	23939
839.643	23760
839.781	23615
839.918	23497
840.055	23566
840.193	23448
840.33	23364
840.467	23421
840.604	23676
840.742	23722
840.879	23356
841.016	23353
841.153	23258
841.29	23592
841.427	23406
841.564	23391
841.701	23490
841.838	23387
841.975	23334
842.112	23360
842.249	23341
842.385	23330
842.522	23425
842.659	23174
842.796	23239
842.933	23117
843.069	23109
843.206	23223
843.343	23220
843.479	23242
843.616	23284
843.752	23060
843.889	23048
844.025	23128
844.162	23033
844.298	23048
844.435	23105
844.571	22942
844.708	22953
844.844	23159
844.98	23200
845.117	23033
845.253	22862
845.389	22889
845.525	22904
845.661	22877
845.798	22801
845.934	22763
846.07	22755
846.206	22668
846.342	22812
846.478	22793
846.614	22516
846.75	22417
846.886	22470
847.022	22485
847.158	22504
847.294	22485
847.429	22436
847.565	22424
847.701	22782
847.837	22067
847.972	22215
848.108	22211
848.244	22139
848.379	22226
848.515	21968
848.65	22029
848.786	21884
848.921	22051
849.057	22101
849.192	22120
849.328	22131
849.463	21975
849.598	21964
849.734	21964
849.869	21804
850.004	21808
850.14	21895
850.275	21781
850.41	21743
850.545	21755
850.68	21713
850.815	21827
850.95	21812
851.085	21903
851.22	21789
851.355	21918
851.49	21652
851.625	21698
851.76	21762
851.895	21709
852.03	21739
852.165	21797
852.299	21873
852.434	21880
852.569	21850
852.703	21713
852.838	21800
852.973	21846
853.107	22006
853.242	21808
853.376	21603
853.511	21481
853.645	21614
853.78	21641
853.914	21614
854.048	21568
854.183	21526
854.317	21720
854.451	21880
854.585	21713
854.72	21663
854.854	21675
854.988	21587
855.122	21507
855.256	21477
855.39	21618
855.524	21755
855.658	21583
855.792	21561
855.926	21511
856.06	21701
856.194	21686
856.327	21583
856.461	21538
856.595	21625
856.729	21675
856.862	21766
856.996	21587
857.13	21545
857.263	21679
857.397	21701
857.53	21557
857.664	21572
857.797	21641
857.931	21606
858.064	21534
858.197	21739
858.331	21629
858.464	21553
858.597	21583
858.731	21606
858.864	21633
858.997	21507
859.13	21572
859.263	21610
859.396	21694
859.529	21538
859.662	21549
859.795	21656
859.928	21553
860.061	21816
860.194	21762
860.327	21496
860.46	21538
860.592	21644
860.725	21770
860.858	21808
860.99	21694
861.123	21526
861.256	21466
861.388	21660
861.521	22318
861.653	21469
861.786	21367
861.918	21469
862.05	21386
862.183	21466
862.315	21542
862.447	21587
862.58	21530
862.712	21222
862.844	21382
862.976	21458
863.108	21275
863.24	21614
863.372	21378
863.504	21348
863.636	21275
863.768	21325
863.9	21351
864.032	21272
864.164	21348
864.296	21336
864.428	21397
864.559	21389
864.691	21416
864.823	21374
864.954	21226
865.086	21363
865.217	21287
865.349	21119
865.48	21222
865.612	21218
865.743	21336
865.875	21363
866.006	21093
866.137	21131
866.269	21272
866.4	21188
866.531	21100
866.662	21192
866.793	21100
866.924	21138
867.055	21100
867.186	21096
867.317	21123
867.448	21055
867.579	21161
867.71	21036
867.841	21028
867.972	21047
868.103	21047
868.233	21116
868.364	21169
868.495	21298
868.625	21367
868.756	21519
868.886	21283
869.017	21408
869.147	21492
869.278	21561
869.408	21348
869.539	21348
869.669	21614
869.799	21466
869.929	21534
870.06	21523
870.19	21709
870.32	21633
870.45	21663
870.58	21724
870.71	21869
870.84	21835
870.97	21922
871.1	21667
871.23	21907
871.36	22006
871.489	21998
871.619	21827
871.749	21854
871.879	21945
872.008	21994
872.138	22006
872.267	21964
872.397	21857
872.526	21850
872.656	21880
872.785	21781
872.915	21907
873.044	22128
873.173	21884
873.303	22048
873.432	22017
873.561	22131
873.69	22154
873.819	21926
873.948	22002
874.077	22120
874.206	21979
874.335	22070
874.464	22124
874.593	22291
874.722	21972
874.851	22257
874.979	22265
875.108	22204
875.237	22150
875.365	22154
875.494	22169
875.623	22337
875.751	22265
875.88	22112
876.008	22287
876.136	22424
876.265	22660
876.393	22725
876.521	22740
876.65	22763
876.778	22630
876.906	22577
877.034	22569
877.162	22474
877.29	22466
877.418	22611
877.546	22596
877.674	22599
877.802	22527
877.93	22470
878.058	22588
878.185	22329
878.313	22440
878.441	22538
878.568	22322
878.696	22531
878.824	22519
878.951	22573
879.079	22797
879.206	22843
879.333	22828
879.461	22569
879.588	22721
879.715	22729
879.842	22637
879.97	22656
880.097	22325
880.224	22455
880.351	22470
880.478	22405
880.605	22234
880.732	22329
880.859	22607
880.986	22470
881.112	22238
881.239	22287
881.366	22112
881.493	22101
881.619	21888
881.746	21888
881.872	21987
881.999	21838
882.125	21888
882.252	21937
882.378	21934
882.505	22017
882.631	21823
882.757	21686
882.883	21720
883.01	21743
883.136	21526
883.262	21568
883.388	21553
883.514	21641
883.64	21789
883.766	21576
883.892	21298
884.018	21500
884.143	21595
884.269	21694
884.395	21367
884.52	21291
884.646	21264
884.772	21272
884.897	21207
885.023	21275
885.148	21336
885.274	21431
885.399	21291
885.524	21329
885.65	21176
885.775	21378
885.9	21325
886.025	21367
886.15	21397
886.275	21306
886.4	21256
886.525	21260
886.65	21199
886.775	21226
886.9	21294
887.025	21439
887.149	21188
887.274	21112
887.399	21055
887.523	21176
887.648	20971
887.773	20842
887.897	21161
888.021	21039
888.146	20925
888.27	21146
888.395	21104
888.519	21180
888.643	21161
888.767	21173
888.891	20887
889.015	20815
889.139	20925
889.263	20804
889.387	20933
889.511	21085
889.635	20990
889.759	20880
889.883	20823
890.006	20845
890.13	20906
890.254	20819
890.377	20845
890.501	20655
890.624	20560
890.748	20724
890.871	20408
890.995	20324
891.118	20427
891.241	20393
891.364	20537
891.488	20488
891.611	20461
891.734	20336
891.857	20332
891.98	20366
892.103	20511
892.226	20434
892.349	20393
892.471	20134
892.594	20324
892.717	20225
892.839	20328
892.962	20313
893.085	20347
893.207	20328
893.33	20153
893.452	20229
893.575	20298
893.697	20404
893.819	20434
893.941	20503
894.064	20396
894.186	20218
894.308	20225
894.43	20473
894.552	20514
894.674	20473
894.796	20229
894.918	20324
895.04	20381
895.161	20404
895.283	20309
895.405	20278
895.526	20252
895.648	20244
895.769	20309
895.891	20393
896.012	20229
896.134	20370
896.255	20252
896.376	20248
896.498	20263
896.619	20282
896.74	20259
896.861	20358
896.982	20602
897.103	20667
897.224	20648
897.345	20644
897.466	20480
897.587	20484
897.708	20602
897.828	20560
897.949	20568
898.07	20347
898.19	20518
898.311	20625
898.431	20473
898.552	20564
898.672	20476
898.792	20632
898.913	20454
899.033	20305
899.153	20328
899.273	20206
899.393	20259
899.513	20336
899.633	20408
899.753	20202
899.873	20164
899.993	20351
900.113	20130
900.232	20187
900.352	20107
900.472	20084
900.591	20046
900.711	20027
900.83	20122
900.95	20195
901.069	20244
901.189	19936
901.308	19628
901.427	19537
901.546	19723
901.665	19685
901.784	19632
901.904	19491
902.023	19403
902.141	19175
902.26	19137
902.379	19194
902.498	19141
902.617	19061
902.735	19171
902.854	19129
902.973	19027
903.091	18787
903.21	18867
903.328	18890
903.446	18616
903.565	18669
903.683	18544
903.801	18437
903.919	18627
904.038	18574
904.156	18342
904.274	18506
904.392	18380
904.51	18277
904.627	18342
904.745	18391
904.863	18395
904.981	18064
905.098	18064
905.216	17961
905.334	18026
905.451	18041
905.569	17965
905.686	18041
905.803	17996
905.921	17764
906.038	17897
906.155	17817
906.272	17710
906.389	17760
906.506	17707
906.623	17573
906.74	17627
906.857	17535
906.974	17535
907.091	17657
907.208	17745
907.324	17543
907.441	17471
907.557	17337
907.674	17322
907.79	17223
907.907	17200
908.023	17269
908.139	17250
908.256	17235
908.372	17197
908.488	17113
908.604	17102
908.72	16946
908.836	16938
908.952	16953
909.068	17022
909.184	17132
909.3	16946
909.415	17018
909.531	17033
909.647	16790
909.762	16702
909.878	16687
909.993	16774
910.108	16679
910.224	16630
910.339	16729
910.454	16584
910.57	16531
910.685	16474
910.8	16729
910.915	16607
911.03	16527
911.145	16356
911.259	16303
911.374	16306
911.489	16185
911.604	16200
911.718	16074
911.833	15994
911.947	15793
912.062	15956
912.176	15937
912.291	16082
912.405	16086
912.519	16280
912.633	16139
912.748	16135
912.862	16029
912.976	15903
913.09	15816
913.204	15720
913.318	15964
913.431	15941
913.545	15926
913.659	15994
913.772	15888
913.886	15671
914	15667
914.113	15759
914.226	15781
914.34	15789
914.453	15622
914.566	15705
914.68	15526
914.793	15542
914.906	15310
915.019	15237
915.132	15184
915.245	15249
915.358	15264
915.47	15211
915.583	15211
915.696	15329
915.809	15359
915.921	15336
916.034	15218
916.146	15055
916.259	15089
916.371	15230
916.483	15176
916.595	14979
916.708	15089
916.82	15028
916.932	15024
917.044	15013
917.156	15058
917.268	14914
917.38	14994
917.491	14842
917.603	14910
917.715	14944
917.826	15013
917.938	14872
918.049	14811
918.161	14891
918.272	14929
918.384	14994
918.495	14708
918.606	14708
918.717	14503
918.828	14731
918.939	14746
919.05	14537
919.161	14651
919.272	14385
919.383	14530
919.494	14720
919.604	14830
919.715	14598
919.826	14533
919.936	14495
920.047	14724
920.157	14602
920.267	14724
920.378	14746
920.488	14507
920.598	14796
920.708	14948
920.818	14823
920.928	14727
921.038	14853
921.148	14834
921.258	14495
921.368	14370
921.477	14377
921.587	14374
921.697	14271
921.806	14377
921.916	14229
922.025	14054
922.134	14016
922.244	14035
922.353	14020
922.462	13879
922.571	13769
922.68	13693
922.789	13712
922.898	13715
923.007	13510
923.116	13594
923.224	13556
923.333	13597
923.442	13525
923.55	13476
923.659	13544
923.767	13582
923.876	13407
923.984	13540
924.092	13350
924.201	13381
924.309	13304
924.417	13438
924.525	13236
924.633	13339
924.741	14065
924.849	13091
924.956	13217
925.064	13069
925.172	13046
925.279	12928
925.387	13133
925.494	13099
925.602	13160
925.709	13080
925.816	12966
925.924	12966
926.031	13019
926.138	13012
926.245	13034
926.352	12859
926.459	13012
926.566	13076
926.673	12966
926.779	12825
926.886	12787
926.993	12700
927.099	12654
927.206	12585
927.312	12627
927.419	12665
927.525	12639
927.631	12597
927.737	12536
927.843	12502
927.95	12300
928.056	12399
928.162	12502
928.267	12467
928.373	13034
928.479	12525
928.585	12407
928.69	12384
928.796	12418
928.901	12334
929.007	12152
929.112	12251
929.218	12213
929.323	12194
929.428	12106
929.533	12308
929.638	12110
929.743	12102
929.848	12121
929.953	12098
930.058	11946
930.163	11790
930.267	11889
930.372	11935
930.477	11855
930.581	11988
930.685	11912
930.79	11775
930.894	11798
930.998	11752
931.103	11851
931.207	11501
931.311	11425
931.415	11318
931.519	11048
931.623	11117
