Data from test_V78500241_2501.txt Node
Date: Fri Mar 25 15:27:16 CST 2022
User: usil
Spectrometer: V785-0024
Trigger mode: 0
Integration Time (sec): 4.000000E-1
Scans to average: 1
Nonlinearity correction enabled: false
Boxcar width: 0
Storing dark spectrum: false
XAxis mode: Wavelengths
Number of Pixels in Spectrum: 1024
>>>>>Begin Spectral Data<<<<<
801.071	27047
801.214	27157
801.356	27085
801.499	26830
801.641	26815
801.783	26750
801.926	26811
802.068	26765
802.211	26644
802.353	26511
802.496	26370
802.638	26461
802.78	26240
802.923	26256
803.065	26115
803.208	26267
803.35	26374
803.492	26457
803.635	26537
803.777	26465
803.919	26613
804.061	26880
804.204	26526
804.346	26442
804.488	26366
804.63	26469
804.773	26339
804.915	26587
805.057	26552
805.199	26488
805.341	26492
805.483	26495
805.626	26655
805.768	26560
805.91	26663
806.052	26693
806.194	26438
806.336	26739
806.478	26526
806.62	26495
806.762	26804
806.904	26796
807.046	27142
807.188	26948
807.33	27093
807.472	27055
807.614	26948
807.756	26929
807.898	26975
808.04	26731
808.182	26857
808.324	26785
808.465	26925
808.607	27089
808.749	27222
808.891	27195
809.033	27298
809.174	27203
809.316	27157
809.458	27233
809.6	27108
809.741	27363
809.883	27340
810.025	27515
810.166	27427
810.308	27496
810.45	27302
810.591	27401
810.733	27256
810.875	27146
811.016	27116
811.158	27165
811.299	27211
811.441	27435
811.582	27386
811.724	27268
811.865	27112
812.007	27146
812.148	27081
812.29	27135
812.431	27367
812.573	27507
812.714	27542
812.855	27622
812.997	27755
813.138	27937
813.279	27629
813.421	27759
813.562	27671
813.703	27545
813.845	27363
813.986	27127
814.127	26990
814.268	26853
814.41	26826
814.551	26750
814.692	26769
814.833	26887
814.974	26617
815.115	26826
815.256	26705
815.397	26773
815.539	26750
815.68	26594
815.821	26556
815.962	26621
816.103	26549
816.244	26518
816.385	26408
816.526	26518
816.666	26256
816.807	26020
816.948	26290
817.089	26081
817.23	26168
817.371	26103
817.512	26054
817.653	26001
817.793	26088
817.934	26107
818.075	25947
818.216	26214
818.356	26027
818.497	25898
818.638	25738
818.778	25807
818.919	25765
819.06	25803
819.2	25959
819.341	26062
819.481	26031
819.622	26126
819.762	26385
819.903	26320
820.043	26218
820.184	26237
820.324	26176
820.465	26214
820.605	26100
820.746	26111
820.886	25982
821.026	26237
821.167	26157
821.307	26111
821.447	26103
821.588	26031
821.728	25811
821.868	25841
822.008	25533
822.149	25685
822.289	25605
822.429	25316
822.569	25274
822.709	25331
822.849	25012
822.99	25069
823.13	24996
823.27	24954
823.41	24745
823.55	24772
823.69	25065
823.83	24886
823.97	24783
824.11	24726
824.25	24559
824.389	24692
824.529	24798
824.669	24681
824.809	24791
824.949	24840
825.089	24692
825.228	24791
825.368	24502
825.508	24441
825.648	24570
825.787	24639
825.927	24544
826.067	24585
826.206	24540
826.346	24642
826.485	24589
826.625	24559
826.765	24810
826.904	24608
827.044	24445
827.183	24247
827.323	24243
827.462	24270
827.601	24213
827.741	24174
827.88	24159
828.02	24243
828.159	24239
828.298	24357
828.437	24273
828.577	24315
828.716	24369
828.855	24114
828.994	24026
829.134	23988
829.273	24095
829.412	24095
829.551	23870
829.69	23916
829.829	24041
829.968	24034
830.107	23999
830.246	23958
830.385	24091
830.524	24003
830.663	23691
830.802	23824
830.941	23684
831.08	23524
831.219	23802
831.357	23714
831.496	23916
831.635	23558
831.774	23436
831.913	23562
832.051	23471
832.19	23387
832.329	23326
832.467	23307
832.606	23185
832.744	23151
832.883	23197
833.022	23220
833.16	23231
833.299	23337
833.437	23326
833.576	23372
833.714	23299
833.852	23353
833.991	23364
834.129	23414
834.267	23372
834.406	23360
834.544	23372
834.682	23334
834.821	23318
834.959	23581
835.097	23326
835.235	23425
835.373	23223
835.511	23376
835.65	23242
835.788	23227
835.926	23079
836.064	23006
836.202	22965
836.34	23117
836.478	23254
836.615	23261
836.753	23288
836.891	23261
837.029	23193
837.167	23128
837.305	23174
837.443	23128
837.58	23018
837.718	23132
837.856	23029
837.993	23132
838.131	22965
838.269	23075
838.406	23102
838.544	22873
838.681	22710
838.819	22637
838.956	22618
839.094	22622
839.231	22599
839.369	22679
839.506	23022
839.643	22691
839.781	22641
839.918	22546
840.055	22634
840.193	22546
840.33	22443
840.467	22527
840.604	22596
840.742	22862
840.879	22440
841.016	22440
841.153	22322
841.29	22592
841.427	22386
841.564	22459
841.701	22466
841.838	22306
841.975	22318
842.112	22436
842.249	22451
842.385	22306
842.522	22462
842.659	22462
842.796	22223
842.933	22128
843.069	22181
843.206	22135
843.343	22356
843.479	22226
843.616	22249
843.752	21994
843.889	21972
844.025	22063
844.162	21956
844.298	21979
844.435	21876
844.571	21998
844.708	22082
844.844	22272
844.98	22150
845.117	22169
845.253	21987
845.389	21861
845.525	21918
845.661	21774
845.798	21694
845.934	21835
846.07	21747
846.206	21732
846.342	21869
846.478	21690
846.614	21568
846.75	21488
846.886	21526
847.022	21504
847.158	21591
847.294	21523
847.429	21439
847.565	21557
847.701	21663
847.837	21184
847.972	21157
848.108	21370
848.244	21351
848.379	21032
848.515	21009
848.65	21104
848.786	21108
848.921	21161
849.057	21131
849.192	21222
849.328	21020
849.463	21096
849.598	21150
849.734	20967
849.869	20937
850.004	20781
850.14	20883
850.275	20826
850.41	20765
850.545	20724
850.68	20838
850.815	20880
850.95	20899
851.085	21032
851.22	20998
851.355	20849
851.49	20895
851.625	20880
851.76	20895
851.895	20880
852.03	20849
852.165	20819
852.299	20910
852.434	20944
852.569	20914
852.703	20758
852.838	20899
852.973	20944
853.107	20929
853.242	20785
853.376	20754
853.511	20552
853.645	20655
853.78	20807
853.914	20724
854.048	20617
854.183	20644
854.317	20621
854.451	20902
854.585	20594
854.72	20663
854.854	20659
854.988	20560
855.122	20750
855.256	20499
855.39	20659
855.524	20754
855.658	20762
855.792	20613
855.926	20788
856.06	20670
856.194	20670
856.327	20640
856.461	20724
856.595	20686
856.729	20686
856.862	20754
856.996	20720
857.13	20819
857.263	20914
857.397	20785
857.53	20552
857.664	20781
857.797	20720
857.931	20826
858.064	20678
858.197	20754
858.331	20552
858.464	20594
858.597	20545
858.731	20746
858.864	20659
858.997	20640
859.13	20640
859.263	20735
859.396	20876
859.529	20712
859.662	20617
859.795	20583
859.928	20686
860.061	20842
860.194	20941
860.327	20750
860.46	20655
860.592	20830
860.725	20880
860.858	20674
860.99	20678
861.123	20613
861.256	20617
861.388	20708
861.521	21237
861.653	20552
861.786	20480
861.918	20469
862.05	20457
862.183	20621
862.315	20533
862.447	20598
862.58	20518
862.712	20381
862.844	20328
862.976	20545
863.108	20503
863.24	20777
863.372	20377
863.504	20400
863.636	20438
863.768	20442
863.9	20328
864.032	20336
864.164	20366
864.296	20347
864.428	20438
864.559	20408
864.691	20434
864.823	20499
864.954	20469
865.086	20362
865.217	20286
865.349	20237
865.48	20305
865.612	20305
865.743	20343
865.875	20423
866.006	20286
866.137	20370
866.269	20218
866.4	20343
866.531	20301
866.662	20199
866.793	20206
866.924	20183
867.055	20271
867.186	20332
867.317	20168
867.448	20126
867.579	20100
867.71	20199
867.841	20202
867.972	20305
868.103	20199
868.233	20313
868.364	20389
868.495	20317
868.625	20473
868.756	20651
868.886	20575
869.017	20442
869.147	20560
869.278	20590
869.408	20492
869.539	20393
869.669	20526
869.799	20434
869.929	20606
870.06	20636
870.19	20712
870.32	20758
870.45	20819
870.58	20857
870.71	21051
870.84	21032
870.97	20895
871.1	20887
871.23	21077
871.36	21112
871.489	21127
871.619	21032
871.749	21112
871.879	21116
872.008	21233
872.138	21176
872.267	21116
872.397	21005
872.526	20941
872.656	21001
872.785	20902
872.915	21081
873.044	21138
873.173	21062
873.303	21279
873.432	21188
873.561	21214
873.69	21100
873.819	21188
873.948	21211
874.077	21218
874.206	21104
874.335	21077
874.464	21116
874.593	21321
874.722	21252
874.851	21435
874.979	21378
875.108	21359
875.237	21306
875.365	21348
875.494	21272
875.623	21408
875.751	21370
875.88	21218
876.008	21515
876.136	21530
876.265	21720
876.393	21880
876.521	21755
876.65	21663
876.778	21667
876.906	21705
877.034	21751
877.162	21759
877.29	21599
877.418	21682
877.546	21842
877.674	21599
877.802	21599
877.93	21633
878.058	21625
878.185	21496
878.313	21701
878.441	21686
878.568	21580
878.696	21625
878.824	21667
878.951	21823
879.079	21804
879.206	22051
879.333	21823
879.461	21728
879.588	21705
879.715	21899
879.842	21991
879.97	21812
880.097	21511
880.224	21530
880.351	21660
880.478	21511
880.605	21466
880.732	21557
880.859	21785
880.986	21545
881.112	21580
881.239	21378
881.366	21214
881.493	21192
881.619	21230
881.746	21131
881.872	21070
881.999	20994
882.125	20975
882.252	21070
882.378	21001
882.505	21157
882.631	20921
882.757	20876
882.883	20952
883.01	20823
883.136	20724
883.262	20659
883.388	20644
883.514	20804
883.64	20971
883.766	20777
883.892	20579
884.018	20659
884.143	20765
884.269	20876
884.395	20602
884.52	20408
884.646	20412
884.772	20442
884.897	20336
885.023	20412
885.148	20526
885.274	20720
885.399	20545
885.524	20431
885.65	20488
885.775	20427
885.9	20393
886.025	20473
886.15	20564
886.275	20556
886.4	20298
886.525	20347
886.65	20377
886.775	20400
886.9	20609
887.025	20617
887.149	20419
887.274	20218
887.399	20248
887.523	20358
887.648	20218
887.773	20039
887.897	20347
888.021	20278
888.146	20225
888.27	20495
888.395	20271
888.519	20370
888.643	20298
888.767	20259
888.891	20100
889.015	19997
889.139	19967
889.263	19894
889.387	20100
889.511	20218
889.635	20229
889.759	20012
889.883	20024
890.006	20081
890.13	20183
890.254	19947
890.377	20008
890.501	19887
890.624	19814
890.748	19852
890.871	19841
890.995	19647
891.118	19578
891.241	19635
891.364	19727
891.488	19750
891.611	19696
891.734	19639
891.857	19753
891.98	19826
892.103	19708
892.226	19601
892.349	19594
892.471	19514
892.594	19529
892.717	19616
892.839	19575
892.962	19586
893.085	19658
893.207	19491
893.33	19369
893.452	19472
893.575	19559
893.697	19578
893.819	19719
893.941	19833
894.064	19742
894.186	19529
894.308	19502
894.43	19681
894.552	19715
894.674	19666
894.796	19533
894.918	19590
895.04	19533
895.161	19567
895.283	19563
895.405	19514
895.526	19556
895.648	19616
895.769	19628
895.891	19700
896.012	19719
896.134	19666
896.255	19578
896.376	19563
896.498	19510
896.619	19639
896.74	19601
896.861	19552
896.982	19913
897.103	20107
897.224	19959
897.345	19845
897.466	19670
897.587	19666
897.708	19944
897.828	19776
897.949	19772
898.07	19628
898.19	19811
898.311	19921
898.431	19803
898.552	19746
898.672	19906
898.792	19826
898.913	19830
899.033	19677
899.153	19597
899.273	19563
899.393	19597
899.513	19605
899.633	19384
899.753	19655
899.873	19559
899.993	19575
900.113	19529
900.232	19403
900.352	19480
900.472	19453
900.591	19308
900.711	19426
900.83	19145
900.95	19521
901.069	19438
901.189	19160
901.308	19004
901.427	19042
901.546	19000
901.665	18966
901.784	18871
901.904	18798
902.023	18749
902.141	18540
902.26	18433
902.379	18570
902.498	18418
902.617	18346
902.735	18536
902.854	18494
902.973	18403
903.091	18133
903.21	18186
903.328	18148
903.446	18057
903.565	18007
903.683	17977
903.801	17805
903.919	17904
904.038	17840
904.156	17821
904.274	17771
904.392	17695
904.51	17623
904.627	17771
904.745	17824
904.863	17821
904.981	17566
905.098	17406
905.216	17372
905.334	17474
905.451	17326
905.569	17322
905.686	17459
905.803	17433
905.921	17189
906.038	17315
906.155	17162
906.272	17113
906.389	17064
906.506	16972
906.623	16896
906.74	16812
906.857	16824
906.974	16774
907.091	16976
907.208	17102
907.324	16934
907.441	16987
907.557	16797
907.674	16752
907.79	16630
907.907	16687
908.023	16675
908.139	16653
908.256	16675
908.372	16607
908.488	16481
908.604	16398
908.72	16322
908.836	16303
908.952	16295
909.068	16440
909.184	16417
909.3	16398
909.415	16417
909.531	16424
909.647	16097
909.762	16177
909.878	16101
909.993	16055
910.108	16013
910.224	16017
910.339	16021
910.454	15983
910.57	15838
910.685	15899
910.8	16128
910.915	16071
911.03	15949
911.145	15831
911.259	15637
911.374	15694
911.489	15705
911.604	15511
911.718	15382
911.833	15530
911.947	15523
912.062	15408
912.176	15538
912.291	15545
912.405	15477
912.519	15656
912.633	15610
912.748	15507
912.862	15454
912.976	15245
913.09	15195
913.204	15226
913.318	15241
913.431	15408
913.545	15340
913.659	15370
913.772	15279
913.886	15184
914	15108
914.113	15218
914.226	15214
914.34	15081
914.453	14986
914.566	15165
914.68	14929
914.793	14895
914.906	14777
915.019	14644
915.132	14644
915.245	14705
915.358	14636
915.47	14667
915.583	14571
915.696	14800
915.809	14838
915.921	14777
916.034	14697
916.146	14560
916.259	14518
916.371	14648
916.483	14678
916.595	14579
916.708	14480
916.82	14518
916.932	14450
917.044	14514
917.156	14419
917.268	14328
917.38	14434
917.491	14427
917.603	14396
917.715	14434
917.826	14507
917.938	14355
918.049	14206
918.161	14286
918.272	14484
918.384	14324
918.495	14313
918.606	14199
918.717	14123
918.828	14278
918.939	14111
919.05	14046
919.161	14119
919.272	13955
919.383	13917
919.494	14084
919.604	14393
919.715	14142
919.826	13993
919.936	14096
920.047	14199
920.157	14088
920.267	14252
920.378	14161
920.488	14084
920.598	14259
920.708	14442
920.818	14183
920.928	14275
921.038	14408
921.148	14370
921.258	14069
921.368	13970
921.477	13814
921.587	13887
921.697	13643
921.806	13833
921.916	13681
922.025	13552
922.134	13529
922.244	13457
922.353	13552
922.462	13381
922.571	13293
922.68	13282
922.789	13156
922.898	13122
923.007	13053
923.116	13099
923.224	13145
923.333	13091
923.442	13008
923.55	12973
923.659	12977
923.767	13019
923.876	12844
923.984	12966
924.092	12863
924.201	12951
924.309	12848
924.417	12882
924.525	12833
924.633	12829
924.741	13715
924.849	12616
924.956	12810
925.064	12578
925.172	12589
925.279	12506
925.387	12631
925.494	12608
925.602	12635
925.709	12635
925.816	12445
925.924	12513
926.031	12616
926.138	12513
926.245	12544
926.352	12456
926.459	12589
926.566	12509
926.673	12391
926.779	12285
926.886	12407
926.993	12220
927.099	12216
927.206	12178
927.312	12098
927.419	12194
927.525	12117
927.631	12209
927.737	12072
927.843	11992
927.95	11908
928.056	11950
928.162	11965
928.267	11969
928.373	12612
928.479	12155
928.585	11809
928.69	11969
928.796	11996
928.901	11817
929.007	11764
929.112	11783
929.218	11916
929.323	11790
929.428	11745
929.533	11821
929.638	11695
929.743	11722
929.848	11764
929.953	11653
930.058	11581
930.163	11353
930.267	11433
930.372	11543
930.477	11356
930.581	11611
930.685	11448
930.79	11265
930.894	11353
930.998	11261
931.103	11387
931.207	11113
931.311	10938
931.415	10858
931.519	10736
931.623	10637
