Data from test_V78500241_3433.txt Node
Date: Fri Mar 25 15:33:45 CST 2022
User: usil
Spectrometer: V785-0024
Trigger mode: 0
Integration Time (sec): 4.000000E-1
Scans to average: 1
Nonlinearity correction enabled: false
Boxcar width: 0
Storing dark spectrum: false
XAxis mode: Wavelengths
Number of Pixels in Spectrum: 1024
>>>>>Begin Spectral Data<<<<<
801.071	27268
801.214	27119
801.356	27127
801.499	26956
801.641	26845
801.783	26910
801.926	26849
802.068	26796
802.211	26670
802.353	26868
802.496	26617
802.638	26347
802.78	26419
802.923	26343
803.065	26271
803.208	26317
803.35	26465
803.492	26537
803.635	26549
803.777	26533
803.919	26621
804.061	26910
804.204	26644
804.346	26415
804.488	26415
804.63	26609
804.773	26518
804.915	26613
805.057	26708
805.199	26598
805.341	26461
805.483	26644
805.626	26727
805.768	26568
805.91	26659
806.052	26769
806.194	26590
806.336	26838
806.478	26762
806.62	26720
806.762	26864
806.904	27001
807.046	27180
807.188	27024
807.33	27195
807.472	27062
807.614	27123
807.756	27001
807.898	26956
808.04	26838
808.182	26902
808.324	26933
808.465	27051
808.607	27123
808.749	27363
808.891	27348
809.033	27389
809.174	27207
809.316	27188
809.458	27237
809.6	27241
809.741	27363
809.883	27344
810.025	27416
810.166	27530
810.308	27576
810.45	27603
810.591	27496
810.733	27473
810.875	27268
811.016	27207
811.158	27066
811.299	27412
811.441	27504
811.582	27583
811.724	27207
811.865	27298
812.007	27287
812.148	27298
812.29	27332
812.431	27504
812.573	27663
812.714	27633
812.855	27755
812.997	27808
813.138	27994
813.279	27987
813.421	27857
813.562	27713
813.703	27561
813.845	27504
813.986	27100
814.127	27188
814.268	26921
814.41	27032
814.551	26990
814.692	27093
814.833	26967
814.974	26781
815.115	26994
815.256	26864
815.397	26819
815.539	26830
815.68	26655
815.821	26484
815.962	26678
816.103	26697
816.244	26488
816.385	26533
816.526	26465
816.666	26393
816.807	26157
816.948	26294
817.089	26221
817.23	26202
817.371	26138
817.512	26214
817.653	26195
817.793	26084
817.934	26229
818.075	26278
818.216	26271
818.356	26153
818.497	26005
818.638	25932
818.778	26039
818.919	25894
819.06	26005
819.2	26031
819.341	26138
819.481	26157
819.622	26431
819.762	26621
819.903	26446
820.043	26305
820.184	26366
820.324	26324
820.465	26362
820.605	26286
820.746	26271
820.886	26305
821.026	26374
821.167	26237
821.307	26408
821.447	26172
821.588	26016
821.728	26035
821.868	25883
822.008	25666
822.149	25742
822.289	25578
822.429	25483
822.569	25343
822.709	25369
822.849	25148
822.99	25236
823.13	25031
823.27	25099
823.41	24954
823.55	24996
823.69	25008
823.83	24939
823.97	24840
824.11	24783
824.25	24734
824.389	24867
824.529	25019
824.669	24776
824.809	24878
824.949	24992
825.089	24840
825.228	24810
825.368	24677
825.508	24738
825.648	24738
825.787	24875
825.927	24738
826.067	24688
826.206	24669
826.346	24597
826.485	24802
826.625	24684
826.765	24730
826.904	24650
827.044	24502
827.183	24490
827.323	24330
827.462	24559
827.601	24486
827.741	24353
827.88	24460
828.02	24296
828.159	24224
828.298	24418
828.437	24296
828.577	24410
828.716	24456
828.855	24311
828.994	24201
829.134	24190
829.273	24110
829.412	24038
829.551	24087
829.69	24079
829.829	24129
829.968	24228
830.107	24182
830.246	24064
830.385	23950
830.524	24049
830.663	24045
830.802	23805
830.941	23726
831.08	23646
831.219	23756
831.357	23805
831.496	23988
831.635	23802
831.774	23687
831.913	23600
832.051	23531
832.19	23528
832.329	23684
832.467	23349
832.606	23516
832.744	23337
832.883	23303
833.022	23269
833.16	23353
833.299	23478
833.437	23356
833.576	23566
833.714	23436
833.852	23486
833.991	23570
834.129	23566
834.267	23619
834.406	23402
834.544	23543
834.682	23395
834.821	23528
834.959	23714
835.097	23474
835.235	23516
835.373	23539
835.511	23497
835.65	23337
835.788	23318
835.926	23121
836.064	23079
836.202	23200
836.34	23410
836.478	23440
836.615	23341
836.753	23387
836.891	23474
837.029	23356
837.167	23303
837.305	23280
837.443	23273
837.58	23178
837.718	23212
837.856	23277
837.993	23140
838.131	23322
838.269	22854
838.406	23147
838.544	23029
838.681	22835
838.819	22927
838.956	22630
839.094	22786
839.231	22649
839.369	22816
839.506	23075
839.643	22835
839.781	22634
839.918	22649
840.055	22645
840.193	22622
840.33	22637
840.467	22668
840.604	22641
840.742	22816
840.879	22607
841.016	22470
841.153	22603
841.29	22649
841.427	22542
841.564	22634
841.701	22615
841.838	22645
841.975	22538
842.112	22535
842.249	22455
842.385	22379
842.522	22649
842.659	22527
842.796	22367
842.933	22253
843.069	22386
843.206	22238
843.343	22447
843.479	22405
843.616	22322
843.752	22200
843.889	22082
844.025	22303
844.162	22070
844.298	22249
844.435	22147
844.571	22093
844.708	22249
844.844	22382
844.98	22246
845.117	22196
845.253	22131
845.389	22074
845.525	22029
845.661	21915
845.798	21812
845.934	22017
846.07	21812
846.206	21903
846.342	21994
846.478	21838
846.614	21774
846.75	21561
846.886	21663
847.022	21667
847.158	21583
847.294	21545
847.429	21724
847.565	21587
847.701	21736
847.837	21367
847.972	21317
848.108	21466
848.244	21306
848.379	21287
848.515	21154
848.65	21173
848.786	21195
848.921	21272
849.057	21340
849.192	21359
849.328	21275
849.463	21203
849.598	21131
849.734	20956
849.869	21066
850.004	21089
850.14	21104
850.275	20921
850.41	20944
850.545	20914
850.68	20891
850.815	21009
850.95	20902
851.085	21116
851.22	21017
851.355	21089
851.49	20979
851.625	20944
851.76	20963
851.895	20800
852.03	20921
852.165	20960
852.299	21154
852.434	21024
852.569	21051
852.703	21043
852.838	20918
852.973	21047
853.107	21138
853.242	20948
853.376	20807
853.511	20712
853.645	20693
853.78	20811
853.914	20834
854.048	20788
854.183	20765
854.317	20941
854.451	21039
854.585	20849
854.72	20716
854.854	20811
854.988	20697
855.122	20891
855.256	20590
855.39	20834
855.524	20724
855.658	20883
855.792	20845
855.926	20765
856.06	20830
856.194	20762
856.327	20815
856.461	20629
856.595	20708
856.729	20800
856.862	20941
856.996	20765
857.13	20819
857.263	20937
857.397	20861
857.53	20838
857.664	20948
857.797	20773
857.931	20769
858.064	20842
858.197	20880
858.331	20853
858.464	20705
858.597	20788
858.731	20785
858.864	20743
858.997	20716
859.13	20796
859.263	20845
859.396	20785
859.529	20815
859.662	20842
859.795	20807
859.928	20792
860.061	20929
860.194	21058
860.327	20796
860.46	20807
860.592	20861
860.725	21043
860.858	21005
860.99	20796
861.123	20750
861.256	20716
861.388	20986
861.521	21526
861.653	20587
861.786	20621
861.918	20606
862.05	20739
862.183	20701
862.315	20769
862.447	20678
862.58	20708
862.712	20518
862.844	20492
862.976	20541
863.108	20629
863.24	21062
863.372	20404
863.504	20434
863.636	20465
863.768	20552
863.9	20419
864.032	20442
864.164	20564
864.296	20503
864.428	20564
864.559	20488
864.691	20564
864.823	20461
864.954	20476
865.086	20454
865.217	20488
865.349	20465
865.48	20355
865.612	20446
865.743	20655
865.875	20469
866.006	20522
866.137	20480
866.269	20355
866.4	20446
866.531	20423
866.662	20358
866.793	20336
866.924	20343
867.055	20484
867.186	20336
867.317	20294
867.448	20298
867.579	20309
867.71	20214
867.841	20202
867.972	20423
868.103	20313
868.233	20385
868.364	20396
868.495	20419
868.625	20503
868.756	20708
868.886	20594
869.017	20682
869.147	20636
869.278	20689
869.408	20712
869.539	20598
869.669	20674
869.799	20693
869.929	20781
870.06	20583
870.19	20781
870.32	20891
870.45	20819
870.58	20921
870.71	21135
870.84	21051
870.97	20982
871.1	20921
871.23	21066
871.36	21226
871.489	21066
871.619	21150
871.749	21214
871.879	21230
872.008	21279
872.138	21264
872.267	21154
872.397	21047
872.526	21058
872.656	20990
872.785	21062
872.915	21142
873.044	21260
873.173	21298
873.303	21184
873.432	21302
873.561	21306
873.69	21207
873.819	21123
873.948	21241
874.077	21150
874.206	21157
874.335	21138
874.464	21302
874.593	21401
874.722	21431
874.851	21542
874.979	21500
875.108	21633
875.237	21359
875.365	21412
875.494	21374
875.623	21462
875.751	21306
875.88	21458
876.008	21542
876.136	21667
876.265	21838
876.393	22017
876.521	21892
876.65	21922
876.778	21808
876.906	21823
877.034	21759
877.162	21724
877.29	21736
877.418	21846
877.546	21766
877.674	21880
877.802	21713
877.93	21819
878.058	21755
878.185	21713
878.313	21759
878.441	21667
878.568	21686
878.696	21747
878.824	21690
878.951	22013
879.079	21960
879.206	22086
879.333	21838
879.461	21903
879.588	21941
879.715	22017
879.842	21991
879.97	21880
880.097	21698
880.224	21717
880.351	21869
880.478	21759
880.605	21667
880.732	21686
880.859	21831
880.986	21595
881.112	21568
881.239	21477
881.366	21405
881.493	21279
881.619	21218
881.746	21203
881.872	21165
881.999	21154
882.125	21096
882.252	21272
882.378	21233
882.505	21355
882.631	20982
882.757	20925
882.883	21100
883.01	20807
883.136	20914
883.262	20918
883.388	20811
883.514	20975
883.64	20921
883.766	20804
883.892	20796
884.018	20651
884.143	20773
884.269	20792
884.395	20606
884.52	20583
884.646	20564
884.772	20503
884.897	20476
885.023	20686
885.148	20682
885.274	20583
885.399	20746
885.524	20473
885.65	20648
885.775	20644
885.9	20609
886.025	20621
886.15	20598
886.275	20530
886.4	20396
886.525	20495
886.65	20598
886.775	20564
886.9	20632
887.025	20724
887.149	20461
887.274	20473
887.399	20278
887.523	20229
887.648	20313
887.773	20229
887.897	20431
888.021	20305
888.146	20282
888.27	20461
888.395	20431
888.519	20358
888.643	20526
888.767	20434
888.891	20286
889.015	20202
889.139	20301
889.263	20161
889.387	20278
889.511	20362
889.635	20298
889.759	20187
889.883	20096
890.006	20115
890.13	20259
890.254	20100
890.377	20088
890.501	19879
890.624	20043
890.748	19928
890.871	19795
890.995	19849
891.118	19605
891.241	19655
891.364	19715
891.488	19753
891.611	19742
891.734	19784
891.857	19708
891.98	19822
892.103	19791
892.226	19814
892.349	19655
892.471	19460
892.594	19674
892.717	19670
892.839	19670
892.962	19719
893.085	19685
893.207	19674
893.33	19525
893.452	19613
893.575	19677
893.697	19647
893.819	19708
893.941	19856
894.064	19826
894.186	19544
894.308	19597
894.43	19715
894.552	19757
894.674	19685
894.796	19533
894.918	19575
895.04	19635
895.161	19674
895.283	19635
895.405	19685
895.526	19563
895.648	19548
895.769	19700
895.891	19624
896.012	19643
896.134	19681
896.255	19734
896.376	19499
896.498	19613
896.619	19670
896.74	19571
896.861	19693
896.982	19944
897.103	20164
897.224	19890
897.345	19925
897.466	19852
897.587	20043
897.708	19978
897.828	19959
897.949	19860
898.07	19784
898.19	19871
898.311	19993
898.431	19795
898.552	19894
898.672	19921
898.792	19951
898.913	19849
899.033	19559
899.153	19647
899.273	19643
899.393	19586
899.513	19753
899.633	19556
899.753	19510
899.873	19518
899.993	19575
900.113	19529
900.232	19594
900.352	19559
900.472	19487
900.591	19438
900.711	19373
900.83	19297
900.95	19533
901.069	19521
901.189	19293
901.308	19110
901.427	19031
901.546	18989
901.665	19034
901.784	18981
901.904	18760
902.023	18772
902.141	18570
902.26	18471
902.379	18608
902.498	18555
902.617	18509
902.735	18502
902.854	18578
902.973	18350
903.091	18148
903.21	18117
903.328	18114
903.446	18209
903.565	18015
903.683	18022
903.801	17992
903.919	17870
904.038	17958
904.156	17897
904.274	17771
904.392	17790
904.51	17691
904.627	17771
904.745	17794
904.863	17813
904.981	17577
905.098	17547
905.216	17467
905.334	17467
905.451	17471
905.569	17353
905.686	17478
905.803	17490
905.921	17265
906.038	17315
906.155	17250
906.272	17094
906.389	17193
906.506	17048
906.623	17075
906.74	16881
906.857	16877
906.974	16881
907.091	17052
907.208	17102
907.324	16999
907.441	16900
907.557	16736
907.674	16698
907.79	16603
907.907	16687
908.023	16782
908.139	16691
908.256	16660
908.372	16588
908.488	16561
908.604	16459
908.72	16390
908.836	16421
908.952	16325
909.068	16489
909.184	16527
909.3	16402
909.415	16382
909.531	16318
909.647	16200
909.762	16071
909.878	16139
909.993	16177
910.108	16105
910.224	15991
910.339	16143
910.454	15968
910.57	15953
910.685	15762
910.8	16128
910.915	16071
911.03	16025
911.145	15800
911.259	15728
911.374	15732
911.489	15641
911.604	15720
911.718	15572
911.833	15447
911.947	15447
912.062	15386
912.176	15523
912.291	15580
912.405	15416
912.519	15656
912.633	15709
912.748	15542
912.862	15515
912.976	15279
913.09	15226
913.204	15344
913.318	15291
913.431	15466
913.545	15359
913.659	15466
913.772	15332
913.886	15138
914	15176
914.113	15203
914.226	15226
914.34	15135
914.453	14963
914.566	15142
914.68	15085
914.793	14933
914.906	14727
915.019	14693
915.132	14689
915.245	14731
915.358	14807
915.47	14811
915.583	14667
915.696	14720
915.809	14773
915.921	14853
916.034	14648
916.146	14610
916.259	14663
916.371	14629
916.483	14735
916.595	14636
916.708	14610
916.82	14590
916.932	14571
917.044	14530
917.156	14522
917.268	14408
917.38	14343
917.491	14370
917.603	14484
917.715	14514
917.826	14537
917.938	14381
918.049	14355
918.161	14336
918.272	14511
918.384	14419
918.495	14336
918.606	14176
918.717	14046
918.828	14199
918.939	14191
919.05	14149
919.161	14107
919.272	13986
919.383	13989
919.494	14233
919.604	14377
919.715	14172
919.826	14016
919.936	14103
920.047	14107
920.157	14119
920.267	14313
920.378	14172
920.488	14065
920.598	14225
920.708	14476
920.818	14298
920.928	14259
921.038	14495
921.148	14423
921.258	14130
921.368	14016
921.477	13967
921.587	13852
921.697	13769
921.806	13982
921.916	13674
922.025	13582
922.134	13624
922.244	13369
922.353	13620
922.462	13422
922.571	13335
922.68	13247
922.789	13175
922.898	13099
923.007	13107
923.116	13308
923.224	13206
923.333	13053
923.442	12985
923.55	13034
923.659	13008
923.767	13072
923.876	13042
923.984	13046
924.092	12928
924.201	12878
924.309	12996
924.417	12924
924.525	12745
924.633	12977
924.741	13803
924.849	12719
924.956	12776
925.064	12601
925.172	12578
925.279	12627
925.387	12589
925.494	12669
925.602	12700
925.709	12703
925.816	12544
925.924	12612
926.031	12696
926.138	12544
926.245	12635
926.352	12471
926.459	12650
926.566	12684
926.673	12433
926.779	12376
926.886	12300
926.993	12285
927.099	12197
927.206	12235
927.312	12190
927.419	12136
927.525	12213
927.631	12243
927.737	12087
927.843	11984
927.95	11916
928.056	12057
928.162	12083
928.267	12019
928.373	12528
928.479	12045
928.585	11851
928.69	11980
928.796	12019
928.901	11859
929.007	11668
929.112	11813
929.218	11771
929.323	11745
929.428	11824
929.533	11843
929.638	11649
929.743	11707
929.848	11764
929.953	11756
930.058	11619
930.163	11524
930.267	11356
930.372	11619
930.477	11459
930.581	11627
930.685	11471
930.79	11391
930.894	11341
930.998	11269
931.103	11471
931.207	11162
931.311	10961
931.415	10873
931.519	10694
931.623	10710
