Data from test_V78500241_382.txt Node
Date: Fri Mar 25 15:12:31 CST 2022
User: usil
Spectrometer: V785-0024
Trigger mode: 0
Integration Time (sec): 4.000000E-1
Scans to average: 1
Nonlinearity correction enabled: false
Boxcar width: 0
Storing dark spectrum: false
XAxis mode: Wavelengths
Number of Pixels in Spectrum: 1024
>>>>>Begin Spectral Data<<<<<
801.071	27047
801.214	26937
801.356	26678
801.499	26651
801.641	26667
801.783	26575
801.926	26667
802.068	26480
802.211	26590
802.353	26545
802.496	26248
802.638	26244
802.78	26054
802.923	26065
803.065	26210
803.208	26130
803.35	26187
803.492	26248
803.635	26317
803.777	26263
803.919	26347
804.061	26609
804.204	26381
804.346	26187
804.488	26164
804.63	26332
804.773	26039
804.915	26336
805.057	26408
805.199	26305
805.341	26427
805.483	26370
805.626	26370
805.768	26313
805.91	26381
806.052	26473
806.194	26320
806.336	26556
806.478	26495
806.62	26446
806.762	26568
806.904	26731
807.046	26781
807.188	26826
807.33	26952
807.472	26826
807.614	26788
807.756	26735
807.898	26609
808.04	26556
808.182	26636
808.324	26697
808.465	26693
808.607	26849
808.749	26868
808.891	26921
809.033	27329
809.174	27055
809.316	26937
809.458	26948
809.6	26960
809.741	27135
809.883	27047
810.025	27066
810.166	27268
810.308	27256
810.45	27275
810.591	27214
810.733	27108
810.875	26956
811.016	26952
811.158	26918
811.299	26994
811.441	27100
811.582	27127
811.724	26876
811.865	26944
812.007	27032
812.148	26975
812.29	27020
812.431	27028
812.573	27359
812.714	27481
812.855	27405
812.997	27701
813.138	27812
813.279	27538
813.421	27625
813.562	27359
813.703	27272
813.845	27230
813.986	26857
814.127	26872
814.268	26674
814.41	26613
814.551	26746
814.692	26845
814.833	26514
814.974	26541
815.115	26667
815.256	26381
815.397	26503
815.539	26488
815.68	26385
815.821	26370
815.962	26442
816.103	26499
816.244	26461
816.385	26149
816.526	26122
816.666	25966
816.807	26058
816.948	25982
817.089	25989
817.23	25997
817.371	25814
817.512	25925
817.653	25963
817.793	25822
817.934	25947
818.075	25883
818.216	25871
818.356	25917
818.497	25753
818.638	25609
818.778	25635
818.919	25655
819.06	25647
819.2	25727
819.341	25982
819.481	25784
819.622	26039
819.762	26100
819.903	26077
820.043	26050
820.184	26115
820.324	26005
820.465	26058
820.605	26043
820.746	25966
820.886	25951
821.026	26001
821.167	26024
821.307	26062
821.447	25925
821.588	25928
821.728	25666
821.868	25586
822.008	25445
822.149	25369
822.289	25472
822.429	25137
822.569	25057
822.709	25000
822.849	24886
822.99	24981
823.13	24787
823.27	24871
823.41	24566
823.55	24551
823.69	24745
823.83	24593
823.97	24692
824.11	24486
824.25	24448
824.389	24494
824.529	24677
824.669	24498
824.809	24654
824.949	24597
825.089	24544
825.228	24513
825.368	24292
825.508	24407
825.648	24399
825.787	24479
825.927	24418
826.067	24414
826.206	24228
826.346	24391
826.485	24490
826.625	24369
826.765	24502
826.904	24399
827.044	24140
827.183	24133
827.323	24049
827.462	24178
827.601	24060
827.741	24117
827.88	24057
828.02	23954
828.159	24186
828.298	24117
828.437	24087
828.577	24030
828.716	24235
828.855	24015
828.994	23779
829.134	23813
829.273	23764
829.412	23718
829.551	23767
829.69	23710
829.829	23893
829.968	23824
830.107	23741
830.246	23817
830.385	23638
830.524	23756
830.663	23520
830.802	23566
830.941	23372
831.08	23448
831.219	23611
831.357	23501
831.496	23596
831.635	23395
831.774	23227
831.913	23334
832.051	23155
832.19	23174
832.329	23113
832.467	23155
832.606	23128
832.744	23143
832.883	23037
833.022	23121
833.16	23079
833.299	23044
833.437	23189
833.576	23208
833.714	23216
833.852	23250
833.991	23288
834.129	23288
834.267	23041
834.406	23083
834.544	23239
834.682	23292
834.821	23143
834.959	23307
835.097	23143
835.235	23181
835.373	23136
835.511	23303
835.65	23014
835.788	23037
835.926	22847
836.064	22778
836.202	22828
836.34	23022
836.478	23185
836.615	23010
836.753	23121
836.891	23185
837.029	23121
837.167	22930
837.305	22831
837.443	22942
837.58	22885
837.718	22866
837.856	23056
837.993	22809
838.131	22862
838.269	22668
838.406	22752
838.544	22702
838.681	22588
838.819	22428
838.956	22424
839.094	22329
839.231	22428
839.369	22641
839.506	22626
839.643	22481
839.781	22352
839.918	22394
840.055	22287
840.193	22310
840.33	22291
840.467	22211
840.604	22402
840.742	22504
840.879	22105
841.016	22238
841.153	22116
841.29	22276
841.427	22215
841.564	22234
841.701	22169
841.838	22234
841.975	22112
842.112	22166
842.249	22101
842.385	21926
842.522	22261
842.659	22120
842.796	22135
842.933	22105
843.069	21979
843.206	22070
843.343	22044
843.479	22082
843.616	22169
843.752	21812
843.889	21956
844.025	22063
844.162	21808
844.298	21884
844.435	21835
844.571	21850
844.708	22036
844.844	22032
844.98	21960
845.117	21926
845.253	22017
845.389	21804
845.525	21793
845.661	21591
845.798	21447
845.934	21633
846.07	21542
846.206	21622
846.342	21671
846.478	21591
846.614	21336
846.75	21336
846.886	21336
847.022	21458
847.158	21428
847.294	21233
847.429	21359
847.565	21275
847.701	21485
847.837	21032
847.972	21074
848.108	21237
848.244	21135
848.379	20895
848.515	20952
848.65	20899
848.786	20963
848.921	20853
849.057	20967
849.192	21024
849.328	21055
849.463	20891
849.598	20815
849.734	20872
849.869	20686
850.004	20648
850.14	20667
850.275	20758
850.41	20609
850.545	20754
850.68	20735
850.815	20686
850.95	20670
851.085	20902
851.22	20739
851.355	20594
851.49	20571
851.625	20560
851.76	20556
851.895	20625
852.03	20575
852.165	20571
852.299	20746
852.434	20716
852.569	20823
852.703	20727
852.838	20682
852.973	20746
853.107	20720
853.242	20568
853.376	20545
853.511	20442
853.645	20476
853.78	20518
853.914	20499
854.048	20492
854.183	20450
854.317	20446
854.451	20674
854.585	20545
854.72	20492
854.854	20651
854.988	20400
855.122	20514
855.256	20431
855.39	20480
855.524	20503
855.658	20469
855.792	20533
855.926	20530
856.06	20621
856.194	20503
856.327	20495
856.461	20427
856.595	20427
856.729	20530
856.862	20617
856.996	20522
857.13	20602
857.263	20693
857.397	20632
857.53	20556
857.664	20530
857.797	20575
857.931	20602
858.064	20583
858.197	20609
858.331	20427
858.464	20408
858.597	20336
858.731	20549
858.864	20400
858.997	20484
859.13	20476
859.263	20484
859.396	20518
859.529	20495
859.662	20389
859.795	20423
859.928	20511
860.061	20522
860.194	20583
860.327	20530
860.46	20568
860.592	20640
860.725	20667
860.858	20678
860.99	20655
861.123	20503
861.256	20431
861.388	20514
861.521	21036
861.653	20450
861.786	20366
861.918	20374
862.05	20408
862.183	20400
862.315	20549
862.447	20450
862.58	20457
862.712	20214
862.844	20229
862.976	20214
863.108	20263
863.24	20613
863.372	20054
863.504	20301
863.636	20183
863.768	20244
863.9	20214
864.032	20134
864.164	20119
864.296	20206
864.428	20256
864.559	20240
864.691	20282
864.823	20282
864.954	20263
865.086	20229
865.217	20130
865.349	20008
865.48	20008
865.612	20088
865.743	20168
865.875	20096
866.006	20138
866.137	20130
866.269	20107
866.4	20126
866.531	20027
866.662	20081
866.793	20005
866.924	19997
867.055	20001
867.186	20039
867.317	20092
867.448	20054
867.579	19959
867.71	19951
867.841	20058
867.972	20084
868.103	20100
868.233	20084
868.364	20020
868.495	20240
868.625	20332
868.756	20355
868.886	20157
869.017	20320
869.147	20370
869.278	20328
869.408	20324
869.539	20320
869.669	20419
869.799	20385
869.929	20457
870.06	20431
870.19	20541
870.32	20575
870.45	20606
870.58	20667
870.71	20826
870.84	20819
870.97	20720
871.1	20667
871.23	20868
871.36	20826
871.489	20754
871.619	20838
871.749	20948
871.879	20807
872.008	21009
872.138	21009
872.267	20899
872.397	20724
872.526	20708
872.656	20678
872.785	20724
872.915	20921
873.044	20952
873.173	20944
873.303	20952
873.432	20910
873.561	21047
873.69	21024
873.819	20838
873.948	20941
874.077	21024
874.206	20883
874.335	21001
874.464	20948
874.593	21169
874.722	21127
874.851	21146
874.979	21264
875.108	21279
875.237	21135
875.365	21081
875.494	21218
875.623	21291
875.751	21127
875.88	21165
876.008	21321
876.136	21443
876.265	21542
876.393	21709
876.521	21625
876.65	21534
876.778	21538
876.906	21519
877.034	21416
877.162	21580
877.29	21447
877.418	21603
877.546	21462
877.674	21644
877.802	21526
877.93	21549
878.058	21549
878.185	21359
878.313	21557
878.441	21538
878.568	21378
878.696	21488
878.824	21412
878.951	21583
879.079	21751
879.206	21884
879.333	21682
879.461	21622
879.588	21663
879.715	21690
879.842	21816
879.97	21523
880.097	21367
880.224	21348
880.351	21367
880.478	21329
880.605	21287
880.732	21321
880.859	21557
880.986	21329
881.112	21405
881.239	21245
881.366	21127
881.493	20960
881.619	20906
881.746	21013
881.872	20868
881.999	20960
882.125	20952
882.252	20956
882.378	20891
882.505	20921
882.631	20781
882.757	20754
882.883	20686
883.01	20708
883.136	20617
883.262	20503
883.388	20488
883.514	20651
883.64	20712
883.766	20655
883.892	20511
884.018	20564
884.143	20541
884.269	20587
884.395	20438
884.52	20301
884.646	20412
884.772	20126
884.897	20145
885.023	20412
885.148	20362
885.274	20434
885.399	20320
885.524	20183
885.65	20317
885.775	20278
885.9	20172
886.025	20351
886.15	20400
886.275	20229
886.4	20126
886.525	20290
886.65	20221
886.775	20218
886.9	20309
887.025	20549
887.149	20259
887.274	20180
887.399	20065
887.523	19955
887.648	20008
887.773	20062
887.897	20183
888.021	20187
888.146	19879
888.27	20024
888.395	20065
888.519	20164
888.643	20077
888.767	20157
888.891	20069
889.015	19822
889.139	19913
889.263	19887
889.387	20084
889.511	20077
889.635	20001
889.759	19734
889.883	19788
890.006	19833
890.13	20016
890.254	19719
890.377	19803
890.501	19552
890.624	19632
890.748	19628
890.871	19445
890.995	19400
891.118	19449
891.241	19495
891.364	19563
891.488	19559
891.611	19502
891.734	19510
891.857	19460
891.98	19464
892.103	19476
892.226	19548
892.349	19457
892.471	19293
892.594	19381
892.717	19312
892.839	19373
892.962	19381
893.085	19476
893.207	19331
893.33	19308
893.452	19171
893.575	19266
893.697	19297
893.819	19521
893.941	19643
894.064	19571
894.186	19213
894.308	19335
894.43	19457
894.552	19472
894.674	19449
894.796	19293
894.918	19320
895.04	19324
895.161	19381
895.283	19369
895.405	19293
895.526	19388
895.648	19434
895.769	19346
895.891	19400
896.012	19476
896.134	19339
896.255	19365
896.376	19335
896.498	19388
896.619	19396
896.74	19377
896.861	19426
896.982	19616
897.103	19772
897.224	19651
897.345	19666
897.466	19670
897.587	19658
897.708	19731
897.828	19537
897.949	19529
898.07	19312
898.19	19556
898.311	19552
898.431	19575
898.552	19529
898.672	19696
898.792	19742
898.913	19791
899.033	19552
899.153	19434
899.273	19384
899.393	19377
899.513	19487
899.633	19396
899.753	19362
899.873	19362
899.993	19381
900.113	19236
900.232	19343
900.352	19335
900.472	19084
900.591	19088
900.711	19236
900.83	19209
900.95	19168
901.069	19247
901.189	19008
901.308	18932
901.427	18726
901.546	18852
901.665	18700
901.784	18768
901.904	18669
902.023	18513
902.141	18334
902.26	18254
902.379	18369
902.498	18315
902.617	18243
902.735	18342
902.854	18232
902.973	18224
903.091	17939
903.21	17961
903.328	17965
903.446	17836
903.565	17764
903.683	17805
903.801	17680
903.919	17764
904.038	17680
904.156	17543
904.274	17722
904.392	17497
904.51	17501
904.627	17520
904.745	17562
904.863	17596
904.981	17345
905.098	17200
905.216	17208
905.334	17193
905.451	17223
905.569	17113
905.686	17208
905.803	17242
905.921	16965
906.038	17136
906.155	17067
906.272	16915
906.389	16965
906.506	16744
906.623	16790
906.74	16672
906.857	16721
906.974	16672
907.091	16691
907.208	16927
907.324	16793
907.441	16607
907.557	16523
907.674	16481
907.79	16436
907.907	16478
908.023	16466
908.139	16447
908.256	16436
908.372	16424
908.488	16329
908.604	16265
908.72	16158
908.836	16261
908.952	16249
909.068	16207
909.184	16280
909.3	16124
909.415	16230
909.531	16226
909.647	16025
909.762	15937
909.878	15854
909.993	15884
910.108	15903
910.224	15800
910.339	15873
910.454	15789
910.57	15808
910.685	15682
910.8	15892
910.915	15956
911.03	15759
911.145	15553
911.259	15469
911.374	15488
911.489	15568
911.604	15389
911.718	15207
911.833	15294
911.947	15222
912.062	15157
912.176	15218
912.291	15252
912.405	15279
912.519	15530
912.633	15435
912.748	15214
912.862	15275
912.976	15097
913.09	15009
913.204	15055
913.318	15077
913.431	15283
913.545	15180
913.659	15211
913.772	15024
913.886	14906
914	14899
914.113	14956
914.226	15005
914.34	15070
914.453	14819
914.566	14910
914.68	14754
914.793	14754
914.906	14583
915.019	14571
915.132	14465
915.245	14579
915.358	14484
915.47	14571
915.583	14514
915.696	14621
915.809	14629
915.921	14743
916.034	14530
916.146	14492
916.259	14438
916.371	14514
916.483	14545
916.595	14450
916.708	14381
916.82	14400
916.932	14374
917.044	14347
917.156	14305
917.268	14164
917.38	14221
917.491	14240
917.603	14237
917.715	14263
917.826	14240
917.938	14195
918.049	14210
918.161	14142
918.272	14267
918.384	14332
918.495	14153
918.606	13982
918.717	13917
918.828	13978
918.939	14092
919.05	13811
919.161	13898
919.272	13898
919.383	13883
919.494	14012
919.604	14191
919.715	13970
919.826	13822
919.936	13944
920.047	13967
920.157	13940
920.267	14142
920.378	13997
920.488	13913
920.598	13997
920.708	14221
920.818	14073
920.928	14115
921.038	14210
921.148	14138
921.258	13902
921.368	13887
921.477	13780
921.587	13712
921.697	13639
921.806	13670
921.916	13518
922.025	13377
922.134	13381
922.244	13304
922.353	13457
922.462	13259
922.571	13263
922.68	13061
922.789	12985
922.898	12932
923.007	12916
923.116	12973
923.224	12985
923.333	12947
923.442	12935
923.55	12795
923.659	12894
923.767	12867
923.876	12897
923.984	12848
924.092	12814
924.201	12696
924.309	12779
924.417	12772
924.525	12757
924.633	12673
924.741	13441
924.849	12582
924.956	12707
925.064	12513
925.172	12467
925.279	12433
925.387	12471
925.494	12441
925.602	12513
925.709	12506
925.816	12296
925.924	12513
926.031	12502
926.138	12429
926.245	12403
926.352	12361
926.459	12445
926.566	12467
926.673	12308
926.779	12186
926.886	12167
926.993	12057
927.099	11977
927.206	12003
927.312	11977
927.419	12098
927.525	12041
927.631	12098
927.737	11977
927.843	11855
927.95	11794
928.056	11775
928.162	11901
928.267	11935
928.373	12662
928.479	11969
928.585	11638
928.69	11798
928.796	11748
928.901	11722
929.007	11562
929.112	11699
929.218	11672
929.323	11619
929.428	11539
929.533	11684
929.638	11554
929.743	11672
929.848	11566
929.953	11539
930.058	11379
930.163	11277
930.267	11311
930.372	11440
930.477	11246
930.581	11471
930.685	11330
930.79	11128
930.894	11227
930.998	11079
931.103	11330
931.207	10938
931.311	10957
931.415	10828
931.519	10626
931.623	10656
