Data from test_V78500241_2577.txt Node
Date: Fri Mar 25 15:27:48 CST 2022
User: usil
Spectrometer: V785-0024
Trigger mode: 0
Integration Time (sec): 4.000000E-1
Scans to average: 1
Nonlinearity correction enabled: false
Boxcar width: 0
Storing dark spectrum: false
XAxis mode: Wavelengths
Number of Pixels in Spectrum: 1024
>>>>>Begin Spectral Data<<<<<
801.071	27351
801.214	27176
801.356	27138
801.499	26895
801.641	26899
801.783	26765
801.926	26914
802.068	26830
802.211	26720
802.353	26701
802.496	26480
802.638	26511
802.78	26522
802.923	26431
803.065	26457
803.208	26278
803.35	26587
803.492	26526
803.635	26648
803.777	26552
803.919	26549
804.061	26815
804.204	26625
804.346	26507
804.488	26473
804.63	26606
804.773	26423
804.915	26598
805.057	26640
805.199	26598
805.341	26739
805.483	26655
805.626	26705
805.768	26804
805.91	26735
806.052	26819
806.194	26571
806.336	26910
806.478	26708
806.62	26804
806.762	26899
806.904	27001
807.046	27237
807.188	27302
807.33	27211
807.472	27127
807.614	27142
807.756	27077
807.898	27013
808.04	26956
808.182	26971
808.324	26967
808.465	27062
808.607	27272
808.749	27447
808.891	27405
809.033	27340
809.174	27329
809.316	27233
809.458	27233
809.6	27321
809.741	27420
809.883	27500
810.025	27595
810.166	27694
810.308	27515
810.45	27701
810.591	27378
810.733	27340
810.875	27241
811.016	27188
811.158	27355
811.299	27389
811.441	27576
811.582	27439
811.724	27367
811.865	27412
812.007	27310
812.148	27249
812.29	27325
812.431	27408
812.573	27610
812.714	27580
812.855	27892
812.997	27873
813.138	28032
813.279	27876
813.421	27899
813.562	27808
813.703	27671
813.845	27408
813.986	27226
814.127	27116
814.268	26982
814.41	27009
814.551	26834
814.692	27184
814.833	27085
814.974	27039
815.115	26940
815.256	26937
815.397	26864
815.539	26807
815.68	26686
815.821	26743
815.962	26826
816.103	26621
816.244	26629
816.385	26438
816.526	26537
816.666	26355
816.807	26134
816.948	26294
817.089	26317
817.23	26332
817.371	26278
817.512	26294
817.653	26210
817.793	26126
817.934	26294
818.075	26210
818.216	26259
818.356	26164
818.497	26092
818.638	25928
818.778	25959
818.919	26065
819.06	26039
819.2	26183
819.341	26339
819.481	26328
819.622	26301
819.762	26499
819.903	26476
820.043	26446
820.184	26339
820.324	26450
820.465	26362
820.605	26370
820.746	26263
820.886	26290
821.026	26275
821.167	26301
821.307	26385
821.447	26336
821.588	26103
821.728	26016
821.868	25928
822.008	25734
822.149	25765
822.289	25814
822.429	25396
822.569	25491
822.709	25373
822.849	25213
822.99	25225
823.13	25187
823.27	25221
823.41	25057
823.55	24920
823.69	25076
823.83	25072
823.97	24916
824.11	24924
824.25	24882
824.389	24970
824.529	24878
824.669	24863
824.809	25012
824.949	25072
825.089	24951
825.228	25012
825.368	24848
825.508	24787
825.648	24859
825.787	24764
825.927	24840
826.067	24696
826.206	24650
826.346	24848
826.485	24844
826.625	24715
826.765	24776
826.904	24749
827.044	24513
827.183	24521
827.323	24407
827.462	24486
827.601	24475
827.741	24251
827.88	24445
828.02	24338
828.159	24346
828.298	24414
828.437	24429
828.577	24254
828.716	24502
828.855	24391
828.994	24209
829.134	24171
829.273	24167
829.412	24106
829.551	24144
829.69	24053
829.829	24167
829.968	24254
830.107	24159
830.246	24155
830.385	24102
830.524	24087
830.663	23961
830.802	24003
830.941	23745
831.08	23760
831.219	23901
831.357	23859
831.496	24060
831.635	23748
831.774	23737
831.913	23733
832.051	23714
832.19	23604
832.329	23668
832.467	23600
832.606	23406
832.744	23322
832.883	23482
833.022	23376
833.16	23551
833.299	23566
833.437	23452
833.576	23505
833.714	23493
833.852	23634
833.991	23585
834.129	23661
834.267	23516
834.406	23558
834.544	23604
834.682	23608
834.821	23474
834.959	23710
835.097	23258
835.235	23691
835.373	23600
835.511	23539
835.65	23368
835.788	23379
835.926	23341
836.064	23181
836.202	23200
836.34	23433
836.478	23452
836.615	23341
836.753	23387
836.891	23410
837.029	23311
837.167	23288
837.305	23280
837.443	23273
837.58	23235
837.718	23318
837.856	23269
837.993	23189
838.131	23181
838.269	23079
838.406	23094
838.544	23098
838.681	22908
838.819	22942
838.956	22793
839.094	22596
839.231	22797
839.369	22847
839.506	23044
839.643	22991
839.781	22771
839.918	22683
840.055	22668
840.193	22805
840.33	22615
840.467	22641
840.604	22691
840.742	23010
840.879	22634
841.016	22687
841.153	22569
841.29	22725
841.427	22557
841.564	22729
841.701	22577
841.838	22706
841.975	22622
842.112	22656
842.249	22470
842.385	22637
842.522	22656
842.659	22554
842.796	22470
842.933	22402
843.069	22398
843.206	22352
843.343	22428
843.479	22402
843.616	22440
843.752	22238
843.889	22116
844.025	22242
844.162	22234
844.298	22207
844.435	22147
844.571	22223
844.708	22169
844.844	22287
844.98	22230
845.117	22375
845.253	22112
845.389	22010
845.525	22128
845.661	21975
845.798	21918
845.934	22059
846.07	21838
846.206	22002
846.342	21975
846.478	21770
846.614	21682
846.75	21629
846.886	21717
847.022	21800
847.158	21660
847.294	21641
847.429	21652
847.565	21622
847.701	21930
847.837	21466
847.972	21367
848.108	21481
848.244	21389
848.379	21310
848.515	21241
848.65	21123
848.786	21268
848.921	21279
849.057	21363
849.192	21401
849.328	21382
849.463	21256
849.598	21237
849.734	21013
849.869	21005
850.004	21017
850.14	21017
850.275	21032
850.41	20982
850.545	21024
850.68	20975
850.815	20948
850.95	20887
851.085	21104
851.22	21089
851.355	21032
851.49	20986
851.625	21028
851.76	21028
851.895	21028
852.03	20941
852.165	21036
852.299	21093
852.434	21165
852.569	21089
852.703	20906
852.838	21127
852.973	21070
853.107	21100
853.242	20952
853.376	20804
853.511	20777
853.645	20792
853.78	20918
853.914	20906
854.048	20785
854.183	20895
854.317	20872
854.451	21096
854.585	20895
854.72	20902
854.854	20906
854.988	20838
855.122	20902
855.256	20811
855.39	20849
855.524	20895
855.658	20857
855.792	20868
855.926	20914
856.06	20921
856.194	20902
856.327	20788
856.461	20750
856.595	20750
856.729	20792
856.862	20887
856.996	20800
857.13	20914
857.263	20872
857.397	20994
857.53	20880
857.664	20842
857.797	20880
857.931	20963
858.064	20933
858.197	20937
858.331	20857
858.464	20834
858.597	20788
858.731	20819
858.864	20933
858.997	20743
859.13	20826
859.263	20925
859.396	20853
859.529	20804
859.662	20823
859.795	20792
859.928	20758
860.061	21017
860.194	21112
860.327	20834
860.46	20872
860.592	20990
860.725	21024
860.858	21058
860.99	20792
861.123	20644
861.256	20792
861.388	20948
861.521	21526
861.653	20743
861.786	20568
861.918	20750
862.05	20674
862.183	20731
862.315	20788
862.447	20864
862.58	20735
862.712	20598
862.844	20579
862.976	20659
863.108	20629
863.24	21100
863.372	20514
863.504	20617
863.636	20556
863.768	20617
863.9	20590
864.032	20446
864.164	20609
864.296	20609
864.428	20693
864.559	20579
864.691	20644
864.823	20533
864.954	20488
865.086	20594
865.217	20438
865.349	20351
865.48	20480
865.612	20328
865.743	20541
865.875	20457
866.006	20442
866.137	20419
866.269	20404
866.4	20526
866.531	20457
866.662	20324
866.793	20385
866.924	20355
867.055	20461
867.186	20404
867.317	20298
867.448	20290
867.579	20415
867.71	20415
867.841	20301
867.972	20503
868.103	20381
868.233	20370
868.364	20317
868.495	20503
868.625	20613
868.756	20716
868.886	20552
869.017	20617
869.147	20583
869.278	20746
869.408	20720
869.539	20621
869.669	20602
869.799	20731
869.929	20762
870.06	20758
870.19	20861
870.32	20895
870.45	20872
870.58	21100
870.71	21157
870.84	21176
870.97	21039
871.1	21146
871.23	21291
871.36	21237
871.489	21169
871.619	21211
871.749	21203
871.879	21249
872.008	21378
872.138	21294
872.267	21222
872.397	21020
872.526	21077
872.656	21001
872.785	21055
872.915	21192
873.044	21321
873.173	21313
873.303	21340
873.432	21412
873.561	21389
873.69	21245
873.819	21313
873.948	21306
874.077	21363
874.206	21184
874.335	21355
874.464	21340
874.593	21504
874.722	21412
874.851	21568
874.979	21561
875.108	21515
875.237	21469
875.365	21443
875.494	21549
875.623	21466
875.751	21439
875.88	21447
876.008	21641
876.136	21694
876.265	21941
876.393	22067
876.521	22006
876.65	21930
876.778	21895
876.906	21895
877.034	21713
877.162	21831
877.29	21816
877.418	21911
877.546	21869
877.674	21804
877.802	21857
877.93	21918
878.058	21808
878.185	21717
878.313	21911
878.441	21781
878.568	21698
878.696	21736
878.824	21956
878.951	21827
879.079	21979
879.206	22067
879.333	22029
879.461	21800
879.588	21979
879.715	22093
879.842	22131
879.97	21884
880.097	21694
880.224	21690
880.351	21736
880.478	21641
880.605	21652
880.732	21709
880.859	21899
880.986	21701
881.112	21720
881.239	21622
881.366	21500
881.493	21325
881.619	21188
881.746	21321
881.872	21355
881.999	21310
882.125	21237
882.252	21291
882.378	21329
882.505	21378
882.631	21135
882.757	21043
882.883	21043
883.01	20925
883.136	20883
883.262	20849
883.388	20765
883.514	20956
883.64	20963
883.766	20948
883.892	20743
884.018	20724
884.143	20921
884.269	21058
884.395	20655
884.52	20655
884.646	20629
884.772	20598
884.897	20476
885.023	20598
885.148	20697
885.274	20667
885.399	20632
885.524	20606
885.65	20625
885.775	20560
885.9	20598
886.025	20716
886.15	20720
886.275	20583
886.4	20598
886.525	20526
886.65	20613
886.775	20571
886.9	20663
887.025	20857
887.149	20667
887.274	20381
887.399	20377
887.523	20412
887.648	20355
887.773	20423
887.897	20454
888.021	20431
888.146	20305
888.27	20503
888.395	20579
888.519	20419
888.643	20427
888.767	20370
888.891	20183
889.015	20199
889.139	20263
889.263	20187
889.387	20248
889.511	20358
889.635	20278
889.759	20206
889.883	20191
890.006	20218
890.13	20195
890.254	20081
890.377	20134
890.501	19932
890.624	19921
890.748	19849
890.871	19784
890.995	19811
891.118	19674
891.241	19799
891.364	19746
891.488	19940
891.611	19700
891.734	19731
891.857	19784
891.98	19803
892.103	19658
892.226	19731
892.349	19693
892.471	19620
892.594	19731
892.717	19666
892.839	19681
892.962	19674
893.085	19788
893.207	19769
893.33	19624
893.452	19590
893.575	19746
893.697	19666
893.819	19947
893.941	19879
894.064	19841
894.186	19655
894.308	19632
894.43	19750
894.552	19868
894.674	19750
894.796	19689
894.918	19594
895.04	19731
895.161	19772
895.283	19655
895.405	19647
895.526	19674
895.648	19620
895.769	19715
895.891	19685
896.012	19860
896.134	19776
896.255	19689
896.376	19525
896.498	19712
896.619	19791
896.74	19662
896.861	19750
896.982	19970
897.103	20035
897.224	19997
897.345	19970
897.466	19753
897.587	20008
897.708	20081
897.828	20005
897.949	19967
898.07	19674
898.19	19784
898.311	20024
898.431	19871
898.552	19890
898.672	19997
898.792	19928
898.913	19978
899.033	19681
899.153	19791
899.273	19567
899.393	19681
899.513	19563
899.633	19723
899.753	19715
899.873	19567
899.993	19780
900.113	19533
900.232	19712
900.352	19601
900.472	19491
900.591	19228
900.711	19506
900.83	19400
900.95	19407
901.069	19449
901.189	19400
901.308	19175
901.427	18996
901.546	19053
901.665	18985
901.784	19050
901.904	18875
902.023	18783
902.141	18483
902.26	18563
902.379	18646
902.498	18551
902.617	18490
902.735	18566
902.854	18528
902.973	18509
903.091	18213
903.21	18209
903.328	18228
903.446	18182
903.565	17988
903.683	18125
903.801	17946
903.919	17988
904.038	17973
904.156	17843
904.274	17874
904.392	17714
904.51	17752
904.627	17851
904.745	17756
904.863	17840
904.981	17619
905.098	17509
905.216	17619
905.334	17524
905.451	17554
905.569	17444
905.686	17596
905.803	17543
905.921	17296
906.038	17368
906.155	17246
906.272	17200
906.389	17136
906.506	17079
906.623	17121
906.74	16934
906.857	16915
906.974	16919
907.091	17151
907.208	17181
907.324	17029
907.441	16885
907.557	16748
907.674	16729
907.79	16592
907.907	16755
908.023	16797
908.139	16793
908.256	16630
908.372	16569
908.488	16596
908.604	16459
908.72	16394
908.836	16512
908.952	16402
909.068	16519
909.184	16523
909.3	16527
909.415	16535
909.531	16470
909.647	16207
909.762	16135
909.878	16120
909.993	16219
910.108	16109
910.224	16120
910.339	16143
910.454	16036
910.57	16021
910.685	16032
910.8	16150
910.915	16204
911.03	16010
911.145	15759
911.259	15739
911.374	15865
911.489	15663
911.604	15629
911.718	15431
911.833	15530
911.947	15428
912.062	15382
912.176	15610
912.291	15561
912.405	15599
912.519	15713
912.633	15823
912.748	15564
912.862	15504
912.976	15374
913.09	15211
913.204	15287
913.318	15378
913.431	15450
913.545	15382
913.659	15477
913.772	15256
913.886	15173
914	15142
914.113	15233
914.226	15340
914.34	15325
914.453	15131
914.566	15169
914.68	15116
914.793	15077
914.906	14796
915.019	14811
915.132	14686
915.245	14769
915.358	14800
915.47	14845
915.583	14762
915.696	14769
915.809	14914
915.921	14845
916.034	14701
916.146	14712
916.259	14629
916.371	14720
916.483	14697
916.595	14571
916.708	14575
916.82	14648
916.932	14545
917.044	14598
917.156	14579
917.268	14404
917.38	14450
917.491	14389
917.603	14476
917.715	14461
917.826	14492
917.938	14298
918.049	14252
918.161	14313
918.272	14552
918.384	14412
918.495	14396
918.606	14199
918.717	14187
918.828	14214
918.939	14195
919.05	14149
919.161	14164
919.272	14016
919.383	14145
919.494	14263
919.604	14393
919.715	14134
919.826	14126
919.936	14115
920.047	14282
920.157	14138
920.267	14343
920.378	14191
920.488	14157
920.598	14301
920.708	14442
920.818	14259
920.928	14278
921.038	14434
921.148	14454
921.258	14035
921.368	14103
921.477	13936
921.587	13871
921.697	13681
921.806	14035
921.916	13746
922.025	13689
922.134	13624
922.244	13510
922.353	13658
922.462	13514
922.571	13407
922.68	13327
922.789	13225
922.898	13232
923.007	13107
923.116	13282
923.224	13282
923.333	13179
923.442	13061
923.55	12985
923.659	13057
923.767	13187
923.876	13027
923.984	13023
924.092	12844
924.201	13023
924.309	12973
924.417	12954
924.525	12840
924.633	12886
924.741	13784
924.849	12646
924.956	12821
925.064	12646
925.172	12646
925.279	12681
925.387	12658
925.494	12631
925.602	12753
925.709	12627
925.816	12570
925.924	12551
926.031	12681
926.138	12585
926.245	12688
926.352	12547
926.459	12623
926.566	12563
926.673	12422
926.779	12395
926.886	12452
926.993	12262
927.099	12144
927.206	12110
927.312	12155
927.419	12289
927.525	12194
927.631	12178
927.737	12064
927.843	12110
927.95	12007
928.056	12045
928.162	12102
928.267	12114
928.373	12642
928.479	12098
928.585	11847
928.69	12030
928.796	12030
928.901	11901
929.007	11779
929.112	11870
929.218	11927
929.323	11790
929.428	11680
929.533	11939
929.638	11623
929.743	11824
929.848	11760
929.953	11684
930.058	11581
930.163	11554
930.267	11535
930.372	11570
930.477	11315
930.581	11630
930.685	11482
930.79	11284
930.894	11387
930.998	11379
931.103	11406
931.207	11105
931.311	11003
931.415	10961
931.519	10782
931.623	10793
