Data from test_V78500241_3118.txt Node
Date: Fri Mar 25 15:31:34 CST 2022
User: usil
Spectrometer: V785-0024
Trigger mode: 0
Integration Time (sec): 4.000000E-1
Scans to average: 1
Nonlinearity correction enabled: false
Boxcar width: 0
Storing dark spectrum: false
XAxis mode: Wavelengths
Number of Pixels in Spectrum: 1024
>>>>>Begin Spectral Data<<<<<
801.071	26895
801.214	26937
801.356	26655
801.499	26552
801.641	26488
801.783	26427
801.926	26640
802.068	26423
802.211	26419
802.353	26415
802.496	26248
802.638	26046
802.78	26157
802.923	26134
803.065	26077
803.208	26001
803.35	26088
803.492	26180
803.635	26191
803.777	26062
803.919	26199
804.061	26594
804.204	26366
804.346	26233
804.488	26145
804.63	26225
804.773	26073
804.915	26263
805.057	26225
805.199	26195
805.341	26278
805.483	26450
805.626	26278
805.768	26298
805.91	26431
806.052	26320
806.194	26172
806.336	26431
806.478	26358
806.62	26339
806.762	26495
806.904	26571
807.046	26735
807.188	26674
807.33	26754
807.472	26686
807.614	26644
807.756	26625
807.898	26617
808.04	26492
808.182	26450
808.324	26533
808.465	26716
808.607	26762
808.749	26975
808.891	27009
809.033	26990
809.174	27028
809.316	26819
809.458	26944
809.6	26929
809.741	26940
809.883	27104
810.025	27108
810.166	27306
810.308	27192
810.45	27154
810.591	27058
810.733	26971
810.875	26880
811.016	26834
811.158	26830
811.299	26994
811.441	27207
811.582	27062
811.724	26849
811.865	26971
812.007	27020
812.148	26838
812.29	27032
812.431	27214
812.573	27294
812.714	27321
812.855	27306
812.997	27336
813.138	27625
813.279	27519
813.421	27310
813.562	27363
813.703	27260
813.845	27005
813.986	26712
814.127	26678
814.268	26556
814.41	26507
814.551	26545
814.692	26644
814.833	26438
814.974	26438
815.115	26537
815.256	26313
815.397	26385
815.539	26427
815.68	26347
815.821	26202
815.962	26278
816.103	26275
816.244	26172
816.385	26069
816.526	26054
816.666	25974
816.807	25753
816.948	25822
817.089	25928
817.23	25894
817.371	25799
817.512	25708
817.653	25628
817.793	25662
817.934	25765
818.075	25712
818.216	25769
818.356	25845
818.497	25791
818.638	25468
818.778	25616
818.919	25632
819.06	25518
819.2	25693
819.341	25784
819.481	25708
819.622	25845
819.762	26164
819.903	26119
820.043	26054
820.184	25993
820.324	25902
820.465	26054
820.605	25841
820.746	25909
820.886	25674
821.026	25898
821.167	25921
821.307	25799
821.447	25750
821.588	25719
821.728	25601
821.868	25377
822.008	25343
822.149	25202
822.289	25152
822.429	25061
822.569	24920
822.709	25038
822.849	24859
822.99	24867
823.13	24722
823.27	24661
823.41	24445
823.55	24448
823.69	24475
823.83	24566
823.97	24509
824.11	24338
824.25	24342
824.389	24292
824.529	24437
824.669	24384
824.809	24563
824.949	24338
825.089	24464
825.228	24380
825.368	24155
825.508	24262
825.648	24228
825.787	24338
825.927	24273
826.067	24197
826.206	24220
826.346	24186
826.485	24365
826.625	24216
826.765	24308
826.904	24258
827.044	24003
827.183	24018
827.323	24045
827.462	23973
827.601	24015
827.741	24022
827.88	23999
828.02	23832
828.159	23893
828.298	23954
828.437	23977
828.577	23790
828.716	24079
828.855	23893
828.994	23733
829.134	23646
829.273	23695
829.412	23585
829.551	23638
829.69	23646
829.829	23611
829.968	23805
830.107	23752
830.246	23695
830.385	23630
830.524	23710
830.663	23455
830.802	23387
830.941	23288
831.08	23364
831.219	23444
831.357	23258
831.496	23425
831.635	23254
831.774	23208
831.913	23174
832.051	23048
832.19	23029
832.329	23098
832.467	23006
832.606	22972
832.744	22889
832.883	22881
833.022	22923
833.16	22984
833.299	23162
833.437	23041
833.576	23014
833.714	23067
833.852	23204
833.991	22984
834.129	23029
834.267	23216
834.406	23052
834.544	23174
834.682	23048
834.821	22904
834.959	23242
835.097	23094
835.235	23159
835.373	23136
835.511	23128
835.65	22889
835.788	22911
835.926	22881
836.064	22790
836.202	22782
836.34	22839
836.478	23029
836.615	22862
836.753	22828
836.891	22915
837.029	22843
837.167	22809
837.305	22896
837.443	22729
837.58	22626
837.718	22748
837.856	22694
837.993	22687
838.131	22816
838.269	22569
838.406	22656
838.544	22592
838.681	22375
838.819	22348
838.956	22344
839.094	22272
839.231	22386
839.369	22238
839.506	22649
839.643	22284
839.781	22223
839.918	22173
840.055	22291
840.193	22211
840.33	22124
840.467	22196
840.604	22150
840.742	22306
840.879	22048
841.016	22021
841.153	22006
841.29	22280
841.427	22112
841.564	22090
841.701	22238
841.838	22131
841.975	21918
842.112	21972
842.249	21895
842.385	21918
842.522	22135
842.659	21956
842.796	21869
842.933	21991
843.069	21850
843.206	21842
843.343	21949
843.479	21895
843.616	21907
843.752	21842
843.889	21713
844.025	21869
844.162	21679
844.298	21720
844.435	21561
844.571	21572
844.708	21717
844.844	21770
844.98	21701
845.117	21701
845.253	21580
845.389	21549
845.525	21610
845.661	21580
845.798	21458
845.934	21488
846.07	21302
846.206	21397
846.342	21443
846.478	21401
846.614	21329
846.75	21093
846.886	21135
847.022	21211
847.158	21226
847.294	21256
847.429	21123
847.565	21089
847.701	21355
847.837	20887
847.972	20811
848.108	21039
848.244	21005
848.379	20773
848.515	20670
848.65	20765
848.786	20640
848.921	20788
849.057	20902
849.192	20811
849.328	20823
849.463	20697
849.598	20701
849.734	20560
849.869	20590
850.004	20598
850.14	20568
850.275	20617
850.41	20575
850.545	20522
850.68	20454
850.815	20507
850.95	20537
851.085	20667
851.22	20568
851.355	20499
851.49	20317
851.625	20526
851.76	20476
851.895	20442
852.03	20393
852.165	20594
852.299	20655
852.434	20609
852.569	20655
852.703	20564
852.838	20621
852.973	20560
853.107	20590
853.242	20560
853.376	20370
853.511	20263
853.645	20362
853.78	20412
853.914	20305
854.048	20278
854.183	20278
854.317	20339
854.451	20522
854.585	20381
854.72	20294
854.854	20332
854.988	20332
855.122	20412
855.256	20183
855.39	20404
855.524	20438
855.658	20415
855.792	20408
855.926	20309
856.06	20347
856.194	20351
856.327	20381
856.461	20267
856.595	20309
856.729	20202
856.862	20366
856.996	20313
857.13	20473
857.263	20454
857.397	20507
857.53	20362
857.664	20313
857.797	20370
857.931	20537
858.064	20343
858.197	20366
858.331	20278
858.464	20339
858.597	20221
858.731	20240
858.864	20332
858.997	20343
859.13	20229
859.263	20370
859.396	20385
859.529	20309
859.662	20362
859.795	20282
859.928	20339
860.061	20625
860.194	20579
860.327	20427
860.46	20389
860.592	20434
860.725	20503
860.858	20473
860.99	20442
861.123	20237
861.256	20366
861.388	20408
861.521	20883
861.653	20256
861.786	20054
861.918	20225
862.05	20237
862.183	20256
862.315	20389
862.447	20294
862.58	20347
862.712	20161
862.844	20138
862.976	20240
863.108	20096
863.24	20377
863.372	19947
863.504	20069
863.636	20153
863.768	20035
863.9	20107
864.032	20031
864.164	20016
864.296	20088
864.428	20195
864.559	20073
864.691	20069
864.823	20031
864.954	20065
865.086	20069
865.217	19947
865.349	19917
865.48	19947
865.612	19909
865.743	20176
865.875	19879
866.006	19887
866.137	19955
866.269	20024
866.4	19925
866.531	19944
866.662	19921
866.793	19978
866.924	19928
867.055	19944
867.186	19906
867.317	19940
867.448	19868
867.579	19913
867.71	19833
867.841	19803
867.972	19947
868.103	19909
868.233	20096
868.364	19925
868.495	20005
868.625	20199
868.756	20229
868.886	20126
869.017	20050
869.147	20240
869.278	20256
869.408	20176
869.539	20043
869.669	20187
869.799	20168
869.929	20275
870.06	20271
870.19	20522
870.32	20522
870.45	20446
870.58	20499
870.71	20727
870.84	20777
870.97	20609
871.1	20568
871.23	20769
871.36	20792
871.489	20659
871.619	20667
871.749	20853
871.879	20845
872.008	20872
872.138	20746
872.267	20716
872.397	20617
872.526	20606
872.656	20705
872.785	20689
872.915	20796
873.044	20842
873.173	20815
873.303	20800
873.432	20811
873.561	20990
873.69	20853
873.819	20800
873.948	20891
874.077	20754
874.206	20705
874.335	20750
874.464	20853
874.593	21119
874.722	21093
874.851	21020
874.979	21062
875.108	21131
875.237	20960
875.365	20872
875.494	20979
875.623	21135
875.751	20948
875.88	21024
876.008	21256
876.136	21279
876.265	21359
876.393	21443
876.521	21431
876.65	21564
876.778	21481
876.906	21340
877.034	21481
877.162	21348
877.29	21389
877.418	21431
877.546	21485
877.674	21481
877.802	21374
877.93	21370
878.058	21408
878.185	21325
878.313	21279
878.441	21302
878.568	21252
878.696	21348
878.824	21397
878.951	21408
879.079	21629
879.206	21728
879.333	21492
879.461	21454
879.588	21504
879.715	21629
879.842	21774
879.97	21469
880.097	21203
880.224	21180
880.351	21279
880.478	21401
880.605	21176
880.732	21180
880.859	21405
880.986	21150
881.112	21211
881.239	21096
881.366	20933
881.493	20849
881.619	20758
881.746	20857
881.872	20944
881.999	20727
882.125	20724
882.252	20887
882.378	20804
882.505	20994
882.631	20663
882.757	20571
882.883	20518
883.01	20545
883.136	20412
883.262	20328
883.388	20370
883.514	20556
883.64	20545
883.766	20431
883.892	20275
884.018	20210
884.143	20556
884.269	20514
884.395	20214
884.52	20046
884.646	20122
884.772	20084
884.897	20035
885.023	20275
885.148	20271
885.274	20263
885.399	20366
885.524	20214
885.65	20248
885.775	20180
885.9	20180
886.025	20244
886.15	20248
886.275	20054
886.4	20111
886.525	20122
886.65	20065
886.775	20161
886.9	20206
887.025	20278
887.149	20100
887.274	19947
887.399	19868
887.523	20001
887.648	20016
887.773	19849
887.897	20073
888.021	19894
888.146	19830
888.27	20069
888.395	20115
888.519	20024
888.643	19921
888.767	20046
888.891	19921
889.015	19712
889.139	19837
889.263	19750
889.387	19780
889.511	19921
889.635	19845
889.759	19784
889.883	19696
890.006	19799
890.13	19822
890.254	19643
890.377	19635
890.501	19578
890.624	19525
890.748	19529
890.871	19540
890.995	19259
891.118	19244
891.241	19320
891.364	19369
891.488	19441
891.611	19301
891.734	19350
891.857	19354
891.98	19381
892.103	19270
892.226	19388
892.349	19343
892.471	19129
892.594	19335
892.717	19320
892.839	19259
892.962	19270
893.085	19308
893.207	19236
893.33	19042
893.452	19160
893.575	19331
893.697	19175
893.819	19384
893.941	19369
894.064	19457
894.186	19122
894.308	19251
894.43	19251
894.552	19362
894.674	19430
894.796	19190
894.918	19297
895.04	19270
895.161	19301
895.283	19194
895.405	19327
895.526	19270
895.648	19293
895.769	19301
895.891	19293
896.012	19362
896.134	19240
896.255	19301
896.376	19316
896.498	19190
896.619	19308
896.74	19358
896.861	19445
896.982	19365
897.103	19871
897.224	19582
897.345	19525
897.466	19552
897.587	19483
897.708	19590
897.828	19609
897.949	19434
898.07	19369
898.19	19434
898.311	19533
898.431	19457
898.552	19578
898.672	19578
898.792	19506
898.913	19480
899.033	19472
899.153	19206
899.273	19225
899.393	19343
899.513	19259
899.633	19369
899.753	19251
899.873	19133
899.993	19297
900.113	19324
900.232	19225
900.352	19198
900.472	19137
900.591	19015
900.711	19069
900.83	18981
900.95	19133
901.069	19069
901.189	18928
901.308	18673
901.427	18688
901.546	18616
901.665	18684
901.784	18677
901.904	18555
902.023	18498
902.141	18247
902.26	18114
902.379	18304
902.498	18220
902.617	18209
902.735	18133
902.854	18079
902.973	17999
903.091	17882
903.21	17870
903.328	17927
903.446	17779
903.565	17813
903.683	17691
903.801	17566
903.919	17596
904.038	17543
904.156	17417
904.274	17554
904.392	17455
904.51	17467
904.627	17379
904.745	17471
904.863	17524
904.981	17220
905.098	17121
905.216	17090
905.334	17197
905.451	17048
905.569	17098
905.686	17159
905.803	17098
905.921	16889
906.038	17064
906.155	16976
906.272	16828
906.389	16782
906.506	16653
906.623	16645
906.74	16565
906.857	16535
906.974	16615
907.091	16626
907.208	16694
907.324	16683
907.441	16569
907.557	16436
907.674	16329
907.79	16367
907.907	16379
908.023	16341
908.139	16443
908.256	16390
908.372	16333
908.488	16238
908.604	16071
908.72	16124
908.836	16158
908.952	16051
909.068	16090
909.184	16173
909.3	16074
909.415	16169
909.531	16105
909.647	15838
909.762	15846
909.878	15827
909.993	15911
910.108	15713
910.224	15819
910.339	15789
910.454	15663
910.57	15610
910.685	15595
910.8	15865
910.915	15682
911.03	15625
911.145	15473
911.259	15431
911.374	15496
911.489	15336
911.604	15336
911.718	15199
911.833	15184
911.947	15077
912.062	15169
912.176	15123
912.291	15226
912.405	15157
912.519	15382
912.633	15378
912.748	15230
912.862	15127
912.976	15055
913.09	14872
913.204	14960
913.318	14944
913.431	15058
913.545	15081
913.659	15131
913.772	15062
913.886	14834
914	14727
914.113	14906
914.226	14956
914.34	14857
914.453	14731
914.566	14826
914.68	14682
914.793	14693
914.906	14495
915.019	14355
915.132	14305
915.245	14271
915.358	14431
915.47	14465
915.583	14454
915.696	14450
915.809	14564
915.921	14541
916.034	14396
916.146	14324
916.259	14278
916.371	14404
916.483	14454
916.595	14298
916.708	14358
916.82	14267
916.932	14252
917.044	14218
917.156	14214
917.268	14103
917.38	14221
917.491	14111
917.603	14134
917.715	14157
917.826	14248
917.938	14039
918.049	13925
918.161	13993
918.272	14206
918.384	14206
918.495	14092
918.606	13955
918.717	13849
918.828	13887
918.939	13902
919.05	13742
919.161	13856
919.272	13811
919.383	13780
919.494	14001
919.604	14084
919.715	13875
919.826	13788
919.936	13955
920.047	13883
920.157	13791
920.267	14027
920.378	13784
920.488	13833
920.598	14001
920.708	14145
920.818	13967
920.928	13932
921.038	14096
921.148	14039
921.258	13803
921.368	13765
921.477	13616
921.587	13518
921.697	13556
921.806	13677
921.916	13388
922.025	13331
922.134	13308
922.244	13232
922.353	13362
922.462	13160
922.571	13050
922.68	12973
922.789	12909
922.898	12821
923.007	12897
923.116	12913
923.224	12901
923.333	12810
923.442	12810
923.55	12760
923.659	12772
923.767	12871
923.876	12673
923.984	12810
924.092	12601
924.201	12700
924.309	12715
924.417	12783
924.525	12616
924.633	12612
924.741	13556
924.849	12319
924.956	12532
925.064	12422
925.172	12346
925.279	12483
925.387	12342
925.494	12315
925.602	12486
925.709	12372
925.816	12270
925.924	12346
926.031	12467
926.138	12308
926.245	12471
926.352	12254
926.459	12357
926.566	12273
926.673	12216
926.779	12281
926.886	12053
926.993	11977
927.099	11893
927.206	11969
927.312	11912
927.419	12060
927.525	11882
927.631	11923
927.737	11832
927.843	11798
927.95	11699
928.056	11836
928.162	11756
928.267	11828
928.373	12464
928.479	11931
928.585	11577
928.69	11779
928.796	11809
928.901	11646
929.007	11532
929.112	11642
929.218	11680
929.323	11490
929.428	11592
929.533	11680
929.638	11493
929.743	11455
929.848	11562
929.953	11478
930.058	11402
930.163	11113
930.267	11220
930.372	11444
930.477	11155
930.581	11440
930.685	11254
930.79	11162
930.894	11178
930.998	11166
931.103	11254
931.207	10801
931.311	10801
931.415	10755
931.519	10531
931.623	10497
