Data from test_V78500241_2417.txt Node
Date: Fri Mar 25 15:26:41 CST 2022
User: usil
Spectrometer: V785-0024
Trigger mode: 0
Integration Time (sec): 4.000000E-1
Scans to average: 1
Nonlinearity correction enabled: false
Boxcar width: 0
Storing dark spectrum: false
XAxis mode: Wavelengths
Number of Pixels in Spectrum: 1024
>>>>>Begin Spectral Data<<<<<
801.071	27382
801.214	27325
801.356	26967
801.499	27047
801.641	26853
801.783	26906
801.926	26864
802.068	26815
802.211	26727
802.353	26571
802.496	26560
802.638	26377
802.78	26564
802.923	26278
803.065	26214
803.208	26431
803.35	26400
803.492	26549
803.635	26560
803.777	26484
803.919	26526
804.061	26906
804.204	26625
804.346	26609
804.488	26271
804.63	26560
804.773	26492
804.915	26663
805.057	26689
805.199	26438
805.341	26705
805.483	26602
805.626	26602
805.768	26560
805.91	26541
806.052	26705
806.194	26476
806.336	26838
806.478	26590
806.62	26743
806.762	26682
806.904	27017
807.046	27157
807.188	27184
807.33	27085
807.472	27100
807.614	27062
807.756	26929
807.898	26864
808.04	26925
808.182	26864
808.324	27074
808.465	26994
808.607	27096
808.749	27332
808.891	27374
809.033	27348
809.174	27317
809.316	27176
809.458	27268
809.6	27195
809.741	27435
809.883	27435
810.025	27507
810.166	27686
810.308	27534
810.45	27424
810.591	27344
810.733	27203
810.875	27176
811.016	27135
811.158	27169
811.299	27252
811.441	27332
811.582	27393
811.724	27241
811.865	27150
812.007	27165
812.148	27294
812.29	27245
812.431	27298
812.573	27538
812.714	27549
812.855	27694
812.997	27774
813.138	27979
813.279	27857
813.421	27838
813.562	27603
813.703	27629
813.845	27454
813.986	27138
814.127	26971
814.268	26902
814.41	26868
814.551	27108
814.692	27024
814.833	26902
814.974	26967
815.115	26868
815.256	26788
815.397	26857
815.539	26720
815.68	26746
815.821	26811
815.962	26765
816.103	26659
816.244	26530
816.385	26606
816.526	26396
816.666	26370
816.807	26142
816.948	26191
817.089	26248
817.23	26282
817.371	26206
817.512	26100
817.653	26122
817.793	26081
817.934	26084
818.075	26130
818.216	26176
818.356	26111
818.497	26199
818.638	25936
818.778	25909
818.919	25917
819.06	26035
819.2	26062
819.341	26233
819.481	26240
819.622	26412
819.762	26495
819.903	26351
820.043	26431
820.184	26446
820.324	26263
820.465	26362
820.605	26355
820.746	26248
820.886	26115
821.026	26191
821.167	26233
821.307	26256
821.447	26305
821.588	26237
821.728	26046
821.868	25928
822.008	25734
822.149	25620
822.289	25616
822.429	25445
822.569	25415
822.709	25441
822.849	25137
822.99	25266
823.13	25190
823.27	24985
823.41	25008
823.55	24852
823.69	24798
823.83	24916
823.97	24875
824.11	24806
824.25	24852
824.389	24996
824.529	24886
824.669	24810
824.809	24935
824.949	24901
825.089	24935
825.228	24871
825.368	24665
825.508	24658
825.648	24673
825.787	24673
825.927	24730
826.067	24498
826.206	24734
826.346	24696
826.485	24692
826.625	24604
826.765	24760
826.904	24825
827.044	24441
827.183	24448
827.323	24452
827.462	24540
827.601	24289
827.741	24342
827.88	24357
828.02	24235
828.159	24418
828.298	24372
828.437	24384
828.577	24490
828.716	24391
828.855	24319
828.994	24205
829.134	24163
829.273	24194
829.412	24053
829.551	24018
829.69	23996
829.829	24041
829.968	24216
830.107	24114
830.246	24053
830.385	24064
830.524	23988
830.663	23859
830.802	23794
830.941	23687
831.08	23718
831.219	23623
831.357	23638
831.496	23927
831.635	23680
831.774	23505
831.913	23543
832.051	23509
832.19	23497
832.329	23520
832.467	23440
832.606	23242
832.744	23223
832.883	23337
833.022	23337
833.16	23448
833.299	23535
833.437	23490
833.576	23455
833.714	23474
833.852	23410
833.991	23501
834.129	23448
834.267	23501
834.406	23402
834.544	23471
834.682	23573
834.821	23360
834.959	23585
835.097	23402
835.235	23414
835.373	23414
835.511	23376
835.65	23372
835.788	23315
835.926	23136
836.064	23166
836.202	23212
836.34	23307
836.478	23318
836.615	23364
836.753	23341
836.891	23463
837.029	23277
837.167	23178
837.305	23246
837.443	23083
837.58	23121
837.718	23181
837.856	23174
837.993	23060
838.131	22995
838.269	22949
838.406	23029
838.544	23014
838.681	22854
838.819	22736
838.956	22630
839.094	22706
839.231	22683
839.369	22790
839.506	22999
839.643	22866
839.781	22611
839.918	22634
840.055	22497
840.193	22710
840.33	22557
840.467	22622
840.604	22546
840.742	22900
840.879	22470
841.016	22443
841.153	22413
841.29	22816
841.427	22542
841.564	22500
841.701	22512
841.838	22489
841.975	22519
842.112	22500
842.249	22341
842.385	22402
842.522	22375
842.659	22382
842.796	22268
842.933	22344
843.069	22185
843.206	22215
843.343	22363
843.479	22291
843.616	22325
843.752	22120
843.889	22086
844.025	22234
844.162	22131
844.298	22086
844.435	22051
844.571	22017
844.708	22093
844.844	22101
844.98	22109
845.117	22143
845.253	22032
845.389	22017
845.525	22017
845.661	21835
845.798	21808
845.934	21846
846.07	21819
846.206	21846
846.342	21835
846.478	21614
846.614	21614
846.75	21553
846.886	21496
847.022	21511
847.158	21523
847.294	21435
847.429	21648
847.565	21492
847.701	21629
847.837	21332
847.972	21138
848.108	21340
848.244	21355
848.379	21157
848.515	21074
848.65	21127
848.786	21180
848.921	21062
849.057	21260
849.192	21211
849.328	21184
849.463	21142
849.598	21074
849.734	21043
849.869	21081
850.004	20823
850.14	20906
850.275	20895
850.41	20792
850.545	20826
850.68	20842
850.815	21009
850.95	20853
851.085	20994
851.22	20960
851.355	20876
851.49	20815
851.625	20906
851.76	20853
851.895	20880
852.03	20788
852.165	20956
852.299	20906
852.434	21013
852.569	20929
852.703	20921
852.838	20944
852.973	21150
853.107	21047
853.242	20815
853.376	20769
853.511	20575
853.645	20667
853.78	20815
853.914	20800
854.048	20640
854.183	20769
854.317	20750
854.451	20845
854.585	20720
854.72	20689
854.854	20823
854.988	20629
855.122	20724
855.256	20636
855.39	20655
855.524	20845
855.658	20834
855.792	20826
855.926	20765
856.06	20731
856.194	20830
856.327	20701
856.461	20613
856.595	20705
856.729	20754
856.862	20800
856.996	20804
857.13	20880
857.263	20781
857.397	20788
857.53	20792
857.664	20705
857.797	20746
857.931	20777
858.064	20739
858.197	20762
858.331	20705
858.464	20674
858.597	20689
858.731	20632
858.864	20651
858.997	20598
859.13	20773
859.263	20769
859.396	20872
859.529	20773
859.662	20724
859.795	20674
859.928	20705
860.061	20910
860.194	20929
860.327	20853
860.46	20853
860.592	20819
860.725	20910
860.858	20838
860.99	20739
861.123	20712
861.256	20564
861.388	20609
861.521	21256
861.653	20636
861.786	20625
861.918	20556
862.05	20549
862.183	20568
862.315	20659
862.447	20724
862.58	20545
862.712	20507
862.844	20465
862.976	20568
863.108	20655
863.24	20826
863.372	20393
863.504	20450
863.636	20507
863.768	20404
863.9	20556
864.032	20412
864.164	20431
864.296	20461
864.428	20571
864.559	20556
864.691	20537
864.823	20492
864.954	20465
865.086	20400
865.217	20343
865.349	20332
865.48	20465
865.612	20396
865.743	20530
865.875	20347
866.006	20294
866.137	20339
866.269	20278
866.4	20351
866.531	20294
866.662	20298
866.793	20267
866.924	20259
867.055	20275
867.186	20305
867.317	20271
867.448	20286
867.579	20267
867.71	20244
867.841	20168
867.972	20267
868.103	20233
868.233	20221
868.364	20301
868.495	20431
868.625	20568
868.756	20537
868.886	20408
869.017	20541
869.147	20579
869.278	20674
869.408	20609
869.539	20579
869.669	20613
869.799	20606
869.929	20621
870.06	20492
870.19	20781
870.32	20880
870.45	20952
870.58	20853
870.71	21074
870.84	21131
870.97	20861
871.1	20746
871.23	21100
871.36	21108
871.489	20982
871.619	21051
871.749	21089
871.879	21199
872.008	21336
872.138	21173
872.267	21017
872.397	21104
872.526	20895
872.656	20944
872.785	21066
872.915	21207
873.044	21260
873.173	21135
873.303	21195
873.432	21176
873.561	21218
873.69	21211
873.819	21173
873.948	21226
874.077	21169
874.206	21055
874.335	21146
874.464	21264
874.593	21397
874.722	21431
874.851	21504
874.979	21367
875.108	21428
875.237	21389
875.365	21272
875.494	21431
875.623	21473
875.751	21306
875.88	21405
876.008	21462
876.136	21606
876.265	21903
876.393	21987
876.521	21804
876.65	21819
876.778	21732
876.906	21793
877.034	21568
877.162	21759
877.29	21690
877.418	21679
877.546	21739
877.674	21720
877.802	21648
877.93	21789
878.058	21755
878.185	21606
878.313	21622
878.441	21770
878.568	21549
878.696	21656
878.824	21778
878.951	21869
879.079	21892
879.206	22131
879.333	21968
879.461	21808
879.588	21762
879.715	21934
879.842	21949
879.97	21835
880.097	21595
880.224	21542
880.351	21633
880.478	21580
880.605	21542
880.732	21530
880.859	21739
880.986	21614
881.112	21523
881.239	21542
881.366	21439
881.493	21230
881.619	21173
881.746	21093
881.872	21146
881.999	21077
882.125	21176
882.252	21146
882.378	21157
882.505	21123
882.631	20941
882.757	20830
882.883	21047
883.01	20804
883.136	20678
883.262	20629
883.388	20697
883.514	20838
883.64	20929
883.766	20746
883.892	20564
884.018	20587
884.143	20853
884.269	20914
884.395	20758
884.52	20533
884.646	20617
884.772	20549
884.897	20461
885.023	20480
885.148	20636
885.274	20739
885.399	20507
885.524	20492
885.65	20476
885.775	20598
885.9	20454
886.025	20514
886.15	20575
886.275	20377
886.4	20522
886.525	20374
886.65	20332
886.775	20415
886.9	20602
887.025	20632
887.149	20450
887.274	20259
887.399	20381
887.523	20298
887.648	20275
887.773	20244
887.897	20332
888.021	20385
888.146	20218
888.27	20393
888.395	20396
888.519	20415
888.643	20286
888.767	20229
888.891	20210
889.015	20153
889.139	20115
889.263	19997
889.387	20263
889.511	20336
889.635	20275
889.759	20107
889.883	20119
890.006	20024
890.13	20054
890.254	19967
890.377	20119
890.501	19852
890.624	19765
890.748	19830
890.871	19860
890.995	19674
891.118	19620
891.241	19727
891.364	19696
891.488	19700
891.611	19670
891.734	19677
891.857	19734
891.98	19616
892.103	19662
892.226	19693
892.349	19601
892.471	19529
892.594	19571
892.717	19643
892.839	19578
892.962	19643
893.085	19605
893.207	19685
893.33	19464
893.452	19510
893.575	19616
893.697	19506
893.819	19696
893.941	19807
894.064	19742
894.186	19476
894.308	19495
894.43	19590
894.552	19677
894.674	19677
894.796	19476
894.918	19502
895.04	19529
895.161	19693
895.283	19499
895.405	19426
895.526	19559
895.648	19597
895.769	19597
895.891	19620
896.012	19708
896.134	19552
896.255	19609
896.376	19601
896.498	19594
896.619	19651
896.74	19506
896.861	19628
896.982	19849
897.103	20005
897.224	19993
897.345	19784
897.466	19742
897.587	19814
897.708	19906
897.828	19852
897.949	19712
898.07	19613
898.19	19750
898.311	19868
898.431	19750
898.552	19731
898.672	19963
898.792	19906
898.913	19795
899.033	19651
899.153	19518
899.273	19510
899.393	19571
899.513	19624
899.633	19525
899.753	19548
899.873	19563
899.993	19521
900.113	19540
900.232	19563
900.352	19472
900.472	19400
900.591	19403
900.711	19270
900.83	19278
900.95	19449
901.069	19422
901.189	19365
901.308	19072
901.427	18928
901.546	18882
901.665	18916
901.784	18859
901.904	18768
902.023	18703
902.141	18502
902.26	18528
902.379	18654
902.498	18479
902.617	18536
902.735	18452
902.854	18323
902.973	18327
903.091	18178
903.21	18114
903.328	18140
903.446	18015
903.565	17973
903.683	18022
903.801	17802
903.919	17942
904.038	17847
904.156	17733
904.274	17737
904.392	17733
904.51	17718
904.627	17710
904.745	17687
904.863	17699
904.981	17486
905.098	17353
905.216	17356
905.334	17452
905.451	17414
905.569	17406
905.686	17376
905.803	17486
905.921	17258
906.038	17265
906.155	17174
906.272	16957
906.389	17025
906.506	16850
906.623	16892
906.74	16957
906.857	16816
906.974	16824
907.091	16987
907.208	17033
907.324	16949
907.441	16774
907.557	16702
907.674	16630
907.79	16531
907.907	16508
908.023	16649
908.139	16596
908.256	16535
908.372	16504
908.488	16527
908.604	16405
908.72	16516
908.836	16447
908.952	16382
909.068	16432
909.184	16398
909.3	16280
909.415	16337
909.531	16428
909.647	16147
909.762	16086
909.878	16086
909.993	16010
910.108	16025
910.224	16002
910.339	16097
910.454	15926
910.57	15941
910.685	15739
910.8	16071
910.915	16032
911.03	15941
911.145	15667
911.259	15724
911.374	15584
911.489	15576
911.604	15492
911.718	15435
911.833	15485
911.947	15378
912.062	15291
912.176	15450
912.291	15329
912.405	15389
912.519	15523
912.633	15542
912.748	15526
912.862	15374
912.976	15249
913.09	15127
913.204	15294
913.318	15264
913.431	15268
913.545	15272
913.659	15317
913.772	15245
913.886	15013
914	15074
914.113	15150
914.226	15165
914.34	15066
914.453	14948
914.566	15043
914.68	14960
914.793	14979
914.906	14750
915.019	14594
915.132	14655
915.245	14689
915.358	14724
915.47	14746
915.583	14602
915.696	14667
915.809	14811
915.921	14887
916.034	14602
916.146	14590
916.259	14629
916.371	14659
916.483	14663
916.595	14552
916.708	14454
916.82	14469
916.932	14465
917.044	14408
917.156	14446
917.268	14317
917.38	14438
917.491	14301
917.603	14248
917.715	14454
917.826	14488
917.938	14191
918.049	14187
918.161	14317
918.272	14465
918.384	14526
918.495	14351
918.606	14103
918.717	14069
918.828	14202
918.939	14126
919.05	14020
919.161	14081
919.272	13917
919.383	14016
919.494	14100
919.604	14343
919.715	14134
919.826	13944
919.936	14088
920.047	14134
920.157	14058
920.267	14305
920.378	14123
920.488	14092
920.598	14210
920.708	14454
920.818	14225
920.928	14180
921.038	14336
921.148	14256
921.258	14130
921.368	13894
921.477	13921
921.587	13780
921.697	13757
921.806	13818
921.916	13780
922.025	13476
922.134	13472
922.244	13400
922.353	13430
922.462	13362
922.571	13362
922.68	13179
922.789	13122
922.898	13110
923.007	13061
923.116	13160
923.224	13129
923.333	13072
923.442	12996
923.55	13038
923.659	13008
923.767	13023
923.876	12905
923.984	12954
924.092	12935
924.201	12977
924.309	12924
924.417	12939
924.525	12916
924.633	12776
924.741	13696
924.849	12639
924.956	12719
925.064	12597
925.172	12509
925.279	12642
925.387	12559
925.494	12593
925.602	12730
925.709	12646
925.816	12456
925.924	12525
926.031	12578
926.138	12403
926.245	12601
926.352	12437
926.459	12532
926.566	12563
926.673	12490
926.779	12330
926.886	12254
926.993	12213
927.099	12114
927.206	12072
927.312	12117
927.419	12270
927.525	12194
927.631	12148
927.737	12011
927.843	12045
927.95	11908
928.056	12003
928.162	11912
928.267	12030
928.373	12623
928.479	12060
928.585	11923
928.69	12015
928.796	11916
928.901	11748
929.007	11703
929.112	11843
929.218	11802
929.323	11764
929.428	11657
929.533	11809
929.638	11615
929.743	11722
929.848	11729
929.953	11688
930.058	11516
930.163	11406
930.267	11337
930.372	11501
930.477	11353
930.581	11577
930.685	11433
930.79	11315
930.894	11398
930.998	11337
931.103	11379
931.207	11075
931.311	10930
931.415	10873
931.519	10782
931.623	10649
