Data from test_V78500241_265.txt Node
Date: Fri Mar 25 15:11:42 CST 2022
User: usil
Spectrometer: V785-0024
Trigger mode: 0
Integration Time (sec): 4.000000E-1
Scans to average: 1
Nonlinearity correction enabled: false
Boxcar width: 0
Storing dark spectrum: false
XAxis mode: Wavelengths
Number of Pixels in Spectrum: 1024
>>>>>Begin Spectral Data<<<<<
801.071	28322
801.214	28371
801.356	28040
801.499	27907
801.641	27816
801.783	27751
801.926	28055
802.068	27994
802.211	27800
802.353	27713
802.496	27603
802.638	27545
802.78	27599
802.923	27519
803.065	27530
803.208	27386
803.35	27576
803.492	27648
803.635	27690
803.777	27492
803.919	27732
804.061	27960
804.204	27736
804.346	27561
804.488	27644
804.63	27523
804.773	27515
804.915	27641
805.057	27679
805.199	27603
805.341	27739
805.483	27797
805.626	27823
805.768	27679
805.91	27819
806.052	27785
806.194	27781
806.336	27884
806.478	27762
806.62	27610
806.762	27835
806.904	28051
807.046	28246
807.188	28230
807.33	28162
807.472	28135
807.614	28192
807.756	28063
807.898	27979
808.04	27949
808.182	27975
808.324	28032
808.465	27907
808.607	28242
808.749	28325
808.891	28405
809.033	28584
809.174	28417
809.316	28386
809.458	28261
809.6	28348
809.741	28535
809.883	28580
810.025	28630
810.166	28531
810.308	28584
810.45	28577
810.591	28497
810.733	28386
810.875	28192
811.016	28230
811.158	28249
811.299	28386
811.441	28371
811.582	28470
811.724	28401
811.865	28265
812.007	28272
812.148	28280
812.29	28379
812.431	28363
812.573	28679
812.714	28691
812.855	28774
812.997	28809
813.138	29132
813.279	28911
813.421	28919
813.562	28748
813.703	28668
813.845	28592
813.986	28295
814.127	28265
814.268	28013
814.41	28059
814.551	27895
814.692	28036
814.833	27987
814.974	28105
815.115	28021
815.256	27751
815.397	27922
815.539	27880
815.68	27724
815.821	27713
815.962	27717
816.103	27800
816.244	27679
816.385	27416
816.526	27462
816.666	27245
816.807	27279
816.948	27283
817.089	27412
817.23	27116
817.371	27169
817.512	27207
817.653	27195
817.793	27161
817.934	27165
818.075	27123
818.216	27131
818.356	27188
818.497	27074
818.638	26937
818.778	26849
818.919	26838
819.06	27017
819.2	27116
819.341	27108
819.481	27131
819.622	27222
819.762	27412
819.903	27458
820.043	27291
820.184	27252
820.324	27241
820.465	27241
820.605	27283
820.746	27222
820.886	27127
821.026	27230
821.167	27146
821.307	27157
821.447	27089
821.588	26975
821.728	26948
821.868	26720
822.008	26644
822.149	26648
822.289	26556
822.429	26267
822.569	26248
822.709	26278
822.849	26130
822.99	26145
823.13	25993
823.27	25909
823.41	25860
823.55	25708
823.69	25917
823.83	25818
823.97	25852
824.11	25734
824.25	25750
824.389	25723
824.529	25693
824.669	25651
824.809	25845
824.949	25738
825.089	25742
825.228	25746
825.368	25540
825.508	25499
825.648	25643
825.787	25518
825.927	25514
826.067	25510
826.206	25521
826.346	25597
826.485	25582
826.625	25525
826.765	25514
826.904	25578
827.044	25171
827.183	25198
827.323	25148
827.462	25206
827.601	25240
827.741	25247
827.88	25400
828.02	25225
828.159	25236
828.298	25194
828.437	25274
828.577	25282
828.716	25392
828.855	25122
828.994	24970
829.134	24981
829.273	24958
829.412	24924
829.551	24951
829.69	24935
829.829	24928
829.968	25034
830.107	24924
830.246	24958
830.385	24726
830.524	24768
830.663	24574
830.802	24719
830.941	24593
831.08	24464
831.219	24547
831.357	24654
831.496	24715
831.635	24456
831.774	24323
831.913	24418
832.051	24311
832.19	24388
832.329	24338
832.467	24285
832.606	24163
832.744	24068
832.883	24163
833.022	24114
833.16	24277
833.299	24110
833.437	24292
833.576	24380
833.714	24083
833.852	24342
833.991	24266
834.129	24357
834.267	24319
834.406	24247
834.544	24171
834.682	24076
834.821	24323
834.959	24391
835.097	24038
835.235	24178
835.373	24292
835.511	24186
835.65	24060
835.788	24129
835.926	23863
836.064	23821
836.202	23843
836.34	24007
836.478	24167
836.615	23996
836.753	24095
836.891	24064
837.029	24015
837.167	23996
837.305	23992
837.443	23958
837.58	23961
837.718	23977
837.856	23878
837.993	23912
838.131	23904
838.269	23718
838.406	23794
838.544	23695
838.681	23379
838.819	23566
838.956	23368
839.094	23334
839.231	23303
839.369	23490
839.506	23676
839.643	23600
839.781	23345
839.918	23216
840.055	23360
840.193	23311
840.33	23189
840.467	23242
840.604	23280
840.742	23455
840.879	23102
841.016	23143
841.153	23010
841.29	23261
841.427	23140
841.564	23102
841.701	23143
841.838	23261
841.975	23227
842.112	23113
842.249	23025
842.385	22972
842.522	23151
842.659	23083
842.796	23140
842.933	23102
843.069	22908
843.206	22759
843.343	23010
843.479	23067
843.616	22987
843.752	22790
843.889	22771
844.025	22843
844.162	22691
844.298	22801
844.435	22774
844.571	22634
844.708	22740
844.844	22843
844.98	22782
845.117	22793
845.253	22546
845.389	22599
845.525	22523
845.661	22599
845.798	22352
845.934	22409
846.07	22333
846.206	22500
846.342	22516
846.478	22485
846.614	22325
846.75	22124
846.886	22204
847.022	22246
847.158	22131
847.294	22192
847.429	22219
847.565	22067
847.701	22443
847.837	21907
847.972	21895
848.108	22086
848.244	22029
848.379	21827
848.515	21736
848.65	21701
848.786	21797
848.921	21694
849.057	21869
849.192	21846
849.328	21789
849.463	21793
849.598	21694
849.734	21622
849.869	21523
850.004	21542
850.14	21663
850.275	21534
850.41	21363
850.545	21534
850.68	21408
850.815	21545
850.95	21549
851.085	21568
851.22	21587
851.355	21428
851.49	21591
851.625	21313
851.76	21439
851.895	21233
852.03	21325
852.165	21397
852.299	21386
852.434	21568
852.569	21481
852.703	21606
852.838	21633
852.973	21568
853.107	21587
853.242	21329
853.376	21310
853.511	21260
853.645	21389
853.78	21473
853.914	21313
854.048	21226
854.183	21272
854.317	21443
854.451	21416
854.585	21367
854.72	21374
854.854	21378
854.988	21245
855.122	21287
855.256	21142
855.39	21283
855.524	21382
855.658	21222
855.792	21332
855.926	21348
856.06	21161
856.194	21393
856.327	21241
856.461	21298
856.595	21195
856.729	21256
856.862	21439
856.996	21359
857.13	21340
857.263	21348
857.397	21321
857.53	21321
857.664	21256
857.797	21306
857.931	21317
858.064	21275
858.197	21458
858.331	21252
858.464	21176
858.597	21127
858.731	21131
858.864	21302
858.997	21195
859.13	21233
859.263	21275
859.396	21382
859.529	21195
859.662	21256
859.795	21245
859.928	21192
860.061	21374
860.194	21511
860.327	21119
860.46	21317
860.592	21466
860.725	21405
860.858	21393
860.99	21287
861.123	21214
861.256	21142
861.388	21226
861.521	21838
861.653	21138
861.786	21055
861.918	20998
862.05	21116
862.183	21241
862.315	21332
862.447	21351
862.58	21207
862.712	20975
862.844	20876
862.976	21100
863.108	21062
863.24	21408
863.372	20937
863.504	20929
863.636	20876
863.768	21077
863.9	21020
864.032	20960
864.164	20925
864.296	20960
864.428	21062
864.559	21066
864.691	20971
864.823	21005
864.954	20902
865.086	20937
865.217	20880
865.349	20853
865.48	20876
865.612	20819
865.743	20979
865.875	20834
866.006	20883
866.137	20902
866.269	20781
866.4	20788
866.531	20773
866.662	20849
866.793	20788
866.924	20826
867.055	20739
867.186	20785
867.317	20731
867.448	20708
867.579	20781
867.71	20678
867.841	20689
867.972	20842
868.103	20750
868.233	20868
868.364	20739
868.495	21005
868.625	21055
868.756	21081
868.886	20948
869.017	20994
869.147	21070
869.278	21138
869.408	20979
869.539	21047
869.669	21058
869.799	21165
869.929	21176
870.06	21089
870.19	21237
870.32	21279
870.45	21435
870.58	21382
870.71	21462
870.84	21561
870.97	21393
871.1	21294
871.23	21698
871.36	21637
871.489	21462
871.619	21576
871.749	21629
871.879	21663
872.008	21701
872.138	21568
872.267	21606
872.397	21534
872.526	21435
872.656	21397
872.785	21329
872.915	21656
873.044	21793
873.173	21736
873.303	21717
873.432	21694
873.561	21808
873.69	21583
873.819	21618
873.948	21701
874.077	21637
874.206	21652
874.335	21656
874.464	21720
874.593	21857
874.722	21861
874.851	21808
874.979	21922
875.108	21892
875.237	21899
875.365	21827
875.494	21812
875.623	21922
875.751	21793
875.88	21888
876.008	21953
876.136	22147
876.265	22234
876.393	22432
876.521	22386
876.65	22348
876.778	22261
876.906	22192
877.034	22310
877.162	22082
877.29	22158
877.418	22318
877.546	22272
877.674	22173
877.802	22185
877.93	22120
878.058	22219
878.185	22112
878.313	22272
878.441	22185
878.568	22139
878.696	22147
878.824	22238
878.951	22382
879.079	22363
879.206	22561
879.333	22440
879.461	22356
879.588	22375
879.715	22360
879.842	22649
879.97	22341
880.097	21979
880.224	21983
880.351	22051
880.478	22059
880.605	21998
880.732	22078
880.859	22280
880.986	22063
881.112	22093
881.239	21812
881.366	21766
881.493	21694
881.619	21819
881.746	21728
881.872	21610
881.999	21622
882.125	21519
882.252	21660
882.378	21595
882.505	21660
882.631	21526
882.757	21382
882.883	21348
883.01	21329
883.136	21317
883.262	21211
883.388	21142
883.514	21420
883.64	21416
883.766	21192
883.892	21154
884.018	21161
884.143	21214
884.269	21382
884.395	21005
884.52	20948
884.646	21051
884.772	20986
884.897	20815
885.023	21020
885.148	20986
885.274	21192
885.399	20994
885.524	21013
885.65	20960
885.775	21005
885.9	20891
886.025	21119
886.15	20948
886.275	20834
886.4	20941
886.525	21070
886.65	20960
886.775	20990
886.9	21131
887.025	21074
887.149	20937
887.274	20857
887.399	20800
887.523	20861
887.648	20686
887.773	20739
887.897	20754
888.021	20830
888.146	20705
888.27	20887
888.395	20868
888.519	20701
888.643	20819
888.767	20773
888.891	20674
889.015	20575
889.139	20571
889.263	20434
889.387	20602
889.511	20678
889.635	20720
889.759	20537
889.883	20419
890.006	20552
890.13	20579
890.254	20412
890.377	20640
890.501	20267
890.624	20138
890.748	20286
890.871	20210
890.995	19944
891.118	20084
891.241	20084
891.364	20069
891.488	20240
891.611	20027
891.734	20157
891.857	20069
891.98	20008
892.103	20233
892.226	20103
892.349	20096
892.471	19833
892.594	20031
892.717	20138
892.839	20035
892.962	20100
893.085	20024
893.207	20001
893.33	19864
893.452	19860
893.575	20054
893.697	19928
893.819	20164
893.941	20206
894.064	20183
894.186	19967
894.308	19932
894.43	20130
894.552	20138
894.674	20172
894.796	19864
894.918	19906
895.04	19906
895.161	20069
895.283	20077
895.405	19986
895.526	20012
895.648	20005
895.769	20077
895.891	20065
896.012	20130
896.134	19936
896.255	20039
896.376	20050
896.498	19959
896.619	20001
896.74	20035
896.861	20134
896.982	20343
897.103	20415
897.224	20275
897.345	20202
897.466	20214
897.587	20298
897.708	20343
897.828	20347
897.949	20130
898.07	20168
898.19	20157
898.311	20119
898.431	20077
898.552	20195
898.672	20259
898.792	20199
898.913	20046
899.033	20084
899.153	19955
899.273	19982
899.393	19963
899.513	19951
899.633	20050
899.753	19963
899.873	19852
899.993	19967
900.113	19795
900.232	19906
900.352	19887
900.472	19708
900.591	19719
900.711	19822
900.83	19750
900.95	19864
901.069	19849
901.189	19647
901.308	19369
901.427	19350
901.546	19331
901.665	19396
901.784	19339
901.904	19148
902.023	19141
902.141	18943
902.26	18871
902.379	18954
902.498	18757
902.617	18833
902.735	18802
902.854	18692
902.973	18745
903.091	18384
903.21	18384
903.328	18521
903.446	18311
903.565	18315
903.683	18270
903.801	18129
903.919	18262
904.038	18152
904.156	18068
904.274	18209
904.392	17939
904.51	18057
904.627	17999
904.745	18159
904.863	18152
904.981	17912
905.098	17775
905.216	17794
905.334	17802
905.451	17707
905.569	17684
905.686	17767
905.803	17634
905.921	17543
906.038	17600
906.155	17581
906.272	17444
906.389	17379
906.506	17204
906.623	17337
906.74	17197
906.857	17216
906.974	17105
907.091	17341
907.208	17402
907.324	17284
907.441	17189
907.557	17010
907.674	16961
907.79	16839
907.907	16999
908.023	16999
908.139	16942
908.256	16904
908.372	16858
908.488	16919
908.604	16664
908.72	16675
908.836	16729
908.952	16607
909.068	16592
909.184	16744
909.3	16649
909.415	16752
909.531	16694
909.647	16432
909.762	16451
909.878	16272
909.993	16341
910.108	16360
910.224	16329
910.339	16337
910.454	16200
910.57	16192
910.685	16086
910.8	16428
910.915	16348
911.03	16173
911.145	16078
911.259	15987
911.374	15994
911.489	15934
911.604	15888
911.718	15667
911.833	15690
911.947	15625
912.062	15469
912.176	15610
912.291	15686
912.405	15545
912.519	15865
912.633	15941
912.748	15690
912.862	15606
912.976	15435
913.09	15378
913.204	15542
913.318	15549
913.431	15637
913.545	15557
913.659	15545
913.772	15416
913.886	15389
914	15294
914.113	15416
914.226	15420
914.34	15466
914.453	15249
914.566	15329
914.68	15214
914.793	15104
914.906	15062
915.019	14998
915.132	14845
915.245	14891
915.358	14952
915.47	14963
915.583	14956
915.696	15032
915.809	14998
915.921	15047
916.034	14845
916.146	14773
916.259	14849
916.371	14902
916.483	14838
916.595	14731
916.708	14754
916.82	14781
916.932	14743
917.044	14617
917.156	14716
917.268	14473
917.38	14594
917.491	14579
917.603	14541
917.715	14689
917.826	14629
917.938	14423
918.049	14408
918.161	14522
918.272	14621
918.384	14598
918.495	14511
918.606	14431
918.717	14267
918.828	14381
918.939	14442
919.05	14313
919.161	14290
919.272	14176
919.383	14229
919.494	14347
919.604	14583
919.715	14347
919.826	14237
919.936	14309
920.047	14343
920.157	14351
920.267	14457
920.378	14362
920.488	14278
920.598	14450
920.708	14689
920.818	14374
920.928	14488
921.038	14621
921.148	14526
921.258	14336
921.368	14214
921.477	14008
921.587	14001
921.697	13967
921.806	14069
921.916	13864
922.025	13753
922.134	13681
922.244	13594
922.353	13742
922.462	13552
922.571	13495
922.68	13358
922.789	13308
922.898	13293
923.007	13247
923.116	13274
923.224	13293
923.333	13247
923.442	13156
923.55	13183
923.659	13175
923.767	13247
923.876	13038
923.984	13202
924.092	13004
924.201	13031
924.309	13069
924.417	13027
924.525	13053
924.633	13031
924.741	13750
924.849	12829
924.956	12905
925.064	12776
925.172	12696
925.279	12749
925.387	12722
925.494	12760
925.602	12806
925.709	12878
925.816	12623
925.924	12741
926.031	12840
926.138	12658
926.245	12821
926.352	12555
926.459	12741
926.566	12665
926.673	12597
926.779	12589
926.886	12429
926.993	12334
927.099	12300
927.206	12266
927.312	12323
927.419	12376
927.525	12327
927.631	12323
927.737	12159
927.843	12270
927.95	12053
928.056	12190
928.162	12152
928.267	12209
928.373	12722
928.479	12144
928.585	12015
928.69	12057
928.796	12140
928.901	12076
929.007	11783
929.112	11980
929.218	12022
929.323	11851
929.428	11980
929.533	12041
929.638	11813
929.743	11794
929.848	11840
929.953	11851
930.058	11726
930.163	11573
930.267	11566
930.372	11718
930.477	11493
930.581	11714
930.685	11619
930.79	11417
930.894	11600
930.998	11490
931.103	11459
931.207	11208
931.311	11151
931.415	11029
931.519	10835
931.623	10782
