Data from test_V78500241_655.txt Node
Date: Fri Mar 25 15:14:25 CST 2022
User: usil
Spectrometer: V785-0024
Trigger mode: 0
Integration Time (sec): 4.000000E-1
Scans to average: 1
Nonlinearity correction enabled: false
Boxcar width: 0
Storing dark spectrum: false
XAxis mode: Wavelengths
Number of Pixels in Spectrum: 1024
>>>>>Begin Spectral Data<<<<<
801.071	27759
801.214	27530
801.356	27329
801.499	27447
801.641	27154
801.783	27146
801.926	27283
802.068	27043
802.211	26982
802.353	26857
802.496	26845
802.638	26785
802.78	26769
802.923	26724
803.065	26762
803.208	26727
803.35	26807
803.492	26940
803.635	26906
803.777	26842
803.919	26849
804.061	27123
804.204	26876
804.346	26895
804.488	26830
804.63	26982
804.773	26895
804.915	26895
805.057	27032
805.199	26899
805.341	27043
805.483	27127
805.626	26902
805.768	26857
805.91	26986
806.052	27157
806.194	27009
806.336	27195
806.478	27195
806.62	27066
806.762	27176
806.904	27321
807.046	27488
807.188	27412
807.33	27488
807.472	27481
807.614	27401
807.756	27427
807.898	27370
808.04	27313
808.182	27469
808.324	27268
808.465	27367
808.607	27538
808.749	27622
808.891	27743
809.033	27914
809.174	27842
809.316	27698
809.458	27808
809.6	27641
809.741	27789
809.883	27827
810.025	28013
810.166	28078
810.308	27960
810.45	28029
810.591	27991
810.733	27850
810.875	27629
811.016	27557
811.158	27675
811.299	27720
811.441	27736
811.582	27816
811.724	27656
811.865	27641
812.007	27709
812.148	27686
812.29	27720
812.431	27732
812.573	27918
812.714	28219
812.855	28284
812.997	28344
813.138	28577
813.279	28451
813.421	28238
813.562	28211
813.703	28036
813.845	27934
813.986	27542
814.127	27367
814.268	27485
814.41	27424
814.551	27329
814.692	27511
814.833	27374
814.974	27435
815.115	27526
815.256	27264
815.397	27287
815.539	27260
815.68	27226
815.821	27279
815.962	27127
816.103	27127
816.244	27055
816.385	27104
816.526	26971
816.666	26777
816.807	26659
816.948	26804
817.089	26750
817.23	26781
817.371	26845
817.512	26670
817.653	26537
817.793	26708
817.934	26773
818.075	26693
818.216	26579
818.356	26716
818.497	26609
818.638	26507
818.778	26355
818.919	26427
819.06	26522
819.2	26670
819.341	26545
819.481	26724
819.622	26785
819.762	27032
819.903	26895
820.043	26815
820.184	26868
820.324	26861
820.465	26872
820.605	26834
820.746	26746
820.886	26739
821.026	26765
821.167	26682
821.307	26830
821.447	26667
821.588	26495
821.728	26606
821.868	26229
822.008	25978
822.149	26119
822.289	26130
822.429	25822
822.569	25811
822.709	25803
822.849	25620
822.99	25552
823.13	25635
823.27	25495
823.41	25537
823.55	25346
823.69	25472
823.83	25419
823.97	25453
824.11	25308
824.25	25232
824.389	25308
824.529	25506
824.669	25266
824.809	25358
824.949	25384
825.089	25548
825.228	25232
825.368	25187
825.508	25240
825.648	25171
825.787	25232
825.927	25202
826.067	25175
826.206	25072
826.346	25179
826.485	25324
826.625	25168
826.765	25365
826.904	25171
827.044	24863
827.183	24890
827.323	24772
827.462	24954
827.601	24817
827.741	24776
827.88	24871
828.02	24757
828.159	24776
828.298	24783
828.437	24935
828.577	24684
828.716	24901
828.855	24677
828.994	24551
829.134	24540
829.273	24585
829.412	24502
829.551	24486
829.69	24623
829.829	24570
829.968	24620
830.107	24684
830.246	24593
830.385	24509
830.524	24418
830.663	24475
830.802	24308
830.941	24224
831.08	24258
831.219	24220
831.357	24270
831.496	24456
831.635	24247
831.774	24026
831.913	24064
832.051	24053
832.19	23961
832.329	24045
832.467	24026
832.606	23809
832.744	23866
832.883	23821
833.022	23908
833.16	23984
833.299	23923
833.437	24026
833.576	23828
833.714	23863
833.852	24034
833.991	24072
834.129	24041
834.267	23847
834.406	23904
834.544	24038
834.682	23969
834.821	23939
834.959	24038
835.097	23958
835.235	23931
835.373	23939
835.511	23821
835.65	23783
835.788	23878
835.926	23748
836.064	23592
836.202	23497
836.34	23699
836.478	23863
836.615	23783
836.753	23874
836.891	23847
837.029	23802
837.167	23710
837.305	23733
837.443	23726
837.58	23619
837.718	23661
837.856	23726
837.993	23619
838.131	23646
838.269	23379
838.406	23589
838.544	23512
838.681	23303
838.819	23197
838.956	23151
839.094	23022
839.231	23128
839.369	23284
839.506	23433
839.643	23376
839.781	23117
839.918	23052
840.055	23242
840.193	23128
840.33	23128
840.467	22976
840.604	23075
840.742	23360
840.879	22854
841.016	22995
841.153	22930
841.29	23075
841.427	23143
841.564	22946
841.701	23090
841.838	22885
841.975	22942
842.112	22892
842.249	22877
842.385	22850
842.522	22927
842.659	22889
842.796	22748
842.933	22786
843.069	22801
843.206	22831
843.343	22881
843.479	22759
843.616	22759
843.752	22630
843.889	22538
844.025	22710
844.162	22584
844.298	22645
844.435	22542
844.571	22500
844.708	22580
844.844	22816
844.98	22592
845.117	22622
845.253	22577
845.389	22344
845.525	22440
845.661	22474
845.798	22234
845.934	22424
846.07	22303
846.206	22287
846.342	22398
846.478	22360
846.614	22173
846.75	21884
846.886	21960
847.022	22112
847.158	22032
847.294	22063
847.429	22139
847.565	21991
847.701	22215
847.837	21800
847.972	21679
848.108	21941
848.244	21869
848.379	21610
848.515	21709
848.65	21564
848.786	21770
848.921	21724
849.057	21755
849.192	21770
849.328	21812
849.463	21713
849.598	21526
849.734	21591
849.869	21454
850.004	21454
850.14	21393
850.275	21389
850.41	21393
850.545	21260
850.68	21268
850.815	21401
850.95	21336
851.085	21568
851.22	21523
851.355	21416
851.49	21405
851.625	21264
851.76	21355
851.895	21325
852.03	21256
852.165	21351
852.299	21359
852.434	21424
852.569	21519
852.703	21393
852.838	21469
852.973	21530
853.107	21523
853.242	21401
853.376	21317
853.511	21020
853.645	21199
853.78	21325
853.914	21226
854.048	21161
854.183	21146
854.317	21226
854.451	21416
854.585	21226
854.72	21146
854.854	21306
854.988	21135
855.122	21268
855.256	21119
855.39	21195
855.524	21260
855.658	21268
855.792	21264
855.926	21226
856.06	21272
856.194	21268
856.327	21203
856.461	21199
856.595	21173
856.729	21169
856.862	21321
856.996	21260
857.13	21351
857.263	21283
857.397	21355
857.53	21176
857.664	21230
857.797	21279
857.931	21161
858.064	21165
858.197	21294
858.331	21226
858.464	21272
858.597	21112
858.731	21275
858.864	21188
858.997	21146
859.13	21283
859.263	21199
859.396	21275
859.529	21146
859.662	21169
859.795	21199
859.928	21150
860.061	21424
860.194	21374
860.327	21401
860.46	21142
860.592	21348
860.725	21313
860.858	21241
860.99	21222
861.123	21119
861.256	21207
861.388	21226
861.521	21949
861.653	21100
861.786	20876
861.918	21055
862.05	20902
862.183	21154
862.315	21100
862.447	21256
862.58	21161
862.712	20872
862.844	20781
862.976	21047
863.108	20960
863.24	21507
863.372	20857
863.504	20960
863.636	20960
863.768	20948
863.9	20941
864.032	20891
864.164	20830
864.296	20975
864.428	21119
864.559	20998
864.691	20941
864.823	20948
864.954	21039
865.086	20887
865.217	20788
865.349	20773
865.48	20891
865.612	20735
865.743	20982
865.875	20899
866.006	20804
866.137	20796
866.269	20880
866.4	20765
866.531	20758
866.662	20655
866.793	20644
866.924	20785
867.055	20705
867.186	20777
867.317	20796
867.448	20644
867.579	20735
867.71	20663
867.841	20640
867.972	20788
868.103	20689
868.233	20758
868.364	20686
868.495	20758
868.625	21062
868.756	21062
868.886	20872
869.017	20933
869.147	20998
869.278	21093
869.408	21039
869.539	21028
869.669	21051
869.799	21085
869.929	21100
870.06	21116
870.19	21325
870.32	21138
870.45	21378
870.58	21344
870.71	21462
870.84	21374
870.97	21374
871.1	21382
871.23	21587
871.36	21526
871.489	21439
871.619	21454
871.749	21530
871.879	21599
872.008	21720
872.138	21656
872.267	21557
872.397	21439
872.526	21355
872.656	21310
872.785	21454
872.915	21591
873.044	21587
873.173	21652
873.303	21568
873.432	21660
873.561	21701
873.69	21583
873.819	21622
873.948	21675
874.077	21534
874.206	21599
874.335	21545
874.464	21762
874.593	21953
874.722	21800
874.851	21941
874.979	21846
875.108	21911
875.237	21762
875.365	21739
875.494	21785
875.623	21964
875.751	21770
875.88	21880
876.008	21903
876.136	21983
876.265	22078
876.393	22303
876.521	22246
876.65	22226
876.778	22215
876.906	22173
877.034	22082
877.162	22246
877.29	22162
877.418	22230
877.546	22181
877.674	22116
877.802	22299
877.93	22204
878.058	22139
878.185	22021
878.313	22166
878.441	22131
878.568	21945
878.696	22131
878.824	22162
878.951	22207
879.079	22265
879.206	22466
879.333	22348
879.461	22086
879.588	22306
879.715	22421
879.842	22417
879.97	22093
880.097	22090
880.224	21991
880.351	22002
880.478	22025
880.605	21968
880.732	22078
880.859	22196
880.986	22048
881.112	22120
881.239	21831
881.366	21823
881.493	21671
881.619	21656
881.746	21462
881.872	21481
881.999	21504
882.125	21599
882.252	21534
882.378	21553
882.505	21648
882.631	21481
882.757	21298
882.883	21393
883.01	21378
883.136	21214
883.262	21195
883.388	21131
883.514	21184
883.64	21161
883.766	21039
883.892	21108
884.018	21077
884.143	21256
884.269	21310
884.395	21089
884.52	20891
884.646	21081
884.772	20952
884.897	20849
885.023	21043
885.148	20986
885.274	21055
885.399	20933
885.524	20921
885.65	20918
885.775	20857
885.9	20944
886.025	21020
886.15	20891
886.275	20971
886.4	20777
886.525	20876
886.65	20781
886.775	20819
886.9	21070
887.025	21154
887.149	20998
887.274	20769
887.399	20693
887.523	20617
887.648	20609
887.773	20514
887.897	20834
888.021	20754
888.146	20587
888.27	20743
888.395	20750
888.519	20594
888.643	20750
888.767	20724
888.891	20644
889.015	20530
889.139	20533
889.263	20465
889.387	20693
889.511	20625
889.635	20640
889.759	20533
889.883	20556
890.006	20503
890.13	20461
890.254	20305
890.377	20389
890.501	20271
890.624	20054
890.748	20286
890.871	20221
890.995	20069
891.118	20107
891.241	20020
891.364	20027
891.488	20164
891.611	20180
891.734	20084
891.857	20119
891.98	20069
892.103	20122
892.226	20100
892.349	20012
892.471	19746
892.594	20115
892.717	20012
892.839	20024
892.962	19932
893.085	20050
893.207	19982
893.33	19852
893.452	19906
893.575	19963
893.697	19959
893.819	20100
893.941	20164
894.064	20153
894.186	19898
894.308	19947
894.43	20024
894.552	20081
894.674	20008
894.796	19826
894.918	19986
895.04	19890
895.161	20001
895.283	19830
895.405	19921
895.526	19970
895.648	19982
895.769	19898
895.891	20031
896.012	20161
896.134	20005
896.255	20016
896.376	20054
896.498	19925
896.619	19951
896.74	20027
896.861	20016
896.982	20252
897.103	20415
897.224	20267
897.345	20119
897.466	20103
897.587	20210
897.708	20336
897.828	20172
897.949	20054
898.07	20069
898.19	20092
898.311	20214
898.431	20252
898.552	20161
898.672	20317
898.792	20199
898.913	20309
899.033	20031
899.153	19982
899.273	19833
899.393	19868
899.513	19978
899.633	19879
899.753	20012
899.873	19837
899.993	19970
900.113	19852
900.232	19860
900.352	19921
900.472	19704
900.591	19734
900.711	19784
900.83	19715
900.95	19814
901.069	19765
901.189	19544
901.308	19358
901.427	19320
901.546	19358
901.665	19373
901.784	19316
901.904	19217
902.023	19065
902.141	18966
902.26	18909
902.379	18852
902.498	18901
902.617	18734
902.735	18844
902.854	18745
902.973	18719
903.091	18559
903.21	18448
903.328	18486
903.446	18460
903.565	18292
903.683	18289
903.801	18201
903.919	18311
904.038	18281
904.156	18007
904.274	18243
904.392	18125
904.51	18083
904.627	18034
904.745	18125
904.863	18205
904.981	17901
905.098	17745
905.216	17745
905.334	17745
905.451	17767
905.569	17699
905.686	17741
905.803	17661
905.921	17493
906.038	17566
906.155	17505
906.272	17459
906.389	17524
906.506	17227
906.623	17261
906.74	17261
906.857	17140
906.974	17258
907.091	17398
907.208	17383
907.324	17185
907.441	17181
907.557	16961
907.674	17045
907.79	16896
907.907	16987
908.023	16946
908.139	16946
908.256	17006
908.372	16904
908.488	16869
908.604	16801
908.72	16645
908.836	16725
908.952	16645
909.068	16771
909.184	16744
909.3	16702
909.415	16725
909.531	16664
909.647	16421
909.762	16531
909.878	16363
909.993	16417
910.108	16478
910.224	16390
910.339	16360
910.454	16230
910.57	16299
910.685	16162
910.8	16409
910.915	16352
911.03	16169
911.145	16135
911.259	15926
911.374	15960
911.489	15869
911.604	15869
911.718	15873
911.833	15850
911.947	15587
912.062	15500
912.176	15701
912.291	15717
912.405	15747
912.519	15869
912.633	15934
912.748	15709
912.862	15671
912.976	15595
913.09	15500
913.204	15458
913.318	15637
913.431	15686
913.545	15629
913.659	15682
913.772	15450
913.886	15424
914	15340
914.113	15507
914.226	15507
914.34	15382
914.453	15313
914.566	15458
914.68	15294
914.793	15222
914.906	15154
915.019	15013
915.132	14986
915.245	15051
915.358	15089
915.47	15032
915.583	14902
915.696	14960
915.809	15077
915.921	15119
916.034	14944
916.146	14952
916.259	14792
916.371	14952
916.483	14944
916.595	14815
916.708	14998
916.82	14727
916.932	14724
917.044	14750
917.156	14720
917.268	14746
917.38	14731
917.491	14629
917.603	14693
917.715	14735
917.826	14716
917.938	14659
918.049	14552
918.161	14613
918.272	14644
918.384	14834
918.495	14636
918.606	14434
918.717	14465
918.828	14400
918.939	14476
919.05	14320
919.161	14427
919.272	14206
919.383	14225
919.494	14503
919.604	14587
919.715	14370
919.826	14298
919.936	14377
920.047	14377
920.157	14461
920.267	14461
920.378	14461
920.488	14309
920.598	14579
920.708	14617
920.818	14423
920.928	14484
921.038	14644
921.148	14613
921.258	14278
921.368	14237
921.477	14050
921.587	14111
921.697	14001
921.806	14145
921.916	13963
922.025	13746
922.134	13734
922.244	13765
922.353	13772
922.462	13613
922.571	13590
922.68	13400
922.789	13491
922.898	13400
923.007	13335
923.116	13419
923.224	13346
923.333	13365
923.442	13282
923.55	13160
923.659	13301
923.767	13289
923.876	13194
923.984	13255
924.092	13050
924.201	13122
924.309	13152
924.417	13072
924.525	13053
924.633	13091
924.741	13871
924.849	12935
924.956	13072
925.064	12878
925.172	12852
925.279	12848
925.387	12882
925.494	12821
925.602	12954
925.709	12878
925.816	12642
925.924	12779
926.031	12909
926.138	12711
926.245	12825
926.352	12658
926.459	12840
926.566	12878
926.673	12734
926.779	12627
926.886	12597
926.993	12460
927.099	12384
927.206	12395
927.312	12376
927.419	12448
927.525	12471
927.631	12475
927.737	12285
927.843	12232
927.95	12091
928.056	12201
928.162	12163
928.267	12334
928.373	12871
928.479	12281
928.585	12091
928.69	12171
928.796	12136
928.901	12186
929.007	11885
929.112	12057
929.218	12133
929.323	12015
929.428	11927
929.533	12110
929.638	11832
929.743	11931
929.848	11927
929.953	11942
930.058	11805
930.163	11615
930.267	11722
930.372	11809
930.477	11634
930.581	11851
930.685	11741
930.79	11634
930.894	11490
930.998	11543
931.103	11505
931.207	11356
931.311	11265
931.415	11185
931.519	10957
931.623	10869
