Data from test_V78500241_2907.txt Node
Date: Fri Mar 25 15:30:06 CST 2022
User: usil
Spectrometer: V785-0024
Trigger mode: 0
Integration Time (sec): 4.000000E-1
Scans to average: 1
Nonlinearity correction enabled: false
Boxcar width: 0
Storing dark spectrum: false
XAxis mode: Wavelengths
Number of Pixels in Spectrum: 1024
>>>>>Begin Spectral Data<<<<<
801.071	27192
801.214	27245
801.356	26883
801.499	26910
801.641	26868
801.783	26667
801.926	26754
802.068	26868
802.211	26648
802.353	26564
802.496	26492
802.638	26396
802.78	26313
802.923	26286
803.065	26355
803.208	26271
803.35	26351
803.492	26419
803.635	26552
803.777	26434
803.919	26549
804.061	26853
804.204	26606
804.346	26412
804.488	26381
804.63	26537
804.773	26545
804.915	26663
805.057	26617
805.199	26526
805.341	26598
805.483	26663
805.626	26667
805.768	26450
805.91	26693
806.052	26602
806.194	26423
806.336	26781
806.478	26640
806.62	26499
806.762	26788
806.904	26849
807.046	27024
807.188	27146
807.33	27005
807.472	27142
807.614	26986
807.756	26956
807.898	26876
808.04	26861
808.182	26883
808.324	27036
808.465	26979
808.607	27047
808.749	27283
808.891	27397
809.033	27291
809.174	27329
809.316	27241
809.458	27108
809.6	27165
809.741	27249
809.883	27252
810.025	27561
810.166	27466
810.308	27644
810.45	27427
810.591	27435
810.733	27245
810.875	27237
811.016	27165
811.158	27313
811.299	27401
811.441	27466
811.582	27405
811.724	27161
811.865	27161
812.007	27119
812.148	27127
812.29	27283
812.431	27408
812.573	27519
812.714	27641
812.855	27686
812.997	27778
813.138	28074
813.279	27850
813.421	27724
813.562	27747
813.703	27523
813.845	27477
813.986	27237
814.127	27043
814.268	26864
814.41	26887
814.551	26800
814.692	26872
814.833	26838
814.974	26834
815.115	26895
815.256	26731
815.397	26724
815.539	26781
815.68	26674
815.821	26648
815.962	26689
816.103	26712
816.244	26522
816.385	26469
816.526	26503
816.666	26336
816.807	26164
816.948	26187
817.089	26168
817.23	26206
817.371	26275
817.512	26126
817.653	26225
817.793	26039
817.934	26126
818.075	26183
818.216	26096
818.356	26092
818.497	26012
818.638	25921
818.778	25928
818.919	25982
819.06	26043
819.2	25936
819.341	26069
819.481	26020
819.622	26347
819.762	26514
819.903	26381
820.043	26275
820.184	26301
820.324	26180
820.465	26286
820.605	26282
820.746	26286
820.886	26084
821.026	26267
821.167	26157
821.307	26214
821.447	26039
821.588	26031
821.728	26043
821.868	25780
822.008	25719
822.149	25620
822.289	25495
822.429	25339
822.569	25377
822.709	25472
822.849	25069
822.99	25076
823.13	24981
823.27	25088
823.41	24795
823.55	24916
823.69	24920
823.83	24795
823.97	24863
824.11	24760
824.25	24707
824.389	24791
824.529	24817
824.669	24814
824.809	24848
824.949	24707
825.089	24909
825.228	24810
825.368	24517
825.508	24620
825.648	24578
825.787	24570
825.927	24490
826.067	24502
826.206	24570
826.346	24646
826.485	24722
826.625	24578
826.765	24719
826.904	24601
827.044	24418
827.183	24384
827.323	24338
827.462	24391
827.601	24330
827.741	24239
827.88	24144
828.02	24258
828.159	24311
828.298	24254
828.437	24319
828.577	24205
828.716	24346
828.855	24174
828.994	23984
829.134	23958
829.273	23996
829.412	23977
829.551	23859
829.69	24053
829.829	23897
829.968	24205
830.107	24095
830.246	24049
830.385	24026
830.524	23931
830.663	23851
830.802	23786
830.941	23535
831.08	23562
831.219	23668
831.357	23703
831.496	23897
831.635	23646
831.774	23592
831.913	23444
832.051	23433
832.19	23322
832.329	23364
832.467	23299
832.606	23094
832.744	23132
832.883	23269
833.022	23197
833.16	23200
833.299	23349
833.437	23326
833.576	23395
833.714	23356
833.852	23395
833.991	23334
834.129	23353
834.267	23315
834.406	23326
834.544	23345
834.682	23284
834.821	23288
834.959	23455
835.097	23208
835.235	23387
835.373	23246
835.511	23307
835.65	23170
835.788	23147
835.926	22995
836.064	22927
836.202	23010
836.34	23143
836.478	23113
836.615	23083
836.753	23083
836.891	23185
837.029	23128
837.167	23014
837.305	23102
837.443	23010
837.58	22995
837.718	23041
837.856	22965
837.993	23029
838.131	23041
838.269	22831
838.406	22812
838.544	22835
838.681	22626
838.819	22550
838.956	22470
839.094	22481
839.231	22542
839.369	22782
839.506	22999
839.643	22725
839.781	22348
839.918	22371
840.055	22489
840.193	22356
840.33	22299
840.467	22398
840.604	22500
840.742	22645
840.879	22265
841.016	22284
841.153	22268
841.29	22481
841.427	22409
841.564	22478
841.701	22500
841.838	22226
841.975	22147
842.112	22352
842.249	22116
842.385	22219
842.522	22428
842.659	22230
842.796	22185
842.933	22204
843.069	22059
843.206	22211
843.343	22166
843.479	22158
843.616	22128
843.752	21884
843.889	21956
844.025	22021
844.162	21934
844.298	22051
844.435	21861
844.571	21880
844.708	21949
844.844	22044
844.98	22044
845.117	22048
845.253	22036
845.389	21857
845.525	21873
845.661	21831
845.798	21736
845.934	21747
846.07	21610
846.206	21747
846.342	21857
846.478	21739
846.614	21450
846.75	21237
846.886	21386
847.022	21481
847.158	21428
847.294	21469
847.429	21408
847.565	21397
847.701	21641
847.837	21104
847.972	21233
848.108	21233
848.244	21199
848.379	21039
848.515	20864
848.65	20918
848.786	20933
848.921	21077
849.057	21116
849.192	21138
849.328	21066
849.463	21085
849.598	20956
849.734	20800
849.869	20872
850.004	20705
850.14	20861
850.275	20739
850.41	20644
850.545	20720
850.68	20651
850.815	20815
850.95	20629
851.085	20781
851.22	20788
851.355	20781
851.49	20724
851.625	20735
851.76	20735
851.895	20594
852.03	20667
852.165	20754
852.299	20712
852.434	20864
852.569	20842
852.703	20762
852.838	20876
852.973	20883
853.107	20876
853.242	20587
853.376	20545
853.511	20450
853.645	20533
853.78	20644
853.914	20689
854.048	20568
854.183	20556
854.317	20621
854.451	20693
854.585	20598
854.72	20450
854.854	20735
854.988	20495
855.122	20488
855.256	20431
855.39	20507
855.524	20659
855.658	20773
855.792	20590
855.926	20469
856.06	20564
856.194	20724
856.327	20522
856.461	20533
856.595	20640
856.729	20541
856.862	20735
856.996	20686
857.13	20552
857.263	20727
857.397	20762
857.53	20579
857.664	20575
857.797	20667
857.931	20731
858.064	20842
858.197	20735
858.331	20518
858.464	20625
858.597	20415
858.731	20587
858.864	20609
858.997	20602
859.13	20552
859.263	20545
859.396	20674
859.529	20617
859.662	20511
859.795	20613
859.928	20629
860.061	20724
860.194	20727
860.327	20579
860.46	20457
860.592	20754
860.725	20727
860.858	20670
860.99	20484
861.123	20545
861.256	20545
861.388	20594
861.521	21291
861.653	20484
861.786	20366
861.918	20476
862.05	20552
862.183	20507
862.315	20549
862.447	20625
862.58	20408
862.712	20351
862.844	20240
862.976	20450
863.108	20400
863.24	20834
863.372	20191
863.504	20199
863.636	20240
863.768	20313
863.9	20332
864.032	20233
864.164	20202
864.296	20275
864.428	20438
864.559	20362
864.691	20408
864.823	20336
864.954	20351
865.086	20339
865.217	20286
865.349	20119
865.48	20115
865.612	20278
865.743	20278
865.875	20202
866.006	20218
866.137	20183
866.269	20199
866.4	20233
866.531	20149
866.662	20088
866.793	20119
866.924	20122
867.055	20180
867.186	20172
867.317	20081
867.448	20031
867.579	20103
867.71	20065
867.841	20046
867.972	20092
868.103	20218
868.233	20111
868.364	20191
868.495	20233
868.625	20324
868.756	20415
868.886	20332
869.017	20461
869.147	20438
869.278	20499
869.408	20442
869.539	20358
869.669	20511
869.799	20404
869.929	20522
870.06	20556
870.19	20815
870.32	20636
870.45	20617
870.58	20788
870.71	20899
870.84	20849
870.97	20819
871.1	20845
871.23	21001
871.36	20998
871.489	20891
871.619	20944
871.749	21005
871.879	21005
872.008	21085
872.138	21043
872.267	21093
872.397	20941
872.526	20883
872.656	20910
872.785	20887
872.915	21055
873.044	21024
873.173	20887
873.303	21017
873.432	21169
873.561	21188
873.69	21051
873.819	21020
873.948	21112
874.077	21055
874.206	20990
874.335	21017
874.464	21074
874.593	21245
874.722	21154
874.851	21279
874.979	21325
875.108	21317
875.237	21203
875.365	21135
875.494	21165
875.623	21389
875.751	21192
875.88	21256
876.008	21416
876.136	21363
876.265	21671
876.393	21922
876.521	21694
876.65	21694
876.778	21606
876.906	21618
877.034	21591
877.162	21576
877.29	21428
877.418	21686
877.546	21644
877.674	21682
877.802	21625
877.93	21530
878.058	21534
878.185	21492
878.313	21622
878.441	21583
878.568	21408
878.696	21690
878.824	21606
878.951	21564
879.079	21793
879.206	21816
879.333	21701
879.461	21610
879.588	21759
879.715	21770
879.842	21918
879.97	21652
880.097	21568
880.224	21420
880.351	21473
880.478	21317
880.605	21507
880.732	21428
880.859	21625
880.986	21504
881.112	21466
881.239	21222
881.366	21043
881.493	21173
881.619	21135
881.746	21112
881.872	20933
881.999	20982
882.125	20975
882.252	21093
882.378	20910
882.505	21123
882.631	20804
882.757	20765
882.883	20781
883.01	20701
883.136	20670
883.262	20514
883.388	20526
883.514	20754
883.64	20739
883.766	20678
883.892	20438
884.018	20473
884.143	20697
884.269	20708
884.395	20404
884.52	20377
884.646	20347
884.772	20366
884.897	20275
885.023	20404
885.148	20484
885.274	20545
885.399	20522
885.524	20339
885.65	20328
885.775	20400
885.9	20415
886.025	20408
886.15	20385
886.275	20358
886.4	20214
886.525	20267
886.65	20377
886.775	20298
886.9	20465
887.025	20476
887.149	20370
887.274	20069
887.399	20145
887.523	20103
887.648	20043
887.773	20024
887.897	20138
888.021	20267
888.146	20206
888.27	20267
888.395	20233
888.519	20248
888.643	20218
888.767	20069
888.891	19986
889.015	20073
889.139	20107
889.263	19909
889.387	20088
889.511	20153
889.635	20016
889.759	19887
889.883	19860
890.006	19951
890.13	19940
890.254	19830
890.377	19898
890.501	19750
890.624	19651
890.748	19776
890.871	19715
890.995	19575
891.118	19510
891.241	19506
891.364	19502
891.488	19647
891.611	19632
891.734	19582
891.857	19552
891.98	19563
892.103	19590
892.226	19480
892.349	19411
892.471	19270
892.594	19407
892.717	19544
892.839	19365
892.962	19495
893.085	19483
893.207	19308
893.33	19282
893.452	19369
893.575	19403
893.697	19449
893.819	19548
893.941	19609
894.064	19666
894.186	19422
894.308	19282
894.43	19563
894.552	19655
894.674	19544
894.796	19331
894.918	19441
895.04	19396
895.161	19472
895.283	19449
895.405	19362
895.526	19411
895.648	19369
895.769	19430
895.891	19495
896.012	19521
896.134	19483
896.255	19457
896.376	19396
896.498	19510
896.619	19441
896.74	19518
896.861	19468
896.982	19814
897.103	20035
897.224	19818
897.345	19624
897.466	19601
897.587	19757
897.708	19936
897.828	19594
897.949	19609
898.07	19491
898.19	19533
898.311	19913
898.431	19594
898.552	19750
898.672	19731
898.792	19696
898.913	19799
899.033	19658
899.153	19514
899.273	19434
899.393	19472
899.513	19491
899.633	19438
899.753	19464
899.873	19335
899.993	19510
900.113	19377
900.232	19525
900.352	19346
900.472	19335
900.591	19236
900.711	19266
900.83	19190
900.95	19343
901.069	19384
901.189	19168
901.308	18958
901.427	18844
901.546	18882
901.665	18738
901.784	18890
901.904	18589
902.023	18544
902.141	18410
902.26	18376
902.379	18563
902.498	18369
902.617	18399
902.735	18327
902.854	18315
902.973	18262
903.091	18060
903.21	18117
903.328	18072
903.446	17980
903.565	17866
903.683	17920
903.801	17676
903.919	17794
904.038	17870
904.156	17745
904.274	17733
904.392	17585
904.51	17501
904.627	17581
904.745	17718
904.863	17756
904.981	17372
905.098	17265
905.216	17143
905.334	17383
905.451	17280
905.569	17307
905.686	17368
905.803	17307
905.921	17166
906.038	17258
906.155	17159
906.272	17006
906.389	16965
906.506	16896
906.623	16866
906.74	16850
906.857	16767
906.974	16793
907.091	16984
907.208	16904
907.324	16889
907.441	16771
907.557	16470
907.674	16561
907.79	16455
907.907	16546
908.023	16611
908.139	16584
908.256	16580
908.372	16451
908.488	16447
908.604	16295
908.72	16192
908.836	16341
908.952	16124
909.068	16318
909.184	16341
909.3	16348
909.415	16337
909.531	16363
909.647	16093
909.762	16017
909.878	16017
909.993	15975
910.108	15991
910.224	15983
910.339	15907
910.454	15899
910.57	15842
910.685	15812
910.8	15975
910.915	15873
911.03	15831
911.145	15595
911.259	15561
911.374	15614
911.489	15530
911.604	15412
911.718	15241
911.833	15291
911.947	15279
912.062	15192
912.176	15348
912.291	15397
912.405	15401
912.519	15515
912.633	15542
912.748	15344
912.862	15348
912.976	15237
913.09	15055
913.204	15131
913.318	15233
913.431	15272
913.545	15264
913.659	15275
913.772	15089
913.886	14967
914	14937
914.113	14921
914.226	15119
914.34	14990
914.453	14819
914.566	15013
914.68	14880
914.793	14815
914.906	14670
915.019	14602
915.132	14495
915.245	14587
915.358	14564
915.47	14667
915.583	14640
915.696	14552
915.809	14720
915.921	14765
916.034	14438
916.146	14522
916.259	14587
916.371	14476
916.483	14564
916.595	14434
916.708	14419
916.82	14419
916.932	14442
917.044	14488
917.156	14385
917.268	14229
917.38	14210
917.491	14240
917.603	14244
917.715	14259
917.826	14377
917.938	14301
918.049	14081
918.161	14142
918.272	14252
918.384	14374
918.495	14248
918.606	14103
918.717	13959
918.828	14039
918.939	14145
919.05	13993
919.161	13967
919.272	13807
919.383	13928
919.494	14054
919.604	14206
919.715	13940
919.826	13963
919.936	14065
920.047	14027
920.157	14043
920.267	14138
920.378	14020
920.488	13879
920.598	14084
920.708	14278
920.818	14153
920.928	14183
921.038	14218
921.148	14290
921.258	13970
921.368	13894
921.477	13807
921.587	13742
921.697	13636
921.806	13883
921.916	13639
922.025	13540
922.134	13369
922.244	13407
922.353	13476
922.462	13316
922.571	13194
922.68	13099
922.789	13114
922.898	13027
923.007	13053
923.116	13072
923.224	13046
923.333	13088
923.442	12905
923.55	12837
923.659	12882
923.767	12894
923.876	12993
923.984	12913
924.092	12852
924.201	12837
924.309	12806
924.417	12825
924.525	12722
924.633	12829
924.741	13658
924.849	12521
924.956	12639
925.064	12475
925.172	12433
925.279	12517
925.387	12502
925.494	12582
925.602	12639
925.709	12525
925.816	12391
925.924	12475
926.031	12585
926.138	12441
926.245	12445
926.352	12403
926.459	12422
926.566	12521
926.673	12410
926.779	12281
926.886	12251
926.993	12106
927.099	12079
927.206	12060
927.312	12003
927.419	12083
927.525	12038
927.631	12106
927.737	11961
927.843	11958
927.95	11821
928.056	11866
928.162	11977
928.267	12011
928.373	12608
928.479	11954
928.585	11718
928.69	11923
928.796	11916
928.901	11794
929.007	11623
929.112	11813
929.218	11752
929.323	11619
929.428	11649
929.533	11855
929.638	11634
929.743	11600
929.848	11649
929.953	11577
930.058	11482
930.163	11353
930.267	11364
930.372	11421
930.477	11326
930.581	11516
930.685	11376
930.79	11166
930.894	11330
930.998	11254
931.103	11334
931.207	10991
931.311	10942
931.415	10797
931.519	10607
931.623	10523
