Data from test_V78500241_3593.txt Node
Date: Fri Mar 25 15:34:52 CST 2022
User: usil
Spectrometer: V785-0024
Trigger mode: 0
Integration Time (sec): 4.000000E-1
Scans to average: 1
Nonlinearity correction enabled: false
Boxcar width: 0
Storing dark spectrum: false
XAxis mode: Wavelengths
Number of Pixels in Spectrum: 1024
>>>>>Begin Spectral Data<<<<<
801.071	27332
801.214	27245
801.356	27070
801.499	27108
801.641	26773
801.783	26925
801.926	27005
802.068	26918
802.211	26861
802.353	26838
802.496	26571
802.638	26602
802.78	26564
802.923	26377
803.065	26328
803.208	26358
803.35	26461
803.492	26503
803.635	26674
803.777	26419
803.919	26594
804.061	26967
804.204	26724
804.346	26488
804.488	26613
804.63	26636
804.773	26564
804.915	26636
805.057	26754
805.199	26613
805.341	26746
805.483	26777
805.626	26750
805.768	26606
805.91	26769
806.052	26743
806.194	26735
806.336	26921
806.478	26785
806.62	26743
806.762	26906
806.904	27081
807.046	27214
807.188	27230
807.33	27291
807.472	27165
807.614	27135
807.756	27249
807.898	26826
808.04	26979
808.182	26937
808.324	27009
808.465	27009
808.607	27188
808.749	27363
808.891	27344
809.033	27644
809.174	27317
809.316	27367
809.458	27443
809.6	27374
809.741	27367
809.883	27545
810.025	27572
810.166	27762
810.308	27717
810.45	27713
810.591	27709
810.733	27424
810.875	27351
811.016	27355
811.158	27268
811.299	27545
811.441	27557
811.582	27534
811.724	27325
811.865	27340
812.007	27340
812.148	27450
812.29	27496
812.431	27507
812.573	27667
812.714	27808
812.855	27899
812.997	27941
813.138	28139
813.279	27941
813.421	27975
813.562	27816
813.703	27759
813.845	27435
813.986	27230
814.127	27184
814.268	27055
814.41	27032
814.551	27138
814.692	27154
814.833	27039
814.974	26902
815.115	27070
815.256	26994
815.397	26842
815.539	26876
815.68	26781
815.821	26781
815.962	26906
816.103	26743
816.244	26609
816.385	26556
816.526	26465
816.666	26351
816.807	26130
816.948	26332
817.089	26438
817.23	26229
817.371	26157
817.512	26267
817.653	26332
817.793	26149
817.934	26301
818.075	26275
818.216	26362
818.356	26259
818.497	26275
818.638	25925
818.778	26012
818.919	26161
819.06	26153
819.2	26336
819.341	26332
819.481	26278
819.622	26358
819.762	26579
819.903	26499
820.043	26579
820.184	26317
820.324	26461
820.465	26488
820.605	26507
820.746	26396
820.886	26202
821.026	26313
821.167	26343
821.307	26400
821.447	26187
821.588	26145
821.728	26153
821.868	25902
822.008	25753
822.149	25811
822.289	25841
822.429	25411
822.569	25415
822.709	25324
822.849	25278
822.99	25358
823.13	25327
823.27	25183
823.41	24871
823.55	24970
823.69	25034
823.83	25118
823.97	25000
824.11	24886
824.25	24817
824.389	24894
824.529	25019
824.669	24882
824.809	24943
824.949	24939
825.089	24928
825.228	25004
825.368	24677
825.508	24825
825.648	24825
825.787	24719
825.927	24837
826.067	24779
826.206	24779
826.346	24821
826.485	24909
826.625	24909
826.765	24844
826.904	24844
827.044	24631
827.183	24551
827.323	24536
827.462	24612
827.601	24589
827.741	24445
827.88	24486
828.02	24498
828.159	24376
828.298	24593
828.437	24433
828.577	24437
828.716	24505
828.855	24407
828.994	24228
829.134	24262
829.273	24224
829.412	24106
829.551	24114
829.69	24129
829.829	24300
829.968	24296
830.107	24171
830.246	24133
830.385	24194
830.524	24102
830.663	24087
830.802	23988
830.941	23885
831.08	23703
831.219	23870
831.357	23961
831.496	23984
831.635	23779
831.774	23836
831.913	23805
832.051	23627
832.19	23623
832.329	23581
832.467	23478
832.606	23398
832.744	23417
832.883	23330
833.022	23414
833.16	23520
833.299	23653
833.437	23539
833.576	23634
833.714	23592
833.852	23577
833.991	23642
834.129	23741
834.267	23722
834.406	23600
834.544	23611
834.682	23634
834.821	23722
834.959	23726
835.097	23596
835.235	23558
835.373	23623
835.511	23573
835.65	23387
835.788	23330
835.926	23429
836.064	23170
836.202	23223
836.34	23387
836.478	23455
836.615	23315
836.753	23307
836.891	23440
837.029	23364
837.167	23398
837.305	23425
837.443	23444
837.58	23166
837.718	23311
837.856	23429
837.993	23185
838.131	23231
838.269	23143
838.406	23140
838.544	23079
838.681	22976
838.819	22850
838.956	22763
839.094	22854
839.231	22729
839.369	22869
839.506	23151
839.643	23052
839.781	22683
839.918	22710
840.055	22759
840.193	22653
840.33	22603
840.467	22710
840.604	22687
840.742	22900
840.879	22478
841.016	22615
841.153	22592
841.29	22713
841.427	22694
841.564	22561
841.701	22752
841.838	22752
841.975	22691
842.112	22481
842.249	22497
842.385	22542
842.522	22596
842.659	22611
842.796	22557
842.933	22519
843.069	22523
843.206	22443
843.343	22516
843.479	22489
843.616	22455
843.752	22188
843.889	22215
844.025	22398
844.162	22257
844.298	22341
844.435	22276
844.571	22325
844.708	22360
844.844	22382
844.98	22299
845.117	22291
845.253	22181
845.389	22063
845.525	22215
845.661	22120
845.798	22070
845.934	22010
846.07	21884
846.206	21865
846.342	22097
846.478	21972
846.614	21804
846.75	21724
846.886	21675
847.022	21778
847.158	21827
847.294	21667
847.429	21804
847.565	21713
847.701	21873
847.837	21359
847.972	21408
848.108	21557
848.244	21477
848.379	21389
848.515	21363
848.65	21272
848.786	21344
848.921	21321
849.057	21401
849.192	21462
849.328	21302
849.463	21287
849.598	21241
849.734	21192
849.869	21211
850.004	21051
850.14	21127
850.275	21169
850.41	20971
850.545	21039
850.68	21127
850.815	21009
850.95	21017
851.085	21123
851.22	21180
851.355	21096
851.49	21085
851.625	21062
851.76	20944
851.895	20982
852.03	21093
852.165	20929
852.299	21070
852.434	21184
852.569	21131
852.703	21058
852.838	21055
852.973	21180
853.107	21154
853.242	20994
853.376	20857
853.511	20845
853.645	20830
853.78	20941
853.914	21020
854.048	20777
854.183	20762
854.317	20891
854.451	21062
854.585	20864
854.72	20883
854.854	21116
854.988	20902
855.122	20921
855.256	20785
855.39	20792
855.524	21013
855.658	20982
855.792	20914
855.926	20868
856.06	20838
856.194	21039
856.327	20902
856.461	20872
856.595	20842
856.729	20937
856.862	21036
856.996	21028
857.13	20937
857.263	21058
857.397	21039
857.53	20937
857.664	21017
857.797	21017
857.931	20990
858.064	20826
858.197	20891
858.331	20868
858.464	20773
858.597	20800
858.731	20906
858.864	20853
858.997	20887
859.13	20815
859.263	20880
859.396	21127
859.529	20815
859.662	20845
859.795	20781
859.928	20883
860.061	21085
860.194	21089
860.327	20925
860.46	20914
860.592	21127
860.725	21013
860.858	20960
860.99	20872
861.123	20838
861.256	20868
861.388	20975
861.521	21682
861.653	20765
861.786	20746
861.918	20739
862.05	20857
862.183	20796
862.315	20914
862.447	20906
862.58	20800
862.712	20518
862.844	20602
862.976	20708
863.108	20708
863.24	21051
863.372	20613
863.504	20678
863.636	20606
863.768	20621
863.9	20674
864.032	20476
864.164	20488
864.296	20552
864.428	20701
864.559	20693
864.691	20617
864.823	20579
864.954	20682
865.086	20552
865.217	20587
865.349	20423
865.48	20495
865.612	20507
865.743	20636
865.875	20461
866.006	20480
866.137	20594
866.269	20545
866.4	20457
866.531	20446
866.662	20469
866.793	20427
866.924	20355
867.055	20526
867.186	20446
867.317	20484
867.448	20415
867.579	20575
867.71	20339
867.841	20412
867.972	20469
868.103	20476
868.233	20427
868.364	20507
868.495	20533
868.625	20533
868.756	20762
868.886	20758
869.017	20686
869.147	20792
869.278	20739
869.408	20746
869.539	20735
869.669	20735
869.799	20781
869.929	20811
870.06	20777
870.19	21001
870.32	21036
870.45	21062
870.58	21085
870.71	21211
870.84	21161
870.97	21119
871.1	21093
871.23	21325
871.36	21351
871.489	21275
871.619	21291
871.749	21340
871.879	21363
872.008	21310
872.138	21260
872.267	21332
872.397	21264
872.526	21157
872.656	21199
872.785	21131
872.915	21272
873.044	21351
873.173	21408
873.303	21382
873.432	21268
873.561	21523
873.69	21481
873.819	21199
873.948	21363
874.077	21477
874.206	21405
874.335	21298
874.464	21428
874.593	21614
874.722	21576
874.851	21686
874.979	21648
875.108	21671
875.237	21614
875.365	21466
875.494	21603
875.623	21743
875.751	21641
875.88	21614
876.008	21686
876.136	21766
876.265	22006
876.393	22112
876.521	22051
876.65	22032
876.778	22078
876.906	22025
877.034	21915
877.162	21907
877.29	21873
877.418	21964
877.546	21884
877.674	21797
877.802	21884
877.93	21926
878.058	21800
878.185	21869
878.313	21979
878.441	21888
878.568	21743
878.696	21819
878.824	21808
878.951	22074
879.079	22109
879.206	22253
879.333	22059
879.461	21941
879.588	21949
879.715	22059
879.842	22230
879.97	21975
880.097	21686
880.224	21724
880.351	21751
880.478	21838
880.605	21743
880.732	21759
880.859	21846
880.986	21633
881.112	21675
881.239	21682
881.366	21485
881.493	21428
881.619	21336
881.746	21374
881.872	21340
881.999	21268
882.125	21161
882.252	21230
882.378	21252
882.505	21443
882.631	21062
882.757	21066
882.883	21058
883.01	21093
883.136	21001
883.262	20880
883.388	20815
883.514	21058
883.64	20990
883.766	21013
883.892	20872
884.018	20781
884.143	20952
884.269	21195
884.395	20830
884.52	20678
884.646	20674
884.772	20594
884.897	20522
885.023	20659
885.148	20716
885.274	20834
885.399	20716
885.524	20689
885.65	20724
885.775	20659
885.9	20590
886.025	20883
886.15	20606
886.275	20640
886.4	20564
886.525	20583
886.65	20590
886.775	20583
886.9	20686
887.025	20876
887.149	20644
887.274	20461
887.399	20377
887.523	20476
887.648	20339
887.773	20434
887.897	20609
888.021	20511
888.146	20393
888.27	20583
888.395	20579
888.519	20526
888.643	20438
888.767	20457
888.891	20290
889.015	20172
889.139	20351
889.263	20221
889.387	20286
889.511	20537
889.635	20275
889.759	20286
889.883	20240
890.006	20320
890.13	20358
890.254	20164
890.377	20134
890.501	20016
890.624	20054
890.748	20077
890.871	19959
890.995	19727
891.118	19837
891.241	19871
891.364	19826
891.488	20008
891.611	19833
891.734	19795
891.857	19795
891.98	19856
892.103	19967
892.226	19788
892.349	19753
892.471	19616
892.594	19727
892.717	19674
892.839	19715
892.962	19666
893.085	19738
893.207	19723
893.33	19651
893.452	19662
893.575	19780
893.697	19693
893.819	19890
893.941	19940
894.064	19932
894.186	19632
894.308	19681
894.43	19890
894.552	19875
894.674	19830
894.796	19696
894.918	19666
895.04	19689
895.161	19818
895.283	19833
895.405	19571
895.526	19605
895.648	19734
895.769	19750
895.891	19856
896.012	19932
896.134	19807
896.255	19742
896.376	19700
896.498	19753
896.619	19681
896.74	19750
896.861	19772
896.982	20062
897.103	20164
897.224	20065
897.345	20001
897.466	20001
897.587	19989
897.708	19989
897.828	20020
897.949	19883
898.07	19875
898.19	19928
898.311	19928
898.431	19978
898.552	19986
898.672	19982
898.792	20046
898.913	19944
899.033	19765
899.153	19776
899.273	19757
899.393	19582
899.513	19704
899.633	19750
899.753	19647
899.873	19738
899.993	19677
900.113	19624
900.232	19594
900.352	19567
900.472	19407
900.591	19556
900.711	19502
900.83	19502
900.95	19510
901.069	19552
901.189	19445
901.308	19126
901.427	19156
901.546	19152
901.665	19122
901.784	19031
901.904	18939
902.023	18810
902.141	18749
902.26	18608
902.379	18593
902.498	18563
902.617	18612
902.735	18684
902.854	18631
902.973	18464
903.091	18167
903.21	18220
903.328	18174
903.446	18239
903.565	18114
903.683	18155
903.801	17992
903.919	18114
904.038	17988
904.156	17897
904.274	17950
904.392	17843
904.51	17756
904.627	17752
904.745	17843
904.863	17942
904.981	17566
905.098	17554
905.216	17493
905.334	17562
905.451	17554
905.569	17512
905.686	17509
905.803	17547
905.921	17292
906.038	17311
906.155	17315
906.272	17261
906.389	17318
906.506	17086
906.623	17048
906.74	17014
906.857	16900
906.974	16961
907.091	17064
907.208	17269
907.324	17029
907.441	16919
907.557	16763
907.674	16812
907.79	16710
907.907	16828
908.023	16911
908.139	16812
908.256	16634
908.372	16698
908.488	16656
908.604	16497
908.72	16455
908.836	16542
908.952	16573
909.068	16478
909.184	16546
909.3	16508
909.415	16535
909.531	16413
909.647	16322
909.762	16207
909.878	16086
909.993	16200
910.108	16211
910.224	16143
910.339	16257
910.454	16177
910.57	16090
910.685	15850
910.8	16150
910.915	16188
911.03	16063
911.145	15789
911.259	15823
911.374	15751
911.489	15785
911.604	15622
911.718	15637
911.833	15584
911.947	15557
912.062	15462
912.176	15595
912.291	15682
912.405	15545
912.519	15800
912.633	15812
912.748	15656
912.862	15538
912.976	15401
913.09	15336
913.204	15355
913.318	15386
913.431	15595
913.545	15431
913.659	15500
913.772	15272
913.886	15233
914	15226
914.113	15325
914.226	15287
914.34	15283
914.453	15081
914.566	15294
914.68	15150
914.793	15157
914.906	14826
915.019	14826
915.132	14769
915.245	14682
915.358	14815
915.47	14781
915.583	14735
915.696	14853
915.809	14876
915.921	14895
916.034	14765
916.146	14754
916.259	14769
916.371	14811
916.483	14686
916.595	14682
916.708	14579
916.82	14583
916.932	14629
917.044	14629
917.156	14560
917.268	14579
917.38	14511
917.491	14533
917.603	14492
917.715	14503
917.826	14530
917.938	14457
918.049	14294
918.161	14450
918.272	14583
918.384	14571
918.495	14389
918.606	14233
918.717	14267
918.828	14214
918.939	14328
919.05	14096
919.161	14259
919.272	13997
919.383	14191
919.494	14259
919.604	14465
919.715	14225
919.826	14142
919.936	14183
920.047	14263
920.157	14275
920.267	14366
920.378	14134
920.488	14233
920.598	14412
920.708	14461
920.818	14404
920.928	14290
921.038	14469
921.148	14415
921.258	14191
921.368	14039
921.477	13967
921.587	14054
921.697	13875
921.806	14001
921.916	13814
922.025	13700
922.134	13681
922.244	13594
922.353	13662
922.462	13559
922.571	13396
922.68	13263
922.789	13232
922.898	13217
923.007	13187
923.116	13232
923.224	13228
923.333	13194
923.442	13053
923.55	13202
923.659	13038
923.767	13149
923.876	12981
923.984	13118
924.092	12977
924.201	13076
924.309	12935
924.417	13065
924.525	13008
924.633	12947
924.741	13936
924.849	12764
924.956	12856
925.064	12700
925.172	12642
925.279	12711
925.387	12642
925.494	12623
925.602	12798
925.709	12642
925.816	12631
925.924	12631
926.031	12715
926.138	12642
926.245	12726
926.352	12395
926.459	12696
926.566	12681
926.673	12521
926.779	12445
926.886	12433
926.993	12289
927.099	12213
927.206	12194
927.312	12175
927.419	12281
927.525	12300
927.631	12247
927.737	12213
927.843	12076
927.95	12030
928.056	12057
928.162	12117
928.267	12136
928.373	12578
928.479	12098
928.585	11961
928.69	12003
928.796	12049
928.901	11908
929.007	11832
929.112	11923
929.218	11847
929.323	11874
929.428	11756
929.533	11958
929.638	11802
929.743	11733
929.848	11843
929.953	11802
930.058	11684
930.163	11562
930.267	11490
930.372	11680
930.477	11493
930.581	11699
930.685	11509
930.79	11406
930.894	11379
930.998	11360
931.103	11497
931.207	11151
931.311	11147
931.415	10976
931.519	10759
931.623	10835
