Data from test_V78500241_3080.txt Node
Date: Fri Mar 25 15:31:18 CST 2022
User: usil
Spectrometer: V785-0024
Trigger mode: 0
Integration Time (sec): 4.000000E-1
Scans to average: 1
Nonlinearity correction enabled: false
Boxcar width: 0
Storing dark spectrum: false
XAxis mode: Wavelengths
Number of Pixels in Spectrum: 1024
>>>>>Begin Spectral Data<<<<<
801.071	27325
801.214	27260
801.356	27039
801.499	27051
801.641	26746
801.783	26872
801.926	26971
802.068	26785
802.211	26815
802.353	26815
802.496	26556
802.638	26549
802.78	26400
802.923	26412
803.065	26450
803.208	26408
803.35	26617
803.492	26636
803.635	26541
803.777	26446
803.919	26716
804.061	26929
804.204	26693
804.346	26606
804.488	26579
804.63	26606
804.773	26568
804.915	26659
805.057	26655
805.199	26575
805.341	26777
805.483	26712
805.626	26788
805.768	26663
805.91	26705
806.052	26762
806.194	26629
806.336	26868
806.478	26705
806.62	26811
806.762	26842
806.904	26887
807.046	27237
807.188	27123
807.33	27142
807.472	27252
807.614	27173
807.756	26963
807.898	26986
808.04	27017
808.182	26963
808.324	27017
808.465	27096
808.607	27336
808.749	27222
808.891	27310
809.033	27408
809.174	27367
809.316	27454
809.458	27306
809.6	27207
809.741	27462
809.883	27473
810.025	27603
810.166	27523
810.308	27614
810.45	27637
810.591	27427
810.733	27401
810.875	27386
811.016	27142
811.158	27214
811.299	27534
811.441	27561
811.582	27625
811.724	27321
811.865	27287
812.007	27275
812.148	27279
812.29	27256
812.431	27587
812.573	27637
812.714	27648
812.855	27797
812.997	27914
813.138	27972
813.279	27972
813.421	27895
813.562	27663
813.703	27720
813.845	27595
813.986	27138
814.127	26956
814.268	27001
814.41	27146
814.551	26971
814.692	27135
814.833	27017
814.974	27020
815.115	27028
815.256	26864
815.397	26921
815.539	26891
815.68	26842
815.821	26823
815.962	26826
816.103	26883
816.244	26697
816.385	26686
816.526	26499
816.666	26431
816.807	26142
816.948	26301
817.089	26320
817.23	26271
817.371	26210
817.512	26339
817.653	26229
817.793	26244
817.934	26294
818.075	26225
818.216	26324
818.356	26126
818.497	26084
818.638	25966
818.778	25947
818.919	25963
819.06	25944
819.2	26153
819.341	26161
819.481	26305
819.622	26450
819.762	26587
819.903	26541
820.043	26389
820.184	26476
820.324	26343
820.465	26400
820.605	26400
820.746	26313
820.886	26187
821.026	26301
821.167	26370
821.307	26412
821.447	26233
821.588	26130
821.728	26046
821.868	26001
822.008	25708
822.149	25712
822.289	25708
822.429	25445
822.569	25506
822.709	25403
822.849	25255
822.99	25270
823.13	25171
823.27	25278
823.41	25103
823.55	24905
823.69	25088
823.83	24875
823.97	24951
824.11	24867
824.25	24783
824.389	24905
824.529	24909
824.669	24890
824.809	24985
824.949	24947
825.089	24989
825.228	25034
825.368	24722
825.508	24726
825.648	24722
825.787	24749
825.927	24692
826.067	24703
826.206	24764
826.346	24806
826.485	24776
826.625	24741
826.765	24905
826.904	24798
827.044	24471
827.183	24566
827.323	24441
827.462	24407
827.601	24334
827.741	24479
827.88	24384
828.02	24163
828.159	24407
828.298	24399
828.437	24338
828.577	24342
828.716	24467
828.855	24251
828.994	24292
829.134	24239
829.273	24262
829.412	23969
829.551	24121
829.69	24064
829.829	24232
829.968	24254
830.107	24174
830.246	24133
830.385	24038
830.524	24030
830.663	23874
830.802	23961
830.941	23783
831.08	23718
831.219	23779
831.357	23863
831.496	24038
831.635	23638
831.774	23684
831.913	23619
832.051	23497
832.19	23467
832.329	23528
832.467	23505
832.606	23360
832.744	23414
832.883	23417
833.022	23299
833.16	23387
833.299	23383
833.437	23497
833.576	23589
833.714	23528
833.852	23554
833.991	23566
834.129	23554
834.267	23581
834.406	23395
834.544	23402
834.682	23452
834.821	23600
834.959	23710
835.097	23421
835.235	23452
835.373	23410
835.511	23364
835.65	23379
835.788	23280
835.926	23178
836.064	23029
836.202	23181
836.34	23341
836.478	23452
836.615	23330
836.753	23337
836.891	23341
837.029	23383
837.167	23147
837.305	23269
837.443	23075
837.58	23216
837.718	23223
837.856	23128
837.993	23140
838.131	23041
838.269	23014
838.406	23010
838.544	22953
838.681	22915
838.819	22797
838.956	22687
839.094	22557
839.231	22698
839.369	22919
839.506	23113
839.643	22900
839.781	22649
839.918	22634
840.055	22592
840.193	22569
840.33	22569
840.467	22565
840.604	22675
840.742	22839
840.879	22561
841.016	22546
841.153	22436
841.29	22573
841.427	22466
841.564	22637
841.701	22641
841.838	22500
841.975	22436
842.112	22512
842.249	22451
842.385	22443
842.522	22675
842.659	22481
842.796	22257
842.933	22268
843.069	22325
843.206	22299
843.343	22356
843.479	22276
843.616	22299
843.752	22078
843.889	22078
844.025	22322
844.162	22150
844.298	22242
844.435	22135
844.571	22040
844.708	22173
844.844	22249
844.98	22234
845.117	22181
845.253	22097
845.389	21846
845.525	22093
845.661	21793
845.798	21766
845.934	21850
846.07	21747
846.206	21865
846.342	21903
846.478	21819
846.614	21663
846.75	21504
846.886	21595
847.022	21682
847.158	21694
847.294	21477
847.429	21553
847.565	21568
847.701	21880
847.837	21344
847.972	21230
848.108	21351
848.244	21526
848.379	21287
848.515	21188
848.65	21169
848.786	21226
848.921	21157
849.057	21363
849.192	21161
849.328	21264
849.463	21188
849.598	21051
849.734	20990
849.869	20921
850.004	20910
850.14	20921
850.275	21013
850.41	20941
850.545	20902
850.68	20971
850.815	21005
850.95	21036
851.085	21203
851.22	20925
851.355	20887
851.49	20883
851.625	20906
851.76	20994
851.895	20857
852.03	20750
852.165	20876
852.299	21001
852.434	20963
852.569	20933
852.703	20914
852.838	20998
852.973	21074
853.107	20933
853.242	20918
853.376	20712
853.511	20670
853.645	20735
853.78	20857
853.914	20674
854.048	20564
854.183	20686
854.317	20735
854.451	20982
854.585	20914
854.72	20796
854.854	20823
854.988	20632
855.122	20758
855.256	20655
855.39	20765
855.524	20941
855.658	20773
855.792	20838
855.926	20697
856.06	20739
856.194	20830
856.327	20830
856.461	20750
856.595	20727
856.729	20693
856.862	20830
856.996	20731
857.13	20792
857.263	20853
857.397	20716
857.53	20617
857.664	20762
857.797	20750
857.931	20902
858.064	20689
858.197	20891
858.331	20842
858.464	20746
858.597	20701
858.731	20777
858.864	20815
858.997	20792
859.13	20735
859.263	20765
859.396	20899
859.529	20769
859.662	20674
859.795	20617
859.928	20918
860.061	20823
860.194	21017
860.327	20815
860.46	20750
860.592	20849
860.725	20891
860.858	20807
860.99	20746
861.123	20583
861.256	20739
861.388	20762
861.521	21272
861.653	20712
861.786	20674
861.918	20583
862.05	20636
862.183	20598
862.315	20754
862.447	20807
862.58	20651
862.712	20689
862.844	20423
862.976	20587
863.108	20492
863.24	20796
863.372	20454
863.504	20438
863.636	20484
863.768	20507
863.9	20533
864.032	20358
864.164	20495
864.296	20412
864.428	20617
864.559	20575
864.691	20469
864.823	20450
864.954	20454
865.086	20514
865.217	20503
865.349	20309
865.48	20358
865.612	20396
865.743	20518
865.875	20476
866.006	20351
866.137	20244
866.269	20396
866.4	20328
866.531	20336
866.662	20358
866.793	20381
866.924	20210
867.055	20294
867.186	20313
867.317	20275
867.448	20237
867.579	20332
867.71	20286
867.841	20328
867.972	20389
868.103	20233
868.233	20499
868.364	20389
868.495	20469
868.625	20617
868.756	20655
868.886	20518
869.017	20617
869.147	20648
869.278	20727
869.408	20507
869.539	20571
869.669	20590
869.799	20625
869.929	20651
870.06	20682
870.19	20979
870.32	20838
870.45	20864
870.58	20994
870.71	21066
870.84	20956
870.97	20925
871.1	20864
871.23	21188
871.36	21252
871.489	20994
871.619	21180
871.749	21127
871.879	21150
872.008	21370
872.138	21138
872.267	21199
872.397	21085
872.526	21150
872.656	20979
872.785	21051
872.915	21161
873.044	21157
873.173	21184
873.303	21214
873.432	21302
873.561	21268
873.69	21180
873.819	21112
873.948	21268
874.077	21230
874.206	21165
874.335	21192
874.464	21386
874.593	21401
874.722	21348
874.851	21428
874.979	21447
875.108	21469
875.237	21359
875.365	21344
875.494	21401
875.623	21405
875.751	21397
875.88	21317
876.008	21530
876.136	21660
876.265	21873
876.393	21873
876.521	21846
876.65	21922
876.778	21937
876.906	21838
877.034	21705
877.162	21808
877.29	21663
877.418	21850
877.546	21865
877.674	21667
877.802	21698
877.93	21770
878.058	21835
878.185	21675
878.313	21660
878.441	21762
878.568	21504
878.696	21637
878.824	21743
878.951	21922
879.079	21949
879.206	21987
879.333	21968
879.461	21823
879.588	21819
879.715	22059
879.842	22040
879.97	22048
880.097	21682
880.224	21576
880.351	21519
880.478	21755
880.605	21534
880.732	21656
880.859	21816
880.986	21583
881.112	21610
881.239	21466
881.366	21336
881.493	21313
881.619	21203
881.746	21233
881.872	21245
881.999	21199
882.125	21100
882.252	21230
882.378	21135
882.505	21131
882.631	21047
882.757	20910
882.883	20960
883.01	20830
883.136	20853
883.262	20731
883.388	20819
883.514	20902
883.64	20963
883.766	20746
883.892	20552
884.018	20674
884.143	20849
884.269	20857
884.395	20720
884.52	20537
884.646	20602
884.772	20476
884.897	20431
885.023	20530
885.148	20686
885.274	20598
885.399	20621
885.524	20682
885.65	20682
885.775	20541
885.9	20457
886.025	20537
886.15	20530
886.275	20476
886.4	20442
886.525	20503
886.65	20518
886.775	20419
886.9	20750
887.025	20823
887.149	20377
887.274	20400
887.399	20366
887.523	20355
887.648	20199
887.773	20271
887.897	20343
888.021	20423
888.146	20267
888.27	20396
888.395	20469
888.519	20305
888.643	20393
888.767	20286
888.891	20218
889.015	20012
889.139	20229
889.263	20062
889.387	20309
889.511	20355
889.635	20225
889.759	20100
889.883	20031
890.006	20168
890.13	20206
890.254	20092
890.377	19978
890.501	19856
890.624	19887
890.748	19837
890.871	19719
890.995	19685
891.118	19712
891.241	19708
891.364	19738
891.488	19982
891.611	19666
891.734	19715
891.857	19712
891.98	19677
892.103	19666
892.226	19674
892.349	19559
892.471	19499
892.594	19677
892.717	19677
892.839	19601
892.962	19632
893.085	19696
893.207	19674
893.33	19556
893.452	19525
893.575	19651
893.697	19662
893.819	19772
893.941	19818
894.064	19723
894.186	19533
894.308	19487
894.43	19693
894.552	19753
894.674	19704
894.796	19571
894.918	19601
895.04	19609
895.161	19841
895.283	19670
895.405	19529
895.526	19510
895.648	19533
895.769	19552
895.891	19601
896.012	19696
896.134	19723
896.255	19582
896.376	19605
896.498	19468
896.619	19662
896.74	19635
896.861	19624
896.982	19883
897.103	20096
897.224	19845
897.345	19826
897.466	19845
897.587	19727
897.708	19906
897.828	19887
897.949	19811
898.07	19597
898.19	19849
898.311	19936
898.431	19791
898.552	19982
898.672	19875
898.792	19814
898.913	19719
899.033	19727
899.153	19715
899.273	19476
899.393	19639
899.513	19601
899.633	19639
899.753	19582
899.873	19544
899.993	19662
900.113	19578
900.232	19441
900.352	19483
900.472	19400
900.591	19460
900.711	19392
900.83	19377
900.95	19506
901.069	19419
901.189	19301
901.308	19099
901.427	18901
901.546	19015
901.665	18985
901.784	19042
901.904	18829
902.023	18677
902.141	18551
902.26	18536
902.379	18547
902.498	18525
902.617	18456
902.735	18536
902.854	18521
902.973	18361
903.091	18232
903.21	18152
903.328	18163
903.446	18174
903.565	17965
903.683	18034
903.801	17805
903.919	17897
904.038	17939
904.156	17691
904.274	17775
904.392	17737
904.51	17611
904.627	17771
904.745	17794
904.863	17752
904.981	17566
905.098	17414
905.216	17383
905.334	17406
905.451	17532
905.569	17387
905.686	17471
905.803	17379
905.921	17265
906.038	17345
906.155	17265
906.272	17117
906.389	17083
906.506	17022
906.623	16957
906.74	16919
906.857	16889
906.974	16858
907.091	17010
907.208	17136
907.324	16976
907.441	16847
907.557	16687
907.674	16519
907.79	16607
907.907	16618
908.023	16809
908.139	16664
908.256	16603
908.372	16500
908.488	16653
908.604	16527
908.72	16371
908.836	16386
908.952	16360
909.068	16424
909.184	16436
909.3	16455
909.415	16352
909.531	16322
909.647	16128
909.762	16204
909.878	16048
909.993	16112
910.108	16078
910.224	16139
910.339	16032
910.454	15865
910.57	15911
910.685	15918
910.8	16120
910.915	16063
911.03	15975
911.145	15747
911.259	15781
911.374	15736
911.489	15561
911.604	15656
911.718	15595
911.833	15473
911.947	15344
912.062	15306
912.176	15641
912.291	15557
912.405	15443
912.519	15633
912.633	15580
912.748	15576
912.862	15462
912.976	15359
913.09	15188
913.204	15313
913.318	15272
913.431	15355
913.545	15416
913.659	15317
913.772	15336
913.886	15051
914	15066
914.113	15203
914.226	15188
914.34	15066
914.453	15058
914.566	15135
914.68	14979
914.793	15020
914.906	14804
915.019	14697
915.132	14686
915.245	14655
915.358	14720
915.47	14758
915.583	14743
915.696	14701
915.809	14762
915.921	14807
916.034	14697
916.146	14712
916.259	14549
916.371	14819
916.483	14640
916.595	14606
916.708	14514
916.82	14511
916.932	14545
917.044	14461
917.156	14457
917.268	14301
917.38	14355
917.491	14317
917.603	14469
917.715	14465
917.826	14484
917.938	14259
918.049	14313
918.161	14400
918.272	14473
918.384	14415
918.495	14305
918.606	14107
918.717	14206
918.828	14130
918.939	14100
919.05	14077
919.161	14134
919.272	13913
919.383	13982
919.494	14282
919.604	14366
919.715	14126
919.826	14031
919.936	14187
920.047	14161
920.157	14126
920.267	14358
920.378	14126
920.488	14035
920.598	14218
920.708	14415
920.818	14210
920.928	14267
921.038	14366
921.148	14351
921.258	14092
921.368	14130
921.477	13932
921.587	13887
921.697	13685
921.806	13883
921.916	13693
922.025	13540
922.134	13529
922.244	13457
922.353	13495
922.462	13392
922.571	13396
922.68	13095
922.789	13168
922.898	13129
923.007	13053
923.116	13225
923.224	13129
923.333	13126
923.442	13042
923.55	12954
923.659	13084
923.767	12981
923.876	13042
923.984	13004
924.092	12852
924.201	12882
924.309	12848
924.417	12909
924.525	12844
924.633	12825
924.741	13742
924.849	12639
924.956	12776
925.064	12646
925.172	12528
925.279	12547
925.387	12639
925.494	12509
925.602	12821
925.709	12662
925.816	12445
925.924	12547
926.031	12658
926.138	12570
926.245	12570
926.352	12445
926.459	12582
926.566	12654
926.673	12448
926.779	12353
926.886	12346
926.993	12281
927.099	12243
927.206	12201
927.312	12171
927.419	12262
927.525	12144
927.631	12213
927.737	12106
927.843	12053
927.95	12022
928.056	12011
928.162	12022
928.267	11965
928.373	12673
928.479	12019
928.585	11729
928.69	11931
928.796	11961
928.901	11855
929.007	11771
929.112	11859
929.218	11783
929.323	11885
929.428	11783
929.533	11870
929.638	11699
929.743	11710
929.848	11733
929.953	11665
930.058	11592
930.163	11345
930.267	11433
930.372	11581
930.477	11349
930.581	11672
930.685	11440
930.79	11360
930.894	11334
930.998	11284
931.103	11406
931.207	11094
931.311	11121
931.415	10946
931.519	10729
931.623	10748
