Data from test_V78500241_2517.txt Node
Date: Fri Mar 25 15:27:23 CST 2022
User: usil
Spectrometer: V785-0024
Trigger mode: 0
Integration Time (sec): 4.000000E-1
Scans to average: 1
Nonlinearity correction enabled: false
Boxcar width: 0
Storing dark spectrum: false
XAxis mode: Wavelengths
Number of Pixels in Spectrum: 1024
>>>>>Begin Spectral Data<<<<<
801.071	27093
801.214	27123
801.356	26743
801.499	26868
801.641	26788
801.783	26682
801.926	26777
802.068	26648
802.211	26613
802.353	26465
802.496	26286
802.638	26278
802.78	26290
802.923	26240
803.065	26122
803.208	26065
803.35	26199
803.492	26385
803.635	26465
803.777	26358
803.919	26374
804.061	26785
804.204	26575
804.346	26389
804.488	26442
804.63	26339
804.773	26343
804.915	26503
805.057	26655
805.199	26278
805.341	26423
805.483	26541
805.626	26453
805.768	26336
805.91	26484
806.052	26434
806.194	26469
806.336	26636
806.478	26644
806.62	26503
806.762	26583
806.904	26777
807.046	26948
807.188	26948
807.33	26971
807.472	26918
807.614	26982
807.756	26933
807.898	26720
808.04	26625
808.182	26686
808.324	26689
808.465	26800
808.607	26918
808.749	27154
808.891	27203
809.033	27241
809.174	27081
809.316	27043
809.458	27081
809.6	27138
809.741	27214
809.883	27393
810.025	27283
810.166	27389
810.308	27386
810.45	27325
810.591	27287
810.733	27062
810.875	27074
811.016	26944
811.158	27131
811.299	27272
811.441	27298
811.582	27252
811.724	27268
811.865	27096
812.007	27104
812.148	26914
812.29	27081
812.431	27291
812.573	27447
812.714	27545
812.855	27610
812.997	27728
813.138	27694
813.279	27709
813.421	27583
813.562	27572
813.703	27511
813.845	27275
813.986	27032
814.127	26697
814.268	26796
814.41	26872
814.551	26724
814.692	26887
814.833	26743
814.974	26674
815.115	26735
815.256	26465
815.397	26625
815.539	26556
815.68	26488
815.821	26617
815.962	26609
816.103	26522
816.244	26358
816.385	26259
816.526	26218
816.666	26161
816.807	25940
816.948	26058
817.089	26187
817.23	26031
817.371	26027
817.512	26012
817.653	26069
817.793	25906
817.934	26081
818.075	26084
818.216	25974
818.356	25864
818.497	25940
818.638	25769
818.778	25662
818.919	25674
819.06	25906
819.2	25864
819.341	26024
819.481	25894
819.622	26103
819.762	26343
819.903	26180
820.043	26122
820.184	26111
820.324	26111
820.465	26210
820.605	26119
820.746	26142
820.886	26073
821.026	26195
821.167	26016
821.307	26240
821.447	26027
821.588	26073
821.728	25814
821.868	25753
822.008	25460
822.149	25396
822.289	25422
822.429	25107
822.569	25259
822.709	25038
822.849	25050
822.99	25061
823.13	25069
823.27	25099
823.41	24863
823.55	24787
823.69	24745
823.83	24863
823.97	24726
824.11	24578
824.25	24563
824.389	24677
824.529	24528
824.669	24612
824.809	24658
824.949	24738
825.089	24768
825.228	24597
825.368	24578
825.508	24429
825.648	24593
825.787	24601
825.927	24585
826.067	24486
826.206	24410
826.346	24525
826.485	24681
826.625	24475
826.765	24642
826.904	24513
827.044	24190
827.183	24254
827.323	24311
827.462	24285
827.601	24072
827.741	24197
827.88	24243
828.02	24022
828.159	24034
828.298	24152
828.437	24289
828.577	24186
828.716	24243
828.855	24171
828.994	23893
829.134	23904
829.273	23847
829.412	23885
829.551	23878
829.69	23901
829.829	23863
829.968	24026
830.107	23999
830.246	23984
830.385	23832
830.524	23828
830.663	23649
830.802	23638
830.941	23573
831.08	23531
831.219	23676
831.357	23760
831.496	23672
831.635	23535
831.774	23471
831.913	23429
832.051	23349
832.19	23372
832.329	23334
832.467	23121
832.606	23299
832.744	23155
832.883	23216
833.022	23189
833.16	23166
833.299	23239
833.437	23223
833.576	23318
833.714	23208
833.852	23231
833.991	23277
834.129	23360
834.267	23246
834.406	23208
834.544	23292
834.682	23296
834.821	23345
834.959	23395
835.097	23204
835.235	23326
835.373	23269
835.511	23292
835.65	23067
835.788	23094
835.926	22968
836.064	23010
836.202	22987
836.34	23090
836.478	23334
836.615	23136
836.753	23151
836.891	23128
837.029	23212
837.167	23121
837.305	23022
837.443	22946
837.58	22953
837.718	23086
837.856	22965
837.993	22869
838.131	22999
838.269	22854
838.406	23022
838.544	22828
838.681	22660
838.819	22664
838.956	22356
839.094	22428
839.231	22443
839.369	22626
839.506	22873
839.643	22801
839.781	22557
839.918	22519
840.055	22523
840.193	22409
840.33	22337
840.467	22443
840.604	22382
840.742	22854
840.879	22382
841.016	22398
841.153	22341
841.29	22550
841.427	22329
841.564	22363
841.701	22341
841.838	22367
841.975	22348
842.112	22447
842.249	22344
842.385	22226
842.522	22470
842.659	22371
842.796	22055
842.933	22211
843.069	22090
843.206	22234
843.343	22166
843.479	22207
843.616	22185
843.752	21983
843.889	22124
844.025	22135
844.162	21895
844.298	21987
844.435	21975
844.571	21987
844.708	22051
844.844	22109
844.98	22086
845.117	22051
845.253	21861
845.389	21694
845.525	21781
845.661	21972
845.798	21675
845.934	21759
846.07	21717
846.206	21591
846.342	21778
846.478	21633
846.614	21424
846.75	21450
846.886	21405
847.022	21523
847.158	21534
847.294	21447
847.429	21420
847.565	21393
847.701	21583
847.837	21306
847.972	21096
848.108	21135
848.244	21272
848.379	21123
848.515	21104
848.65	20952
848.786	21036
848.921	20906
849.057	21047
849.192	21096
849.328	21146
849.463	20952
849.598	20857
849.734	20982
849.869	20788
850.004	20735
850.14	20937
850.275	20792
850.41	20758
850.545	20758
850.68	20800
850.815	20777
850.95	20823
851.085	20929
851.22	20849
851.355	20781
851.49	20769
851.625	20781
851.76	20731
851.895	20727
852.03	20689
852.165	20765
852.299	20899
852.434	20883
852.569	20811
852.703	20743
852.838	20800
852.973	20941
853.107	20937
853.242	20693
853.376	20632
853.511	20587
853.645	20442
853.78	20667
853.914	20701
854.048	20522
854.183	20568
854.317	20697
854.451	20804
854.585	20617
854.72	20583
854.854	20609
854.988	20621
855.122	20571
855.256	20488
855.39	20457
855.524	20712
855.658	20682
855.792	20579
855.926	20640
856.06	20746
856.194	20667
856.327	20659
856.461	20461
856.595	20476
856.729	20571
856.862	20804
856.996	20644
857.13	20697
857.263	20830
857.397	20663
857.53	20598
857.664	20632
857.797	20712
857.931	20636
858.064	20556
858.197	20636
858.331	20602
858.464	20564
858.597	20476
858.731	20682
858.864	20583
858.997	20708
859.13	20598
859.263	20686
859.396	20674
859.529	20655
859.662	20636
859.795	20678
859.928	20613
860.061	20621
860.194	20785
860.327	20636
860.46	20552
860.592	20731
860.725	20765
860.858	20746
860.99	20533
861.123	20518
861.256	20522
861.388	20632
861.521	21336
861.653	20480
861.786	20427
861.918	20450
862.05	20412
862.183	20488
862.315	20590
862.447	20606
862.58	20583
862.712	20256
862.844	20301
862.976	20476
863.108	20446
863.24	20880
863.372	20214
863.504	20347
863.636	20324
863.768	20339
863.9	20309
864.032	20256
864.164	20320
864.296	20320
864.428	20431
864.559	20423
864.691	20332
864.823	20495
864.954	20309
865.086	20286
865.217	20259
865.349	20134
865.48	20404
865.612	20191
865.743	20385
865.875	20275
866.006	20126
866.137	20084
866.269	20180
866.4	20256
866.531	20134
866.662	20142
866.793	20210
866.924	20168
867.055	20210
867.186	20206
867.317	20187
867.448	20107
867.579	20164
867.71	20062
867.841	20130
867.972	20218
868.103	20126
868.233	20191
868.364	20233
868.495	20240
868.625	20370
868.756	20450
868.886	20396
869.017	20370
869.147	20526
869.278	20465
869.408	20389
869.539	20351
869.669	20571
869.799	20511
869.929	20530
870.06	20526
870.19	20746
870.32	20682
870.45	20682
870.58	20929
870.71	20967
870.84	20765
870.97	20815
871.1	20845
871.23	21024
871.36	20998
871.489	20941
871.619	20967
871.749	21013
871.879	20986
872.008	21131
872.138	20998
872.267	20960
872.397	20910
872.526	20956
872.656	20750
872.785	20830
872.915	20986
873.044	21184
873.173	21036
873.303	21157
873.432	21036
873.561	21154
873.69	21062
873.819	21032
873.948	21058
874.077	21173
874.206	20986
874.335	21020
874.464	21211
874.593	21237
874.722	21195
874.851	21306
874.979	21348
875.108	21370
875.237	21165
875.365	21089
875.494	21195
875.623	21294
875.751	21329
875.88	21321
876.008	21351
876.136	21500
876.265	21652
876.393	21827
876.521	21709
876.65	21804
876.778	21736
876.906	21523
877.034	21720
877.162	21599
877.29	21625
877.418	21660
877.546	21743
877.674	21709
877.802	21625
877.93	21591
878.058	21526
878.185	21523
878.313	21580
878.441	21561
878.568	21496
878.696	21515
878.824	21564
878.951	21682
879.079	21895
879.206	21911
879.333	21835
879.461	21568
879.588	21641
879.715	21743
879.842	21934
879.97	21774
880.097	21469
880.224	21454
880.351	21519
880.478	21466
880.605	21462
880.732	21515
880.859	21724
880.986	21519
881.112	21492
881.239	21306
881.366	21184
881.493	20986
881.619	21051
881.746	20944
881.872	21051
881.999	21036
882.125	21116
882.252	21089
882.378	21028
882.505	21108
882.631	20986
882.757	20720
882.883	20845
883.01	20769
883.136	20724
883.262	20682
883.388	20606
883.514	20705
883.64	20746
883.766	20708
883.892	20552
884.018	20636
884.143	20731
884.269	20796
884.395	20385
884.52	20457
884.646	20355
884.772	20309
884.897	20374
885.023	20492
885.148	20602
885.274	20587
885.399	20454
885.524	20370
885.65	20446
885.775	20533
885.9	20339
886.025	20545
886.15	20457
886.275	20328
886.4	20301
886.525	20320
886.65	20412
886.775	20347
886.9	20480
887.025	20705
887.149	20377
887.274	20157
887.399	20020
887.523	20286
887.648	20107
887.773	20153
887.897	20218
888.021	20259
888.146	20020
888.27	20252
888.395	20259
888.519	20202
888.643	20161
888.767	20206
888.891	20062
889.015	20020
889.139	20130
889.263	19868
889.387	20008
889.511	20244
889.635	20035
889.759	20001
889.883	19913
890.006	20001
890.13	20012
890.254	19898
890.377	19887
890.501	19788
890.624	19750
890.748	19723
890.871	19677
890.995	19548
891.118	19464
891.241	19540
891.364	19582
891.488	19655
891.611	19525
891.734	19506
891.857	19647
891.98	19601
892.103	19506
892.226	19491
892.349	19441
892.471	19396
892.594	19400
892.717	19571
892.839	19521
892.962	19499
893.085	19556
893.207	19362
893.33	19358
893.452	19320
893.575	19559
893.697	19487
893.819	19674
893.941	19647
894.064	19609
894.186	19468
894.308	19472
894.43	19628
894.552	19651
894.674	19578
894.796	19392
894.918	19388
895.04	19392
895.161	19559
895.283	19571
895.405	19502
895.526	19529
895.648	19476
895.769	19529
895.891	19537
896.012	19575
896.134	19499
896.255	19556
896.376	19480
896.498	19510
896.619	19438
896.74	19540
896.861	19575
896.982	19811
897.103	19875
897.224	19803
897.345	19651
897.466	19643
897.587	19845
897.708	19864
897.828	19723
897.949	19727
898.07	19582
898.19	19658
898.311	19685
898.431	19666
898.552	19605
898.672	19864
898.792	19742
898.913	19761
899.033	19571
899.153	19590
899.273	19346
899.393	19521
899.513	19552
899.633	19430
899.753	19491
899.873	19468
899.993	19540
900.113	19499
900.232	19556
900.352	19415
900.472	19228
900.591	19202
900.711	19221
900.83	19228
900.95	19396
901.069	19289
901.189	19183
901.308	18901
901.427	18909
901.546	18867
901.665	18806
901.784	18932
901.904	18772
902.023	18426
902.141	18426
902.26	18426
902.379	18490
902.498	18330
902.617	18308
902.735	18311
902.854	18399
902.973	18350
903.091	18030
903.21	18133
903.328	18114
903.446	17954
903.565	17893
903.683	17893
903.801	17729
903.919	17851
904.038	17748
904.156	17691
904.274	17714
904.392	17668
904.51	17623
904.627	17551
904.745	17665
904.863	17710
904.981	17429
905.098	17353
905.216	17280
905.334	17307
905.451	17288
905.569	17299
905.686	17326
905.803	17372
905.921	17227
906.038	17246
906.155	17102
906.272	17006
906.389	17037
906.506	16896
906.623	16782
906.74	16812
906.857	16622
906.974	16755
907.091	16911
907.208	17003
907.324	16835
907.441	16733
907.557	16710
907.674	16660
907.79	16497
907.907	16512
908.023	16527
908.139	16653
908.256	16607
908.372	16424
908.488	16451
908.604	16375
908.72	16204
908.836	16398
908.952	16272
909.068	16303
909.184	16398
909.3	16314
909.415	16356
909.531	16280
909.647	16078
909.762	16074
909.878	15956
909.993	16029
910.108	16025
910.224	15994
910.339	15915
910.454	15895
910.57	15770
910.685	15682
910.8	16002
910.915	15922
911.03	15797
911.145	15633
911.259	15603
911.374	15648
911.489	15629
911.604	15603
911.718	15454
911.833	15412
911.947	15439
912.062	15272
912.176	15386
912.291	15469
912.405	15401
912.519	15576
912.633	15561
912.748	15435
912.862	15317
912.976	15161
913.09	15066
913.204	15108
913.318	15188
913.431	15226
913.545	15374
913.659	15268
913.772	15055
913.886	14975
914	14971
914.113	15036
914.226	15131
914.34	14979
914.453	14830
914.566	15127
914.68	14868
914.793	14804
914.906	14769
915.019	14594
915.132	14590
915.245	14587
915.358	14655
915.47	14575
915.583	14632
915.696	14629
915.809	14754
915.921	14716
916.034	14484
916.146	14579
916.259	14640
916.371	14579
916.483	14712
916.595	14412
916.708	14571
916.82	14461
916.932	14328
917.044	14533
917.156	14400
917.268	14320
917.38	14225
917.491	14290
917.603	14290
917.715	14351
917.826	14362
917.938	14271
918.049	14214
918.161	14225
918.272	14336
918.384	14374
918.495	14275
918.606	14126
918.717	14012
918.828	14164
918.939	14088
919.05	14005
919.161	13986
919.272	13852
919.383	13913
919.494	14088
919.604	14202
919.715	14092
919.826	13925
919.936	13974
920.047	14142
920.157	13944
920.267	14240
920.378	14153
920.488	13993
920.598	14168
920.708	14294
920.818	14191
920.928	14191
921.038	14252
921.148	14240
921.258	14115
921.368	13917
921.477	13791
921.587	13753
921.697	13613
921.806	13765
921.916	13620
922.025	13483
922.134	13491
922.244	13480
922.353	13468
922.462	13339
922.571	13316
922.68	13012
922.789	13164
922.898	13103
923.007	13019
923.116	13122
923.224	13031
923.333	13080
923.442	12932
923.55	12863
923.659	12943
923.767	12985
923.876	12871
923.984	12943
924.092	12738
924.201	12856
924.309	12844
924.417	12844
924.525	12749
924.633	12715
924.741	13662
924.849	12616
924.956	12707
925.064	12635
925.172	12460
925.279	12460
925.387	12471
925.494	12418
925.602	12719
925.709	12544
925.816	12418
925.924	12350
926.031	12570
926.138	12506
926.245	12559
926.352	12403
926.459	12544
926.566	12570
926.673	12327
926.779	12266
926.886	12353
926.993	12190
927.099	12057
927.206	12110
927.312	12076
927.419	12190
927.525	12095
927.631	12140
927.737	11999
927.843	11935
927.95	11802
928.056	11927
928.162	11931
928.267	12034
928.373	12669
928.479	12102
928.585	11805
928.69	11893
928.796	11851
928.901	11878
929.007	11566
929.112	11798
929.218	11775
929.323	11699
929.428	11638
929.533	11775
929.638	11688
929.743	11642
929.848	11611
929.953	11589
930.058	11547
930.163	11326
930.267	11311
930.372	11532
930.477	11318
930.581	11524
930.685	11356
930.79	11204
930.894	11242
930.998	11231
931.103	11360
931.207	11094
931.311	10980
931.415	10923
931.519	10641
931.623	10577
