Data from test_V78500241_758.txt Node
Date: Fri Mar 25 15:15:08 CST 2022
User: usil
Spectrometer: V785-0024
Trigger mode: 0
Integration Time (sec): 4.000000E-1
Scans to average: 1
Nonlinearity correction enabled: false
Boxcar width: 0
Storing dark spectrum: false
XAxis mode: Wavelengths
Number of Pixels in Spectrum: 1024
>>>>>Begin Spectral Data<<<<<
801.071	27972
801.214	27937
801.356	27523
801.499	27507
801.641	27545
801.783	27321
801.926	27481
802.068	27530
802.211	27367
802.353	27298
802.496	27039
802.638	26971
802.78	27009
802.923	27055
803.065	27028
803.208	27135
803.35	27222
803.492	27180
803.635	27146
803.777	27180
803.919	27275
804.061	27603
804.204	27211
804.346	27233
804.488	27070
804.63	27176
804.773	27230
804.915	27188
805.057	27332
805.199	27256
805.341	27317
805.483	27378
805.626	27477
805.768	27207
805.91	27302
806.052	27405
806.194	27317
806.336	27545
806.478	27450
806.62	27526
806.762	27625
806.904	27762
807.046	27968
807.188	27793
807.33	27880
807.472	27823
807.614	27850
807.756	27747
807.898	27762
808.04	27610
808.182	27656
808.324	27682
808.465	27850
808.607	27991
808.749	28116
808.891	28158
809.033	28242
809.174	28109
809.316	28219
809.458	28143
809.6	27964
809.741	28196
809.883	28230
810.025	28394
810.166	28382
810.308	28265
810.45	28261
810.591	28280
810.733	28120
810.875	28074
811.016	28063
811.158	28074
811.299	27975
811.441	28211
811.582	28242
811.724	28112
811.865	28082
812.007	27975
812.148	28143
812.29	28162
812.431	28249
812.573	28337
812.714	28485
812.855	28656
812.997	28641
813.138	28831
813.279	28744
813.421	28603
813.562	28641
813.703	28466
813.845	28284
813.986	28059
814.127	27914
814.268	27835
814.41	27945
814.551	27774
814.692	27808
814.833	27804
814.974	27751
815.115	27800
815.256	27622
815.397	27663
815.539	27667
815.68	27576
815.821	27458
815.962	27473
816.103	27538
816.244	27370
816.385	27477
816.526	27427
816.666	27188
816.807	27131
816.948	27275
817.089	27211
817.23	27074
817.371	27013
817.512	27131
817.653	27100
817.793	27055
817.934	27043
818.075	27180
818.216	27074
818.356	26990
818.497	27142
818.638	26876
818.778	26769
818.919	26883
819.06	26853
819.2	26975
819.341	27108
819.481	27066
819.622	27245
819.762	27302
819.903	27386
820.043	27218
820.184	27112
820.324	27283
820.465	27226
820.605	27226
820.746	27203
820.886	27055
821.026	27001
821.167	27104
821.307	27123
821.447	27119
821.588	26929
821.728	26887
821.868	26765
822.008	26651
822.149	26530
822.289	26415
822.429	26187
822.569	26176
822.709	26210
822.849	26077
822.99	26065
823.13	26012
823.27	26012
823.41	25719
823.55	25837
823.69	25807
823.83	25879
823.97	25826
824.11	25791
824.25	25575
824.389	25769
824.529	25742
824.669	25639
824.809	25780
824.949	25871
825.089	25795
825.228	25647
825.368	25445
825.508	25506
825.648	25525
825.787	25567
825.927	25681
826.067	25441
826.206	25537
826.346	25616
826.485	25594
826.625	25525
826.765	25620
826.904	25734
827.044	25407
827.183	25266
827.323	25247
827.462	25308
827.601	25384
827.741	25141
827.88	25183
828.02	25164
828.159	25293
828.298	25339
828.437	25297
828.577	25171
828.716	25354
828.855	25126
828.994	24935
829.134	24905
829.273	25088
829.412	25046
829.551	24947
829.69	24992
829.829	25084
829.968	25046
830.107	24966
830.246	24939
830.385	24970
830.524	24856
830.663	24802
830.802	24722
830.941	24574
831.08	24597
831.219	24738
831.357	24631
831.496	24738
831.635	24532
831.774	24566
831.913	24505
832.051	24528
832.19	24433
832.329	24464
832.467	24327
832.606	24254
832.744	24186
832.883	24205
833.022	24140
833.16	24414
833.299	24338
833.437	24243
833.576	24490
833.714	24228
833.852	24467
833.991	24391
834.129	24448
834.267	24414
834.406	24376
834.544	24338
834.682	24315
834.821	24330
834.959	24456
835.097	24258
835.235	24285
835.373	24342
835.511	24220
835.65	24186
835.788	24216
835.926	24007
836.064	23893
836.202	24022
836.34	24102
836.478	24197
836.615	24064
836.753	24167
836.891	24346
837.029	24289
837.167	24098
837.305	24026
837.443	23946
837.58	23931
837.718	23969
837.856	23923
837.993	23870
838.131	24003
838.269	23863
838.406	23863
838.544	23745
838.681	23699
838.819	23638
838.956	23577
839.094	23444
839.231	23490
839.369	23570
839.506	23817
839.643	23748
839.781	23531
839.918	23368
840.055	23547
840.193	23425
840.33	23505
840.467	23391
840.604	23444
840.742	23668
840.879	23318
841.016	23292
841.153	23318
841.29	23528
841.427	23391
841.564	23448
841.701	23349
841.838	23185
841.975	23185
842.112	23250
842.249	23124
842.385	23147
842.522	23288
842.659	23159
842.796	23124
842.933	23117
843.069	23052
843.206	23067
843.343	23098
843.479	23174
843.616	23037
843.752	22915
843.889	22965
844.025	23094
844.162	22934
844.298	22889
844.435	22828
844.571	22835
844.708	22889
844.844	23113
844.98	23064
845.117	22881
845.253	22965
845.389	22831
845.525	22847
845.661	22755
845.798	22577
845.934	22634
846.07	22664
846.206	22649
846.342	22615
846.478	22649
846.614	22516
846.75	22352
846.886	22223
847.022	22516
847.158	22402
847.294	22500
847.429	22310
847.565	22120
847.701	22557
847.837	22097
847.972	22017
848.108	22234
848.244	22109
848.379	22097
848.515	21835
848.65	21827
848.786	22017
848.921	21975
849.057	22093
849.192	22128
849.328	22025
849.463	21975
849.598	21960
849.734	21861
849.869	21880
850.004	21675
850.14	21755
850.275	21743
850.41	21622
850.545	21724
850.68	21641
850.815	21770
850.95	21762
851.085	21827
851.22	21899
851.355	21701
851.49	21671
851.625	21660
851.76	21671
851.895	21660
852.03	21751
852.165	21652
852.299	21789
852.434	21778
852.569	21812
852.703	21736
852.838	21816
852.973	21907
853.107	21922
853.242	21648
853.376	21488
853.511	21416
853.645	21439
853.78	21583
853.914	21538
854.048	21606
854.183	21572
854.317	21568
854.451	21762
854.585	21572
854.72	21606
854.854	21717
854.988	21408
855.122	21606
855.256	21344
855.39	21477
855.524	21625
855.658	21591
855.792	21557
855.926	21534
856.06	21545
856.194	21625
856.327	21603
856.461	21439
856.595	21538
856.729	21545
856.862	21583
856.996	21660
857.13	21717
857.263	21694
857.397	21595
857.53	21507
857.664	21553
857.797	21549
857.931	21675
858.064	21568
858.197	21549
858.331	21599
858.464	21561
858.597	21458
858.731	21329
858.864	21553
858.997	21553
859.13	21511
859.263	21591
859.396	21583
859.529	21488
859.662	21386
859.795	21542
859.928	21568
860.061	21618
860.194	21720
860.327	21572
860.46	21610
860.592	21698
860.725	21713
860.858	21648
860.99	21553
861.123	21500
861.256	21542
861.388	21492
861.521	22173
861.653	21405
861.786	21230
861.918	21393
862.05	21500
862.183	21412
862.315	21488
862.447	21511
862.58	21523
862.712	21230
862.844	21119
862.976	21298
863.108	21249
863.24	21572
863.372	21154
863.504	21207
863.636	21275
863.768	21363
863.9	21157
864.032	21173
864.164	21180
864.296	21241
864.428	21298
864.559	21237
864.691	21389
864.823	21291
864.954	21241
865.086	21306
865.217	21135
865.349	21146
865.48	21165
865.612	21131
865.743	21264
865.875	21173
866.006	21096
866.137	21138
866.269	21283
866.4	21127
866.531	21077
866.662	21013
866.793	21055
866.924	20963
867.055	21066
867.186	21043
867.317	20956
867.448	21062
867.579	20986
867.71	20921
867.841	20921
867.972	21047
868.103	21081
868.233	21112
868.364	21150
868.495	21100
868.625	21230
868.756	21355
868.886	21302
869.017	21135
869.147	21443
869.278	21519
869.408	21355
869.539	21370
869.669	21317
869.799	21310
869.929	21367
870.06	21386
870.19	21694
870.32	21694
870.45	21732
870.58	21625
870.71	21778
870.84	21785
870.97	21759
871.1	21736
871.23	21949
871.36	22070
871.489	21850
871.619	21819
871.749	21812
871.879	21956
872.008	22051
872.138	21876
872.267	22059
872.397	21762
872.526	21812
872.656	21728
872.785	21671
872.915	22086
873.044	22120
873.173	21911
873.303	22036
873.432	21956
873.561	22051
873.69	21979
873.819	21892
873.948	21930
874.077	21972
874.206	21846
874.335	22048
874.464	22128
874.593	22268
874.722	22265
874.851	22135
874.979	22223
875.108	22105
875.237	22147
875.365	22086
875.494	22238
875.623	22109
875.751	22131
875.88	22268
876.008	22272
876.136	22386
876.265	22550
876.393	22740
876.521	22626
876.65	22641
876.778	22626
876.906	22432
877.034	22523
877.162	22580
877.29	22478
877.418	22561
877.546	22466
877.674	22451
877.802	22470
877.93	22531
878.058	22485
878.185	22542
878.313	22485
878.441	22516
878.568	22390
878.696	22462
878.824	22523
878.951	22702
879.079	22786
879.206	22763
879.333	22691
879.461	22584
879.588	22557
879.715	22626
879.842	22847
879.97	22573
880.097	22287
880.224	22356
880.351	22371
880.478	22329
880.605	22325
880.732	22310
880.859	22542
880.986	22322
881.112	22284
881.239	22234
881.366	21998
881.493	22086
881.619	21941
881.746	21949
881.872	21865
881.999	21838
882.125	21876
882.252	21873
882.378	21884
882.505	22067
882.631	21614
882.757	21667
882.883	21724
883.01	21625
883.136	21622
883.262	21568
883.388	21389
883.514	21591
883.64	21679
883.766	21454
883.892	21420
884.018	21507
884.143	21583
884.269	21549
884.395	21260
884.52	21294
884.646	21237
884.772	21245
884.897	21131
885.023	21321
885.148	21336
885.274	21283
885.399	21302
885.524	21207
885.65	21195
885.775	21218
885.9	21214
886.025	21496
886.15	21340
886.275	21180
886.4	21180
886.525	21195
886.65	21260
886.775	21127
886.9	21336
887.025	21481
887.149	21169
887.274	21074
887.399	21093
887.523	21112
887.648	20960
887.773	20872
887.897	21131
888.021	21089
888.146	21005
888.27	21051
888.395	20975
888.519	21047
888.643	21017
888.767	20994
888.891	20868
889.015	20663
889.139	20864
889.263	20731
889.387	20982
889.511	20918
889.635	21013
889.759	20769
889.883	20887
890.006	20792
890.13	20895
890.254	20682
890.377	20701
890.501	20613
890.624	20545
890.748	20625
890.871	20488
890.995	20358
891.118	20374
891.241	20434
891.364	20351
891.488	20499
891.611	20396
891.734	20347
891.857	20526
891.98	20385
892.103	20446
892.226	20442
892.349	20339
892.471	20157
892.594	20298
892.717	20374
892.839	20195
892.962	20278
893.085	20294
893.207	20256
893.33	20298
893.452	20096
893.575	20263
893.697	20149
893.819	20434
893.941	20457
894.064	20469
894.186	20161
894.308	20191
894.43	20252
894.552	20461
894.674	20362
894.796	20180
894.918	20191
895.04	20237
895.161	20294
895.283	20275
895.405	20191
895.526	20313
895.648	20172
895.769	20267
895.891	20328
896.012	20381
896.134	20294
896.255	20244
896.376	20214
896.498	20275
896.619	20339
896.74	20218
896.861	20328
896.982	20541
897.103	20689
897.224	20457
897.345	20564
897.466	20434
897.587	20488
897.708	20663
897.828	20499
897.949	20427
898.07	20358
898.19	20328
898.311	20514
898.431	20454
898.552	20552
898.672	20674
898.792	20598
898.913	20537
899.033	20393
899.153	20237
899.273	20126
899.393	20267
899.513	20294
899.633	20161
899.753	20339
899.873	20084
899.993	20366
900.113	20138
900.232	20191
900.352	20142
900.472	20043
900.591	20008
900.711	20065
900.83	19974
900.95	20077
901.069	20069
901.189	19989
901.308	19704
901.427	19506
901.546	19620
901.665	19571
901.784	19651
901.904	19392
902.023	19453
902.141	19225
902.26	19107
902.379	19244
902.498	19046
902.617	19091
902.735	19114
902.854	19042
902.973	18943
903.091	18711
903.21	18863
903.328	18741
903.446	18646
903.565	18612
903.683	18540
903.801	18452
903.919	18456
904.038	18460
904.156	18292
904.274	18486
904.392	18391
904.51	18273
904.627	18391
904.745	18311
904.863	18334
904.981	18235
905.098	17935
905.216	18007
905.334	18003
905.451	18015
905.569	17961
905.686	18030
905.803	18038
905.921	17863
906.038	17866
906.155	17779
906.272	17710
906.389	17764
906.506	17604
906.623	17497
906.74	17528
906.857	17414
906.974	17444
907.091	17512
907.208	17699
907.324	17638
907.441	17410
907.557	17341
907.674	17269
907.79	17193
907.907	17273
908.023	17235
908.139	17280
908.256	17269
908.372	17216
908.488	17105
908.604	17037
908.72	16896
908.836	16976
908.952	16942
909.068	16885
909.184	17060
909.3	16995
909.415	17029
909.531	16953
909.647	16759
909.762	16698
909.878	16664
909.993	16580
910.108	16660
910.224	16641
910.339	16721
910.454	16527
910.57	16497
910.685	16413
910.8	16713
910.915	16649
911.03	16531
911.145	16360
911.259	16310
911.374	16265
911.489	16181
911.604	16150
911.718	16131
911.833	16067
911.947	15907
912.062	15846
912.176	15994
912.291	15956
912.405	15968
912.519	16116
912.633	16226
912.748	16067
912.862	15994
912.976	15861
913.09	15663
913.204	15816
913.318	15770
913.431	15873
913.545	15895
913.659	15945
913.772	15778
913.886	15660
914	15755
914.113	15694
914.226	15660
914.34	15800
914.453	15534
914.566	15641
914.68	15557
914.793	15492
914.906	15325
915.019	15207
915.132	15146
915.245	15230
915.358	15245
915.47	15272
915.583	15135
915.696	15249
915.809	15302
915.921	15325
916.034	15199
916.146	15131
916.259	15108
916.371	15268
916.483	15268
916.595	15173
916.708	15089
916.82	15039
916.932	15032
917.044	14990
917.156	15020
917.268	14948
917.38	14933
917.491	14845
917.603	14933
917.715	14880
917.826	14979
917.938	14857
918.049	14735
918.161	14891
918.272	15024
918.384	14899
918.495	14739
918.606	14712
918.717	14590
918.828	14659
918.939	14556
919.05	14568
919.161	14697
919.272	14488
919.383	14469
919.494	14640
919.604	14838
919.715	14579
919.826	14598
919.936	14545
920.047	14644
920.157	14575
920.267	14739
920.378	14549
920.488	14522
920.598	14716
920.708	14868
920.818	14670
920.928	14636
921.038	14807
921.148	14773
921.258	14560
921.368	14499
921.477	14393
921.587	14343
921.697	14157
921.806	14396
921.916	14096
922.025	14016
922.134	13989
922.244	13917
922.353	13978
922.462	13826
922.571	13875
922.68	13666
922.789	13609
922.898	13613
923.007	13620
923.116	13719
923.224	13559
923.333	13655
923.442	13483
923.55	13480
923.659	13464
923.767	13514
923.876	13358
923.984	13422
924.092	13346
924.201	13460
924.309	13289
924.417	13301
924.525	13301
924.633	13228
924.741	13959
924.849	13129
924.956	13331
925.064	13133
925.172	13076
925.279	13008
925.387	12989
925.494	13038
925.602	13129
925.709	13091
925.816	12954
925.924	12920
926.031	12981
926.138	12977
926.245	13034
926.352	12920
926.459	13012
926.566	13072
926.673	12928
926.779	12779
926.886	12730
926.993	12662
927.099	12631
927.206	12566
927.312	12509
927.419	12707
927.525	12582
927.631	12525
927.737	12483
927.843	12464
927.95	12258
928.056	12467
928.162	12388
928.267	12498
928.373	13000
928.479	12547
928.585	12235
928.69	12334
928.796	12357
928.901	12292
929.007	12091
929.112	12262
929.218	12296
929.323	12182
929.428	12106
929.533	12224
929.638	12098
929.743	12083
929.848	12110
929.953	12091
930.058	12053
930.163	11847
930.267	11836
930.372	11980
930.477	11783
930.581	12019
930.685	11855
930.79	11752
930.894	11741
930.998	11688
931.103	11783
931.207	11512
931.311	11398
931.415	11254
931.519	11128
931.623	11041
