Data from test_V78500241_1401.txt Node
Date: Fri Mar 25 15:19:36 CST 2022
User: usil
Spectrometer: V785-0024
Trigger mode: 0
Integration Time (sec): 4.000000E-1
Scans to average: 1
Nonlinearity correction enabled: false
Boxcar width: 0
Storing dark spectrum: false
XAxis mode: Wavelengths
Number of Pixels in Spectrum: 1024
>>>>>Begin Spectral Data<<<<<
801.071	28162
801.214	28044
801.356	27732
801.499	27694
801.641	27549
801.783	27656
801.926	27564
802.068	27545
802.211	27633
802.353	27572
802.496	27291
802.638	27264
802.78	27355
802.923	27275
803.065	27321
803.208	27256
803.35	27230
803.492	27477
803.635	27462
803.777	27393
803.919	27568
804.061	27686
804.204	27488
804.346	27553
804.488	27424
804.63	27603
804.773	27568
804.915	27485
805.057	27675
805.199	27511
805.341	27599
805.483	27690
805.626	27557
805.768	27538
805.91	27542
806.052	27682
806.194	27523
806.336	27781
806.478	27549
806.62	27633
806.762	27755
806.904	27926
807.046	28067
807.188	27956
807.33	28162
807.472	28051
807.614	27854
807.756	28044
807.898	27998
808.04	27895
808.182	27907
808.324	27918
808.465	28006
808.607	28097
808.749	28352
808.891	28341
809.033	28386
809.174	28424
809.316	28181
809.458	28382
809.6	28322
809.741	28421
809.883	28577
810.025	28603
810.166	28672
810.308	28577
810.45	28607
810.591	28466
810.733	28462
810.875	28329
811.016	28295
811.158	28211
811.299	28375
811.441	28615
811.582	28443
811.724	28310
811.865	28462
812.007	28162
812.148	28265
812.29	28459
812.431	28508
812.573	28569
812.714	28786
812.855	28904
812.997	28953
813.138	29151
813.279	28946
813.421	28953
813.562	28858
813.703	28736
813.845	28497
813.986	28188
814.127	28048
814.268	27918
814.41	27983
814.551	27956
814.692	28044
814.833	28055
814.974	27892
815.115	27949
815.256	27842
815.397	27956
815.539	27934
815.68	27797
815.821	27717
815.962	27732
816.103	27751
816.244	27599
816.385	27656
816.526	27511
816.666	27389
816.807	27279
816.948	27477
817.089	27466
817.23	27325
817.371	27329
817.512	27344
817.653	27260
817.793	27237
817.934	27306
818.075	27279
818.216	27389
818.356	27340
818.497	27283
818.638	26982
818.778	27093
818.919	27192
819.06	26975
819.2	27176
819.341	27214
819.481	27283
819.622	27450
819.762	27587
819.903	27663
820.043	27439
820.184	27439
820.324	27427
820.465	27686
820.605	27416
820.746	27291
820.886	27272
821.026	27416
821.167	27378
821.307	27431
821.447	27214
821.588	27218
821.728	27066
821.868	26979
822.008	26830
822.149	26823
822.289	26731
822.429	26492
822.569	26427
822.709	26305
822.849	26366
822.99	26415
823.13	26206
823.27	26183
823.41	26199
823.55	26027
823.69	26073
823.83	26012
823.97	26130
824.11	25826
824.25	26008
824.389	25890
824.529	26024
824.669	25864
824.809	26134
824.949	26039
825.089	25974
825.228	25936
825.368	25799
825.508	25788
825.648	25807
825.787	25906
825.927	25868
826.067	25811
826.206	25784
826.346	25852
826.485	25940
826.625	25708
826.765	25921
826.904	25727
827.044	25548
827.183	25609
827.323	25472
827.462	25525
827.601	25518
827.741	25571
827.88	25689
828.02	25415
828.159	25491
828.298	25563
828.437	25491
828.577	25468
828.716	25601
828.855	25438
828.994	25232
829.134	25324
829.273	25270
829.412	25209
829.551	25244
829.69	25278
829.829	25266
829.968	25304
830.107	25194
830.246	25164
830.385	25183
830.524	25129
830.663	25061
830.802	24859
830.941	24821
831.08	24802
831.219	24787
831.357	24901
831.496	25069
831.635	24776
831.774	24878
831.913	24654
832.051	24688
832.19	24673
832.329	24707
832.467	24525
832.606	24464
832.744	24426
832.883	24486
833.022	24334
833.16	24551
833.299	24521
833.437	24555
833.576	24669
833.714	24517
833.852	24582
833.991	24661
834.129	24703
834.267	24604
834.406	24570
834.544	24574
834.682	24639
834.821	24498
834.959	24760
835.097	24642
835.235	24627
835.373	24555
835.511	24479
835.65	24525
835.788	24403
835.926	24289
836.064	24205
836.202	24125
836.34	24338
836.478	24566
836.615	24475
836.753	24513
836.891	24513
837.029	24467
837.167	24327
837.305	24258
837.443	24254
837.58	24281
837.718	24247
837.856	24285
837.993	23984
838.131	24171
838.269	24076
838.406	24117
838.544	24125
838.681	23866
838.819	23821
838.956	23756
839.094	23646
839.231	23764
839.369	23912
839.506	23988
839.643	23996
839.781	23512
839.918	23657
840.055	23672
840.193	23665
840.33	23604
840.467	23604
840.604	23665
840.742	23809
840.879	23402
841.016	23600
841.153	23490
841.29	23619
841.427	23619
841.564	23543
841.701	23581
841.838	23642
841.975	23531
842.112	23497
842.249	23509
842.385	23337
842.522	23623
842.659	23592
842.796	23341
842.933	23356
843.069	23322
843.206	23497
843.343	23444
843.479	23303
843.616	23353
843.752	23117
843.889	23098
844.025	23288
844.162	23075
844.298	23246
844.435	23109
844.571	23086
844.708	23227
844.844	23227
844.98	23166
845.117	23265
845.253	23052
845.389	22980
845.525	23060
845.661	23006
845.798	22843
845.934	22995
846.07	22858
846.206	22911
846.342	23083
846.478	23003
846.614	22607
846.75	22512
846.886	22531
847.022	22618
847.158	22599
847.294	22538
847.429	22740
847.565	22542
847.701	22843
847.837	22318
847.972	22299
848.108	22424
848.244	22402
848.379	22166
848.515	22219
848.65	22181
848.786	22242
848.921	22200
849.057	22280
849.192	22348
849.328	22124
849.463	22207
849.598	22059
849.734	22090
849.869	22036
850.004	22006
850.14	22010
850.275	22029
850.41	21842
850.545	21937
850.68	21987
850.815	21888
850.95	21884
851.085	22181
851.22	22055
851.355	21945
851.49	21827
851.625	21861
851.76	21975
851.895	21911
852.03	21903
852.165	22017
852.299	21857
852.434	22070
852.569	21945
852.703	21922
852.838	22074
852.973	22029
853.107	22063
853.242	21907
853.376	21907
853.511	21785
853.645	21770
853.78	21884
853.914	21736
854.048	21736
854.183	21812
854.317	21778
854.451	21956
854.585	21808
854.72	21675
854.854	21846
854.988	21781
855.122	21911
855.256	21641
855.39	21762
855.524	21804
855.658	21835
855.792	21789
855.926	21793
856.06	21831
856.194	21861
856.327	21956
856.461	21637
856.595	21804
856.729	21876
856.862	21907
856.996	21793
857.13	21816
857.263	21953
857.397	21842
857.53	21736
857.664	21797
857.797	21797
857.931	21884
858.064	21793
858.197	21816
858.331	21656
858.464	21739
858.597	21747
858.731	21774
858.864	21747
858.997	21698
859.13	21755
859.263	21812
859.396	21812
859.529	21679
859.662	21785
859.795	21789
859.928	21831
860.061	21911
860.194	21968
860.327	21755
860.46	21800
860.592	21987
860.725	21892
860.858	21785
860.99	21755
861.123	21652
861.256	21713
861.388	21759
861.521	22284
861.653	21618
861.786	21454
861.918	21679
862.05	21633
862.183	21717
862.315	21709
862.447	21713
862.58	21698
862.712	21424
862.844	21576
862.976	21519
863.108	21523
863.24	21956
863.372	21302
863.504	21466
863.636	21348
863.768	21549
863.9	21431
864.032	21420
864.164	21412
864.296	21572
864.428	21538
864.559	21473
864.691	21587
864.823	21389
864.954	21564
865.086	21435
865.217	21431
865.349	21279
865.48	21325
865.612	21340
865.743	21511
865.875	21386
866.006	21359
866.137	21370
866.269	21351
866.4	21481
866.531	21313
866.662	21298
866.793	21241
866.924	21264
867.055	21260
867.186	21291
867.317	21291
867.448	21108
867.579	21249
867.71	21275
867.841	21157
867.972	21218
868.103	21336
868.233	21359
868.364	21203
868.495	21397
868.625	21606
868.756	21641
868.886	21576
869.017	21523
869.147	21656
869.278	21641
869.408	21511
869.539	21485
869.669	21637
869.799	21644
869.929	21648
870.06	21694
870.19	21915
870.32	21751
870.45	21865
870.58	21873
870.71	21987
870.84	21922
870.97	21888
871.1	21945
871.23	22074
871.36	22051
871.489	21915
871.619	22086
871.749	22055
871.879	22135
872.008	22287
872.138	22162
872.267	22074
872.397	21823
872.526	21926
872.656	21979
872.785	21987
872.915	22093
873.044	22249
873.173	22211
873.303	22147
873.432	22200
873.561	22154
873.69	22105
873.819	22280
873.948	22230
874.077	22116
874.206	21983
874.335	22097
874.464	22223
874.593	22405
874.722	22238
874.851	22291
874.979	22432
875.108	22421
875.237	22284
875.365	22242
875.494	22337
875.623	22306
875.751	22246
875.88	22265
876.008	22447
876.136	22512
876.265	22725
876.393	22885
876.521	22843
876.65	22889
876.778	22653
876.906	22607
877.034	22752
877.162	22706
877.29	22577
877.418	22744
877.546	22717
877.674	22653
877.802	22763
877.93	22755
878.058	22618
878.185	22687
878.313	22485
878.441	22694
878.568	22497
878.696	22554
878.824	22755
878.951	22847
879.079	22736
879.206	22999
879.333	22858
879.461	22713
879.588	22949
879.715	22923
879.842	23006
879.97	22687
880.097	22459
880.224	22546
880.351	22367
880.478	22451
880.605	22523
880.732	22538
880.859	22710
880.986	22474
881.112	22550
881.239	22348
881.366	22329
881.493	22173
881.619	22150
881.746	21998
881.872	22044
881.999	22067
882.125	22040
882.252	22200
882.378	21979
882.505	21968
882.631	21918
882.757	21831
882.883	21812
883.01	21842
883.136	21789
883.262	21568
883.388	21656
883.514	21823
883.64	21804
883.766	21770
883.892	21564
884.018	21534
884.143	21800
884.269	21709
884.395	21496
884.52	21317
884.646	21393
884.772	21317
884.897	21344
885.023	21488
885.148	21458
885.274	21572
885.399	21447
885.524	21378
885.65	21462
885.775	21405
885.9	21355
886.025	21515
886.15	21530
886.275	21386
886.4	21291
886.525	21374
886.65	21325
886.775	21222
886.9	21523
887.025	21526
887.149	21374
887.274	21184
887.399	21252
887.523	21081
887.648	21123
887.773	20967
887.897	21344
888.021	21207
888.146	21116
888.27	21283
888.395	21264
888.519	21176
888.643	21157
888.767	21233
888.891	21119
889.015	20990
889.139	21001
889.263	20929
889.387	21066
889.511	21176
889.635	21146
889.759	20895
889.883	21009
890.006	21051
890.13	21138
890.254	20864
890.377	20872
890.501	20727
890.624	20754
890.748	20724
890.871	20716
890.995	20503
891.118	20484
891.241	20511
891.364	20545
891.488	20625
891.611	20423
891.734	20480
891.857	20594
891.98	20408
892.103	20667
892.226	20400
892.349	20377
892.471	20286
892.594	20465
892.717	20503
892.839	20438
892.962	20366
893.085	20530
893.207	20461
893.33	20298
893.452	20404
893.575	20427
893.697	20336
893.819	20533
893.941	20549
894.064	20560
894.186	20484
894.308	20339
894.43	20503
894.552	20632
894.674	20530
894.796	20309
894.918	20476
895.04	20374
895.161	20389
895.283	20446
895.405	20259
895.526	20495
895.648	20358
895.769	20427
895.891	20518
896.012	20438
896.134	20427
896.255	20396
896.376	20358
896.498	20317
896.619	20396
896.74	20434
896.861	20495
896.982	20716
897.103	20804
897.224	20636
897.345	20693
897.466	20613
897.587	20689
897.708	20648
897.828	20705
897.949	20659
898.07	20396
898.19	20613
898.311	20739
898.431	20590
898.552	20632
898.672	20587
898.792	20663
898.913	20674
899.033	20575
899.153	20484
899.273	20339
899.393	20404
899.513	20423
899.633	20317
899.753	20355
899.873	20415
899.993	20282
900.113	20309
900.232	20415
900.352	20267
900.472	20218
900.591	20107
900.711	20237
900.83	20145
900.95	20294
901.069	20256
901.189	20027
901.308	19830
901.427	19734
901.546	19765
901.665	19738
901.784	19685
901.904	19628
902.023	19525
902.141	19266
902.26	19278
902.379	19190
902.498	19160
902.617	19244
902.735	19217
902.854	19217
902.973	19168
903.091	18954
903.21	18890
903.328	18943
903.446	18779
903.565	18722
903.683	18734
903.801	18593
903.919	18730
904.038	18715
904.156	18460
904.274	18555
904.392	18391
904.51	18395
904.627	18414
904.745	18403
904.863	18517
904.981	18277
905.098	18125
905.216	18136
905.334	18125
905.451	18140
905.569	18186
905.686	18136
905.803	18190
905.921	17950
906.038	18011
906.155	17885
906.272	17882
906.389	17733
906.506	17661
906.623	17767
906.74	17726
906.857	17516
906.974	17490
907.091	17741
907.208	17847
907.324	17733
907.441	17562
907.557	17539
907.674	17512
907.79	17349
907.907	17341
908.023	17436
908.139	17364
908.256	17318
908.372	17334
908.488	17265
908.604	17216
908.72	16995
908.836	17204
908.952	17102
909.068	17109
909.184	17277
909.3	17147
909.415	17223
909.531	17159
909.647	16805
909.762	16854
909.878	16930
909.993	16908
910.108	16729
910.224	16797
910.339	16816
910.454	16717
910.57	16672
910.685	16512
910.8	16885
910.915	16653
911.03	16588
911.145	16466
911.259	16504
911.374	16497
911.489	16363
911.604	16337
911.718	16211
911.833	16158
911.947	16021
912.062	15937
912.176	16143
912.291	16173
912.405	16147
912.519	16249
912.633	16375
912.748	16219
912.862	16124
912.976	16158
913.09	15895
913.204	16021
913.318	15953
913.431	15949
913.545	16025
913.659	16025
913.772	15846
913.886	15762
914	15835
914.113	15835
914.226	15842
914.34	15854
914.453	15724
914.566	15842
914.68	15709
914.793	15610
914.906	15504
915.019	15428
915.132	15306
915.245	15340
915.358	15283
915.47	15447
915.583	15447
915.696	15317
915.809	15500
915.921	15500
916.034	15348
916.146	15336
916.259	15283
916.371	15245
916.483	15340
916.595	15199
916.708	15218
916.82	15226
916.932	15119
917.044	15138
917.156	15119
917.268	14994
917.38	15009
917.491	15077
917.603	14967
917.715	15100
917.826	15066
917.938	15009
918.049	14876
918.161	14975
918.272	15055
918.384	15051
918.495	14880
918.606	14971
918.717	14670
918.828	14872
918.939	14864
919.05	14697
919.161	14708
919.272	14568
919.383	14693
919.494	14773
919.604	14944
919.715	14777
919.826	14670
919.936	14712
920.047	14804
920.157	14804
920.267	14887
920.378	14746
920.488	14693
920.598	14883
920.708	14941
920.818	14811
920.928	14773
921.038	14990
921.148	14963
921.258	14727
921.368	14514
921.477	14492
921.587	14480
921.697	14393
921.806	14423
921.916	14282
922.025	14149
922.134	14027
922.244	14065
922.353	14073
922.462	14020
922.571	13974
922.68	13734
922.789	13818
922.898	13791
923.007	13662
923.116	13849
923.224	13700
923.333	13674
923.442	13666
923.55	13578
923.659	13556
923.767	13666
923.876	13514
923.984	13556
924.092	13510
924.201	13483
924.309	13400
924.417	13396
924.525	13373
924.633	13457
924.741	14183
924.849	13179
924.956	13240
925.064	13213
925.172	13126
925.279	13095
925.387	13213
925.494	13149
925.602	13206
925.709	13118
925.816	13103
925.924	13050
926.031	13118
926.138	13088
926.245	13095
926.352	12977
926.459	13118
926.566	13114
926.673	13023
926.779	12989
926.886	12954
926.993	12658
927.099	12650
927.206	12631
927.312	12692
927.419	12814
927.525	12726
927.631	12806
927.737	12639
927.843	12521
927.95	12365
928.056	12563
928.162	12441
928.267	12570
928.373	13228
928.479	12646
928.585	12429
928.69	12494
928.796	12532
928.901	12369
929.007	12251
929.112	12391
929.218	12414
929.323	12251
929.428	12155
929.533	12380
929.638	12216
929.743	12205
929.848	12323
929.953	12148
930.058	12125
930.163	11916
930.267	12019
930.372	12034
930.477	11889
930.581	12133
930.685	12030
930.79	11824
930.894	11874
930.998	11805
931.103	11939
931.207	11558
931.311	11532
931.415	11372
931.519	11239
931.623	11147
