Data from test_V78500241_899.txt Node
Date: Fri Mar 25 15:16:07 CST 2022
User: usil
Spectrometer: V785-0024
Trigger mode: 0
Integration Time (sec): 4.000000E-1
Scans to average: 1
Nonlinearity correction enabled: false
Boxcar width: 0
Storing dark spectrum: false
XAxis mode: Wavelengths
Number of Pixels in Spectrum: 1024
>>>>>Begin Spectral Data<<<<<
801.071	28090
801.214	28074
801.356	27918
801.499	27838
801.641	27724
801.783	27831
801.926	27789
802.068	27720
802.211	27690
802.353	27580
802.496	27439
802.638	27382
802.78	27504
802.923	27264
803.065	27469
803.208	27374
803.35	27431
803.492	27523
803.635	27583
803.777	27427
803.919	27561
804.061	27850
804.204	27739
804.346	27317
804.488	27568
804.63	27637
804.773	27701
804.915	27766
805.057	27701
805.199	27823
805.341	27770
805.483	27854
805.626	27835
805.768	27595
805.91	27755
806.052	27800
806.194	27736
806.336	28128
806.478	27808
806.62	27827
806.762	27865
806.904	28135
807.046	28215
807.188	28166
807.33	28185
807.472	28158
807.614	28226
807.756	28105
807.898	28150
808.04	27930
808.182	28086
808.324	28154
808.465	28135
808.607	28207
808.749	28413
808.891	28485
809.033	28512
809.174	28512
809.316	28584
809.458	28535
809.6	28432
809.741	28557
809.883	28569
810.025	28710
810.166	28809
810.308	28687
810.45	28561
810.591	28634
810.733	28440
810.875	28409
811.016	28367
811.158	28367
811.299	28626
811.441	28516
811.582	28649
811.724	28451
811.865	28447
812.007	28497
812.148	28462
812.29	28596
812.431	28694
812.573	28736
812.714	28949
812.855	28991
812.997	29166
813.138	29105
813.279	29071
813.421	28812
813.562	29029
813.703	28923
813.845	28649
813.986	28580
814.127	28253
814.268	28226
814.41	28265
814.551	28143
814.692	28192
814.833	28249
814.974	28086
815.115	28116
815.256	28112
815.397	28150
815.539	28013
815.68	28002
815.821	27873
815.962	27960
816.103	27914
816.244	27884
816.385	27778
816.526	27770
816.666	27652
816.807	27378
816.948	27564
817.089	27561
817.23	27694
817.371	27542
817.512	27507
817.653	27534
817.793	27462
817.934	27591
818.075	27481
818.216	27542
818.356	27355
818.497	27264
818.638	27393
818.778	27313
818.919	27256
819.06	27302
819.2	27526
819.341	27481
819.481	27606
819.622	27766
819.762	27774
819.903	27709
820.043	27595
820.184	27667
820.324	27614
820.465	27732
820.605	27469
820.746	27519
820.886	27549
821.026	27542
821.167	27485
821.307	27629
821.447	27515
821.588	27382
821.728	27199
821.868	27116
822.008	27032
822.149	26979
822.289	26788
822.429	26796
822.569	26792
822.709	26682
822.849	26518
822.99	26480
823.13	26533
823.27	26434
823.41	26320
823.55	26180
823.69	26358
823.83	26286
823.97	26298
824.11	26130
824.25	26115
824.389	26027
824.529	26244
824.669	26081
824.809	26362
824.949	26256
825.089	26172
825.228	26126
825.368	25940
825.508	25883
825.648	25909
825.787	25947
825.927	26016
826.067	25951
826.206	26031
826.346	26130
826.485	25978
826.625	25982
826.765	26027
826.904	25947
827.044	25590
827.183	25723
827.323	25620
827.462	25712
827.601	25719
827.741	25818
827.88	25784
828.02	25605
828.159	25719
828.298	25780
828.437	25856
828.577	25765
828.716	25746
828.855	25632
828.994	25499
829.134	25419
829.273	25453
829.412	25441
829.551	25324
829.69	25369
829.829	25422
829.968	25384
830.107	25575
830.246	25377
830.385	25202
830.524	25407
830.663	25255
830.802	25297
830.941	25107
831.08	24962
831.219	25228
831.357	25118
831.496	25103
831.635	25061
831.774	24947
831.913	24814
832.051	24719
832.19	24734
832.329	24890
832.467	24738
832.606	24601
832.744	24692
832.883	24764
833.022	24688
833.16	24681
833.299	24677
833.437	24840
833.576	24764
833.714	24730
833.852	24726
833.991	24787
834.129	24905
834.267	24810
834.406	24848
834.544	24863
834.682	24700
834.821	24700
834.959	24730
835.097	24734
835.235	24734
835.373	24658
835.511	24684
835.65	24608
835.788	24681
835.926	24441
836.064	24433
836.202	24536
836.34	24578
836.478	24642
836.615	24604
836.753	24601
836.891	24566
837.029	24559
837.167	24620
837.305	24654
837.443	24456
837.58	24517
837.718	24422
837.856	24445
837.993	24498
838.131	24456
838.269	24205
838.406	24342
838.544	24171
838.681	24140
838.819	24076
838.956	24003
839.094	23901
839.231	24053
839.369	24098
839.506	24369
839.643	24232
839.781	23935
839.918	23809
840.055	23882
840.193	23847
840.33	23863
840.467	23901
840.604	23809
840.742	24152
840.879	23703
841.016	23741
841.153	23786
841.29	23931
841.427	23783
841.564	23859
841.701	23748
841.838	23786
841.975	23752
842.112	23630
842.249	23467
842.385	23505
842.522	23836
842.659	23600
842.796	23592
842.933	23551
843.069	23543
843.206	23486
843.343	23638
843.479	23543
843.616	23623
843.752	23436
843.889	23406
844.025	23444
844.162	23444
844.298	23474
844.435	23368
844.571	23414
844.708	23315
844.844	23452
844.98	23429
845.117	23463
845.253	23231
845.389	23242
845.525	23189
845.661	23014
845.798	23033
845.934	23185
846.07	23060
846.206	23113
846.342	23178
846.478	23086
846.614	22896
846.75	22809
846.886	22881
847.022	22885
847.158	22801
847.294	22854
847.429	22927
847.565	22904
847.701	23060
847.837	22352
847.972	22599
848.108	22565
848.244	22603
848.379	22615
848.515	22386
848.65	22348
848.786	22390
848.921	22367
849.057	22611
849.192	22478
849.328	22405
849.463	22405
849.598	22333
849.734	22253
849.869	22230
850.004	22093
850.14	22105
850.275	22276
850.41	22051
850.545	22166
850.68	22226
850.815	22211
850.95	22097
851.085	22356
851.22	22325
851.355	22185
851.49	22131
851.625	22150
851.76	22070
851.895	22109
852.03	22124
852.165	22154
852.299	22242
852.434	22219
852.569	22162
852.703	22101
852.838	22249
852.973	22344
853.107	22314
853.242	22139
853.376	22006
853.511	21945
853.645	21911
853.78	22135
853.914	21907
854.048	21934
854.183	21983
854.317	22181
854.451	22169
854.585	22017
854.72	21998
854.854	22025
854.988	21770
855.122	22070
855.256	21804
855.39	21930
855.524	21979
855.658	21941
855.792	22074
855.926	22032
856.06	22044
856.194	22078
856.327	21888
856.461	21888
856.595	22013
856.729	21987
856.862	22135
856.996	21930
857.13	21968
857.263	22082
857.397	22044
857.53	21975
857.664	21945
857.797	22093
857.931	22013
858.064	22032
858.197	22010
858.331	22010
858.464	21926
858.597	21960
858.731	22029
858.864	21907
858.997	21975
859.13	22006
859.263	21998
859.396	22036
859.529	21903
859.662	21960
859.795	21850
859.928	21915
860.061	22135
860.194	22253
860.327	21987
860.46	21983
860.592	21983
860.725	22162
860.858	22105
860.99	22025
861.123	21789
861.256	21945
861.388	22002
861.521	22767
861.653	21770
861.786	21808
861.918	21861
862.05	21873
862.183	21812
862.315	22002
862.447	22070
862.58	21941
862.712	21705
862.844	21667
862.976	21759
863.108	21808
863.24	22044
863.372	21625
863.504	21629
863.636	21603
863.768	21675
863.9	21694
864.032	21580
864.164	21667
864.296	21648
864.428	21720
864.559	21739
864.691	21728
864.823	21739
864.954	21694
865.086	21682
865.217	21656
865.349	21526
865.48	21603
865.612	21553
865.743	21713
865.875	21504
866.006	21507
866.137	21496
866.269	21447
866.4	21519
866.531	21504
866.662	21447
866.793	21431
866.924	21587
867.055	21477
867.186	21545
867.317	21386
867.448	21462
867.579	21412
867.71	21363
867.841	21401
867.972	21447
868.103	21462
868.233	21561
868.364	21496
868.495	21568
868.625	21603
868.756	21911
868.886	21641
869.017	21755
869.147	21793
869.278	21812
869.408	21827
869.539	21774
869.669	21850
869.799	21819
869.929	21983
870.06	21823
870.19	21926
870.32	22013
870.45	22044
870.58	22124
870.71	22188
870.84	22287
870.97	22139
871.1	22040
871.23	22341
871.36	22356
871.489	22268
871.619	22306
871.749	22413
871.879	22291
872.008	22478
872.138	22314
872.267	22265
872.397	22158
872.526	22150
872.656	22200
872.785	22246
872.915	22276
873.044	22379
873.173	22337
873.303	22500
873.432	22348
873.561	22440
873.69	22424
873.819	22371
873.948	22356
874.077	22436
874.206	22280
874.335	22238
874.464	22580
874.593	22577
874.722	22440
874.851	22607
874.979	22531
875.108	22656
875.237	22561
875.365	22512
875.494	22474
875.623	22660
875.751	22565
875.88	22538
876.008	22596
876.136	22618
876.265	23014
876.393	23037
876.521	23109
876.65	23033
876.778	22881
876.906	22858
877.034	22805
877.162	22847
877.29	22725
877.418	22984
877.546	22946
877.674	22946
877.802	22847
877.93	22854
878.058	22710
878.185	22771
878.313	22915
878.441	22885
878.568	22725
878.696	22801
878.824	22885
878.951	22972
879.079	23056
879.206	23151
879.333	23086
879.461	22889
879.588	22999
879.715	23037
879.842	23239
879.97	22999
880.097	22782
880.224	22733
880.351	22675
880.478	22725
880.605	22725
880.732	22717
880.859	22759
880.986	22774
881.112	22733
881.239	22641
881.366	22447
881.493	22223
881.619	22337
881.746	22333
881.872	22238
881.999	22181
882.125	22356
882.252	22287
882.378	22238
882.505	22249
882.631	22230
882.757	22021
882.883	22029
883.01	21968
883.136	21857
883.262	21857
883.388	21991
883.514	22021
883.64	21991
883.766	21842
883.892	21667
884.018	21747
884.143	21998
884.269	22006
884.395	21720
884.52	21587
884.646	21561
884.772	21595
884.897	21507
885.023	21614
885.148	21656
885.274	21701
885.399	21713
885.524	21561
885.65	21500
885.775	21606
885.9	21595
886.025	21724
886.15	21724
886.275	21504
886.4	21504
886.525	21557
886.65	21526
886.775	21519
886.9	21698
887.025	21835
887.149	21580
887.274	21466
887.399	21359
887.523	21408
887.648	21329
887.773	21370
887.897	21424
888.021	21564
888.146	21279
888.27	21397
888.395	21378
888.519	21420
888.643	21340
888.767	21389
888.891	21165
889.015	21157
889.139	21256
889.263	21108
889.387	21313
889.511	21439
889.635	21332
889.759	21203
889.883	21131
890.006	21161
890.13	21180
890.254	21188
890.377	21024
890.501	20948
890.624	20838
890.748	20921
890.871	20868
890.995	20758
891.118	20716
891.241	20659
891.364	20636
891.488	20826
891.611	20781
891.734	20686
891.857	20826
891.98	20731
892.103	20697
892.226	20743
892.349	20712
892.471	20571
892.594	20556
892.717	20758
892.839	20625
892.962	20598
893.085	20625
893.207	20526
893.33	20495
893.452	20602
893.575	20579
893.697	20629
893.819	20800
893.941	20777
894.064	20796
894.186	20507
894.308	20530
894.43	20617
894.552	20727
894.674	20568
894.796	20602
894.918	20598
895.04	20670
895.161	20579
895.283	20583
895.405	20526
895.526	20594
895.648	20568
895.769	20632
895.891	20560
896.012	20674
896.134	20541
896.255	20602
896.376	20667
896.498	20568
896.619	20583
896.74	20507
896.861	20682
896.982	20906
897.103	21146
897.224	20887
897.345	20800
897.466	20804
897.587	20731
897.708	20838
897.828	20731
897.949	20667
898.07	20621
898.19	20864
898.311	20998
898.431	20807
898.552	20887
898.672	20857
898.792	20952
898.913	20796
899.033	20735
899.153	20682
899.273	20423
899.393	20636
899.513	20602
899.633	20495
899.753	20526
899.873	20450
899.993	20598
900.113	20511
900.232	20434
900.352	20469
900.472	20469
900.591	20313
900.711	20507
900.83	20336
900.95	20366
901.069	20339
901.189	20267
901.308	20008
901.427	19982
901.546	20012
901.665	19917
901.784	19906
901.904	19712
902.023	19651
902.141	19533
902.26	19388
902.379	19609
902.498	19312
902.617	19449
902.735	19480
902.854	19259
902.973	19362
903.091	19152
903.21	19148
903.328	19152
903.446	18905
903.565	18821
903.683	19031
903.801	18760
903.919	18867
904.038	18837
904.156	18559
904.274	18859
904.392	18631
904.51	18616
904.627	18532
904.745	18703
904.863	18574
904.981	18551
905.098	18239
905.216	18426
905.334	18239
905.451	18277
905.569	18281
905.686	18308
905.803	18213
905.921	18110
906.038	18254
906.155	18136
906.272	17984
906.389	18091
906.506	17859
906.623	17901
906.74	17840
906.857	17680
906.974	17691
907.091	17798
907.208	18060
907.324	17916
907.441	17783
907.557	17684
907.674	17532
907.79	17490
907.907	17543
908.023	17535
908.139	17532
908.256	17547
908.372	17493
908.488	17467
908.604	17455
908.72	17246
908.836	17318
908.952	17147
909.068	17227
909.184	17299
909.3	17299
909.415	17311
909.531	17277
909.647	17033
909.762	17022
909.878	16934
909.993	16987
910.108	16987
910.224	16946
910.339	16976
910.454	16892
910.57	16759
910.685	16691
910.8	16953
910.915	16930
911.03	16790
911.145	16694
911.259	16603
911.374	16577
911.489	16588
911.604	16523
911.718	16379
911.833	16257
911.947	16257
912.062	16112
912.176	16306
912.291	16333
912.405	16272
912.519	16421
912.633	16558
912.748	16287
912.862	16268
912.976	16158
913.09	16090
913.204	16067
913.318	16063
913.431	16268
913.545	16139
913.659	16173
913.772	16162
913.886	15960
914	15892
914.113	15975
914.226	16036
914.34	15918
914.453	15732
914.566	15907
914.68	15770
914.793	15694
914.906	15610
915.019	15557
915.132	15443
915.245	15473
915.358	15564
915.47	15526
915.583	15481
915.696	15519
915.809	15561
915.921	15641
916.034	15500
916.146	15340
916.259	15435
916.371	15538
916.483	15466
916.595	15473
916.708	15397
916.82	15336
916.932	15173
917.044	15260
917.156	15344
917.268	15154
917.38	15138
917.491	15131
917.603	15154
917.715	15233
917.826	15291
917.938	15047
918.049	14986
918.161	15017
918.272	15192
918.384	15283
918.495	14979
918.606	14895
918.717	14727
918.828	14906
918.939	15005
919.05	14746
919.161	15058
919.272	14716
919.383	14617
919.494	14891
919.604	15085
919.715	14849
919.826	14777
919.936	14902
920.047	14872
920.157	14811
920.267	15028
920.378	14849
920.488	14781
920.598	15032
920.708	15077
920.818	14990
920.928	14975
921.038	15131
921.148	15047
921.258	14743
921.368	14735
921.477	14610
921.587	14499
921.697	14442
921.806	14568
921.916	14415
922.025	14183
922.134	14199
922.244	14126
922.353	14191
922.462	14096
922.571	14031
922.68	13826
922.789	13814
922.898	13875
923.007	13936
923.116	13864
923.224	13830
923.333	13883
923.442	13689
923.55	13750
923.659	13723
923.767	13723
923.876	13666
923.984	13772
924.092	13556
924.201	13594
924.309	13578
924.417	13628
924.525	13575
924.633	13544
924.741	14218
924.849	13304
924.956	13441
925.064	13324
925.172	13263
925.279	13244
925.387	13316
925.494	13289
925.602	13316
925.709	13335
925.816	13126
925.924	13274
926.031	13255
926.138	13266
926.245	13228
926.352	13187
926.459	13228
926.566	13187
926.673	13152
926.779	12935
926.886	13012
926.993	12875
927.099	12806
927.206	12779
927.312	12753
927.419	12829
927.525	12852
927.631	12772
927.737	12684
927.843	12726
927.95	12460
928.056	12627
928.162	12631
928.267	12741
928.373	13198
928.479	12646
928.585	12536
928.69	12521
928.796	12570
928.901	12407
929.007	12277
929.112	12456
929.218	12391
929.323	12388
929.428	12243
929.533	12429
929.638	12201
929.743	12266
929.848	12346
929.953	12296
930.058	12110
930.163	12019
930.267	12034
930.372	12129
930.477	12057
930.581	12213
930.685	12106
930.79	11874
930.894	11935
930.998	11901
931.103	11939
931.207	11638
931.311	11592
931.415	11592
931.519	11261
931.623	11227
