Data from test_V78500241_856.txt Node
Date: Fri Mar 25 15:15:49 CST 2022
User: usil
Spectrometer: V785-0024
Trigger mode: 0
Integration Time (sec): 4.000000E-1
Scans to average: 1
Nonlinearity correction enabled: false
Boxcar width: 0
Storing dark spectrum: false
XAxis mode: Wavelengths
Number of Pixels in Spectrum: 1024
>>>>>Begin Spectral Data<<<<<
801.071	28329
801.214	28249
801.356	28063
801.499	27956
801.641	27800
801.783	27785
801.926	27892
802.068	27789
802.211	27545
802.353	27686
802.496	27492
802.638	27583
802.78	27420
802.923	27412
803.065	27397
803.208	27542
803.35	27545
803.492	27614
803.635	27789
803.777	27610
803.919	27641
804.061	28090
804.204	27633
804.346	27633
804.488	27549
804.63	27743
804.773	27610
804.915	27766
805.057	27861
805.199	27641
805.341	27819
805.483	27918
805.626	27816
805.768	27682
805.91	27603
806.052	27854
806.194	27698
806.336	28040
806.478	27960
806.62	27892
806.762	27846
806.904	28128
807.046	28394
807.188	28329
807.33	28150
807.472	28314
807.614	28238
807.756	28314
807.898	28181
808.04	27903
808.182	27983
808.324	28124
808.465	28268
808.607	28466
808.749	28470
808.891	28656
809.033	28565
809.174	28493
809.316	28371
809.458	28329
809.6	28557
809.741	28649
809.883	28687
810.025	28831
810.166	28797
810.308	28877
810.45	28904
810.591	28721
810.733	28565
810.875	28481
811.016	28436
811.158	28409
811.299	28596
811.441	28668
811.582	28588
811.724	28504
811.865	28519
812.007	28516
812.148	28436
812.29	28596
812.431	28653
812.573	28767
812.714	29056
812.855	29090
812.997	29239
813.138	29277
813.279	29299
813.421	29003
813.562	29105
813.703	28843
813.845	28679
813.986	28459
814.127	28466
814.268	28192
814.41	28166
814.551	28219
814.692	28356
814.833	28185
814.974	28143
815.115	28173
815.256	28093
815.397	28181
815.539	28177
815.68	27968
815.821	27979
815.962	28044
816.103	28032
816.244	27903
816.385	27831
816.526	27884
816.666	27603
816.807	27542
816.948	27641
817.089	27648
817.23	27530
817.371	27500
817.512	27663
817.653	27538
817.793	27526
817.934	27511
818.075	27500
818.216	27599
818.356	27652
818.497	27439
818.638	27218
818.778	27287
818.919	27173
819.06	27447
819.2	27374
819.341	27481
819.481	27492
819.622	27682
819.762	27842
819.903	27713
820.043	27800
820.184	27671
820.324	27667
820.465	27755
820.605	27663
820.746	27561
820.886	27515
821.026	27644
821.167	27648
821.307	27652
821.447	27629
821.588	27553
821.728	27317
821.868	27085
822.008	27005
822.149	26902
822.289	27005
822.429	26750
822.569	26663
822.709	26655
822.849	26499
822.99	26461
823.13	26526
823.27	26400
823.41	26328
823.55	26336
823.69	26381
823.83	26278
823.97	26358
824.11	26157
824.25	26107
824.389	26161
824.529	26305
824.669	26206
824.809	26244
824.949	26298
825.089	26218
825.228	26134
825.368	26084
825.508	26043
825.648	26005
825.787	26126
825.927	26187
826.067	25921
826.206	26176
826.346	26199
826.485	25978
826.625	26016
826.765	26084
826.904	26062
827.044	25704
827.183	25788
827.323	25639
827.462	25822
827.601	25750
827.741	25776
827.88	25765
828.02	25750
828.159	25788
828.298	25693
828.437	25799
828.577	25849
828.716	25784
828.855	25715
828.994	25514
829.134	25415
829.273	25559
829.412	25525
829.551	25502
829.69	25495
829.829	25483
829.968	25518
830.107	25548
830.246	25556
830.385	25487
830.524	25362
830.663	25137
830.802	25289
830.941	25126
831.08	24981
831.219	25156
831.357	25042
831.496	25297
831.635	25046
831.774	24954
831.913	24935
832.051	24951
832.19	24719
832.329	24932
832.467	24810
832.606	24730
832.744	24741
832.883	24764
833.022	24798
833.16	24844
833.299	24741
833.437	24852
833.576	24882
833.714	24749
833.852	24966
833.991	24943
834.129	24863
834.267	24905
834.406	24715
834.544	24970
834.682	24825
834.821	24772
834.959	24935
835.097	24631
835.235	25012
835.373	24700
835.511	24913
835.65	24650
835.788	24722
835.926	24407
836.064	24418
836.202	24376
836.34	24700
836.478	24779
836.615	24555
836.753	24635
836.891	24650
837.029	24623
837.167	24696
837.305	24593
837.443	24509
837.58	24456
837.718	24547
837.856	24570
837.993	24517
838.131	24372
838.269	24311
838.406	24410
838.544	24304
838.681	24060
838.819	24053
838.956	23897
839.094	23893
839.231	24041
839.369	24072
839.506	24289
839.643	24182
839.781	23870
839.918	23870
840.055	23878
840.193	23874
840.33	23874
840.467	23779
840.604	23904
840.742	24133
840.879	23752
841.016	23767
841.153	23710
841.29	24053
841.427	23798
841.564	23805
841.701	23703
841.838	23874
841.975	23657
842.112	23779
842.249	23589
842.385	23589
842.522	23783
842.659	23433
842.796	23531
842.933	23611
843.069	23608
843.206	23505
843.343	23619
843.479	23585
843.616	23573
843.752	23448
843.889	23311
844.025	23440
844.162	23414
844.298	23433
844.435	23414
844.571	23311
844.708	23330
844.844	23573
844.98	23531
845.117	23531
845.253	23231
845.389	23235
845.525	23307
845.661	23235
845.798	23204
845.934	23128
846.07	23162
846.206	23044
846.342	23185
846.478	23155
846.614	22915
846.75	22713
846.886	22679
847.022	22839
847.158	22801
847.294	22930
847.429	22930
847.565	22759
847.701	22968
847.837	22569
847.972	22531
848.108	22691
848.244	22565
848.379	22630
848.515	22394
848.65	22527
848.786	22500
848.921	22443
849.057	22580
849.192	22531
849.328	22497
849.463	22413
849.598	22310
849.734	22329
849.869	22276
850.004	22207
850.14	22204
850.275	22329
850.41	22082
850.545	22040
850.68	22192
850.815	22204
850.95	22147
851.085	22306
851.22	22280
851.355	22363
851.49	22207
851.625	22048
851.76	22139
851.895	22086
852.03	22120
852.165	22234
852.299	22363
852.434	22295
852.569	22284
852.703	22192
852.838	22253
852.973	22413
853.107	22352
853.242	22097
853.376	22070
853.511	21911
853.645	21964
853.78	22223
853.914	21953
854.048	21918
854.183	22013
854.317	22029
854.451	22238
854.585	22192
854.72	21998
854.854	22040
854.988	22044
855.122	22109
855.256	21846
855.39	21945
855.524	22105
855.658	22204
855.792	21964
855.926	22078
856.06	22025
856.194	22112
856.327	21918
856.461	21850
856.595	21945
856.729	21994
856.862	22177
856.996	21960
857.13	22010
857.263	22196
857.397	22162
857.53	21960
857.664	22029
857.797	21998
857.931	22032
858.064	21835
858.197	22143
858.331	21876
858.464	21895
858.597	21892
858.731	22013
858.864	21998
858.997	21994
859.13	21945
859.263	22017
859.396	22048
859.529	22086
859.662	21987
859.795	21953
859.928	22013
860.061	22185
860.194	22181
860.327	22128
860.46	21922
860.592	22063
860.725	22162
860.858	22128
860.99	21972
861.123	21949
861.256	21857
861.388	21945
861.521	22854
861.653	21873
861.786	21842
861.918	21873
862.05	21838
862.183	21907
862.315	21975
862.447	21930
862.58	21960
862.712	21587
862.844	21660
862.976	21873
863.108	21846
863.24	22101
863.372	21637
863.504	21675
863.636	21812
863.768	21637
863.9	21732
864.032	21686
864.164	21652
864.296	21724
864.428	21667
864.559	21816
864.691	21880
864.823	21812
864.954	21762
865.086	21720
865.217	21728
865.349	21515
865.48	21648
865.612	21595
865.743	21751
865.875	21564
866.006	21610
866.137	21564
866.269	21587
866.4	21523
866.531	21656
866.662	21625
866.793	21450
866.924	21557
867.055	21530
867.186	21526
867.317	21557
867.448	21408
867.579	21519
867.71	21393
867.841	21488
867.972	21553
868.103	21496
868.233	21488
868.364	21435
868.495	21542
868.625	21675
868.756	21838
868.886	21660
869.017	21774
869.147	21865
869.278	21842
869.408	21808
869.539	21709
869.669	21816
869.799	21812
869.929	21831
870.06	21827
870.19	22048
870.32	22063
870.45	22082
870.58	22150
870.71	22173
870.84	22185
870.97	22177
871.1	22128
871.23	22382
871.36	22329
871.489	22185
871.619	22318
871.749	22443
871.879	22417
872.008	22409
872.138	22371
872.267	22287
872.397	22276
872.526	22147
872.656	22204
872.785	22226
872.915	22504
873.044	22500
873.173	22390
873.303	22363
873.432	22382
873.561	22413
873.69	22417
873.819	22322
873.948	22470
874.077	22379
874.206	22306
874.335	22265
874.464	22478
874.593	22584
874.722	22523
874.851	22675
874.979	22607
875.108	22577
875.237	22478
875.365	22660
875.494	22538
875.623	22725
875.751	22569
875.88	22622
876.008	22729
876.136	22672
876.265	22995
876.393	22961
876.521	23067
876.65	22957
876.778	22987
876.906	22953
877.034	23003
877.162	23018
877.29	22809
877.418	22995
877.546	22965
877.674	22938
877.802	22847
877.93	22911
878.058	22908
878.185	22885
878.313	22938
878.441	22972
878.568	22706
878.696	22790
878.824	22896
878.951	22942
879.079	23064
879.206	23265
879.333	23105
879.461	23086
879.588	23075
879.715	23098
879.842	23212
879.97	22915
880.097	22744
880.224	22713
880.351	22767
880.478	22816
880.605	22717
880.732	22729
880.859	22904
880.986	22801
881.112	22767
881.239	22649
881.366	22432
881.493	22322
881.619	22375
881.746	22325
881.872	22314
881.999	22318
882.125	22295
882.252	22322
882.378	22196
882.505	22478
882.631	22128
882.757	22226
882.883	22082
883.01	22040
883.136	21968
883.262	21895
883.388	21899
883.514	21960
883.64	22021
883.766	21930
883.892	21774
884.018	21857
884.143	21873
884.269	21945
884.395	21599
884.52	21660
884.646	21724
884.772	21542
884.897	21572
885.023	21625
885.148	21648
885.274	21667
885.399	21698
885.524	21583
885.65	21641
885.775	21762
885.9	21774
886.025	21698
886.15	21739
886.275	21530
886.4	21648
886.525	21625
886.65	21576
886.775	21568
886.9	21618
887.025	21774
887.149	21610
887.274	21447
887.399	21256
887.523	21355
887.648	21374
887.773	21272
887.897	21542
888.021	21374
888.146	21294
888.27	21603
888.395	21401
888.519	21408
888.643	21447
888.767	21458
888.891	21321
889.015	21310
889.139	21256
889.263	21085
889.387	21241
889.511	21355
889.635	21332
889.759	21135
889.883	21127
890.006	21161
890.13	21245
890.254	21135
890.377	21043
890.501	20998
890.624	20891
890.748	20952
890.871	20876
890.995	20788
891.118	20693
891.241	20800
891.364	20697
891.488	20811
891.611	20815
891.734	20712
891.857	20811
891.98	20731
892.103	20800
892.226	20705
892.349	20746
892.471	20514
892.594	20720
892.717	20701
892.839	20545
892.962	20549
893.085	20655
893.207	20663
893.33	20507
893.452	20533
893.575	20682
893.697	20651
893.819	20644
893.941	20762
894.064	20785
894.186	20465
894.308	20552
894.43	20670
894.552	20678
894.674	20727
894.796	20594
894.918	20629
895.04	20602
895.161	20727
895.283	20552
895.405	20629
895.526	20636
895.648	20686
895.769	20640
895.891	20655
896.012	20674
896.134	20781
896.255	20617
896.376	20476
896.498	20606
896.619	20678
896.74	20697
896.861	20708
896.982	20834
897.103	21081
897.224	20823
897.345	20887
897.466	20777
897.587	20842
897.708	20960
897.828	20861
897.949	20773
898.07	20697
898.19	20887
898.311	20998
898.431	20853
898.552	20826
898.672	20811
898.792	20807
898.913	20918
899.033	20655
899.153	20651
899.273	20552
899.393	20495
899.513	20594
899.633	20632
899.753	20579
899.873	20583
899.993	20522
900.113	20499
900.232	20488
900.352	20533
900.472	20347
900.591	20290
900.711	20358
900.83	20248
900.95	20514
901.069	20404
901.189	20271
901.308	20012
901.427	19993
901.546	19902
901.665	19837
901.784	19898
901.904	19879
902.023	19655
902.141	19590
902.26	19521
902.379	19460
902.498	19556
902.617	19377
902.735	19491
902.854	19301
902.973	19422
903.091	19099
903.21	19110
903.328	19095
903.446	18939
903.565	18973
903.683	18890
903.801	18817
903.919	18791
904.038	18798
904.156	18635
904.274	18829
904.392	18608
904.51	18593
904.627	18593
904.745	18669
904.863	18654
904.981	18426
905.098	18391
905.216	18407
905.334	18334
905.451	18365
905.569	18224
905.686	18338
905.803	18334
905.921	18110
906.038	18277
906.155	18174
906.272	17965
906.389	18053
906.506	17935
906.623	17866
906.74	17916
906.857	17752
906.974	17745
907.091	17885
907.208	18026
907.324	17958
907.441	17726
907.557	17535
907.674	17638
907.79	17486
907.907	17497
908.023	17558
908.139	17646
908.256	17577
908.372	17452
908.488	17383
908.604	17284
908.72	17261
908.836	17269
908.952	17337
909.068	17368
909.184	17391
909.3	17258
909.415	17376
909.531	17227
909.647	17090
909.762	17006
909.878	17067
909.993	16881
910.108	16942
910.224	16972
910.339	16873
910.454	16904
910.57	16763
910.685	16858
910.8	17003
910.915	16896
911.03	16702
911.145	16641
911.259	16584
911.374	16641
911.489	16500
911.604	16478
911.718	16295
911.833	16352
911.947	16226
912.062	16230
912.176	16318
912.291	16265
912.405	16295
912.519	16382
912.633	16417
912.748	16322
912.862	16272
912.976	16109
913.09	15960
913.204	15964
913.318	16147
913.431	16166
913.545	16150
913.659	16196
913.772	16040
913.886	16021
914	15937
914.113	15987
914.226	15964
914.34	15960
914.453	15762
914.566	15964
914.68	15827
914.793	15827
914.906	15549
915.019	15511
915.132	15408
915.245	15435
915.358	15526
915.47	15447
915.583	15530
915.696	15424
915.809	15553
915.921	15644
916.034	15431
916.146	15370
916.259	15504
916.371	15462
916.483	15454
916.595	15370
916.708	15443
916.82	15348
916.932	15378
917.044	15260
917.156	15237
917.268	15161
917.38	15157
917.491	15104
917.603	15173
917.715	15192
917.826	15230
917.938	15036
918.049	15043
918.161	15055
918.272	15184
918.384	15272
918.495	15032
918.606	14998
918.717	14811
918.828	14861
918.939	14906
919.05	14811
919.161	14830
919.272	14693
919.383	14708
919.494	14842
919.604	15157
919.715	14830
919.826	14785
919.936	14845
920.047	14921
920.157	14952
920.267	15005
920.378	14838
920.488	14849
920.598	15055
920.708	15237
920.818	15089
920.928	14990
921.038	15214
921.148	15066
921.258	14724
921.368	14701
921.477	14678
921.587	14678
921.697	14465
921.806	14659
921.916	14385
922.025	14404
922.134	14305
922.244	14157
922.353	14180
922.462	14123
922.571	14073
922.68	13894
922.789	13776
922.898	13841
923.007	13693
923.116	13879
923.224	13822
923.333	13868
923.442	13624
923.55	13681
923.659	13696
923.767	13814
923.876	13715
923.984	13708
924.092	13613
924.201	13620
924.309	13647
924.417	13571
924.525	13518
924.633	13495
924.741	14229
924.849	13354
924.956	13419
925.064	13316
925.172	13209
925.279	13244
925.387	13335
925.494	13232
925.602	13369
925.709	13327
925.816	13171
925.924	13190
926.031	13263
926.138	13202
926.245	13221
926.352	13145
926.459	13149
926.566	13152
926.673	13179
926.779	13034
926.886	12932
926.993	12905
927.099	12867
927.206	12757
927.312	12696
927.419	12821
927.525	12814
927.631	12844
927.737	12692
927.843	12654
927.95	12570
928.056	12604
928.162	12631
928.267	12677
928.373	13187
928.479	12768
928.585	12506
928.69	12521
928.796	12650
928.901	12467
929.007	12323
929.112	12403
929.218	12445
929.323	12422
929.428	12391
929.533	12399
929.638	12243
929.743	12330
929.848	12384
929.953	12361
930.058	12216
930.163	12060
930.267	12064
930.372	12152
930.477	12003
930.581	12167
930.685	12007
930.79	11904
930.894	11920
930.998	11870
931.103	12057
931.207	11672
931.311	11585
931.415	11490
931.519	11292
931.623	11193
