Data from test_V78500241_70.txt Node
Date: Fri Mar 25 15:10:21 CST 2022
User: usil
Spectrometer: V785-0024
Trigger mode: 0
Integration Time (sec): 4.000000E-1
Scans to average: 1
Nonlinearity correction enabled: false
Boxcar width: 0
Storing dark spectrum: false
XAxis mode: Wavelengths
Number of Pixels in Spectrum: 1024
>>>>>Begin Spectral Data<<<<<
801.071	28790
801.214	28702
801.356	28367
801.499	28451
801.641	28348
801.783	28169
801.926	28329
802.068	28299
802.211	28188
802.353	28086
802.496	27857
802.638	27907
802.78	27922
802.923	27804
803.065	27816
803.208	27838
803.35	27869
803.492	27854
803.635	27994
803.777	27869
803.919	28120
804.061	28207
804.204	28032
804.346	27941
804.488	28017
804.63	28044
804.773	27778
804.915	27880
805.057	28078
805.199	27831
805.341	27941
805.483	28120
805.626	28078
805.768	27983
805.91	28025
806.052	28158
806.194	27873
806.336	28188
806.478	28139
806.62	28029
806.762	28147
806.904	28131
807.046	28508
807.188	28417
807.33	28363
807.472	28443
807.614	28386
807.756	28390
807.898	28322
808.04	28261
808.182	28207
808.324	28234
808.465	28223
808.607	28409
808.749	28447
808.891	28554
809.033	28573
809.174	28596
809.316	28432
809.458	28577
809.6	28386
809.741	28527
809.883	28577
810.025	28656
810.166	28755
810.308	28774
810.45	28729
810.591	28630
810.733	28550
810.875	28394
811.016	28348
811.158	28238
811.299	28314
811.441	28626
811.582	28466
811.724	28470
811.865	28401
812.007	28508
812.148	28401
812.29	28535
812.431	28592
812.573	28755
812.714	28828
812.855	28892
812.997	29014
813.138	29041
813.279	29132
813.421	28991
813.562	28793
813.703	28809
813.845	28637
813.986	28318
814.127	28086
814.268	28048
814.41	28017
814.551	27991
814.692	28177
814.833	28025
814.974	27983
815.115	27987
815.256	27850
815.397	28006
815.539	27873
815.68	27774
815.821	27709
815.962	27850
816.103	27880
816.244	27526
816.385	27526
816.526	27553
816.666	27408
816.807	27245
816.948	27370
817.089	27317
817.23	27096
817.371	27272
817.512	27306
817.653	27077
817.793	27066
817.934	27195
818.075	27252
818.216	27252
818.356	27116
818.497	26944
818.638	26842
818.778	26998
818.919	26967
819.06	26883
819.2	26975
819.341	27241
819.481	27123
819.622	27180
819.762	27466
819.903	27287
820.043	27294
820.184	27127
820.324	27252
820.465	27039
820.605	27100
820.746	27089
820.886	27032
821.026	27138
821.167	27096
821.307	27222
821.447	27138
821.588	27089
821.728	26693
821.868	26815
822.008	26613
822.149	26545
822.289	26655
822.429	26202
822.569	26180
822.709	26142
822.849	26081
822.99	26012
823.13	25936
823.27	25833
823.41	25666
823.55	25719
823.69	25784
823.83	25791
823.97	25826
824.11	25704
824.25	25540
824.389	25483
824.529	25635
824.669	25533
824.809	25658
824.949	25639
825.089	25616
825.228	25552
825.368	25472
825.508	25445
825.648	25350
825.787	25236
825.927	25514
826.067	25263
826.206	25285
826.346	25365
826.485	25419
826.625	25449
826.765	25422
826.904	25278
827.044	25148
827.183	25084
827.323	25061
827.462	25145
827.601	25065
827.741	25156
827.88	24973
828.02	24977
828.159	24977
828.298	24962
828.437	25168
828.577	24878
828.716	25114
828.855	24943
828.994	24642
829.134	24642
829.273	24760
829.412	24547
829.551	24601
829.69	24703
829.829	24787
829.968	24817
830.107	24684
830.246	24639
830.385	24654
830.524	24559
830.663	24422
830.802	24429
830.941	24205
831.08	24258
831.219	24350
831.357	24296
831.496	24464
831.635	24209
831.774	24201
831.913	24015
832.051	23980
832.19	24133
832.329	24121
832.467	23977
832.606	23958
832.744	23779
832.883	23840
833.022	23840
833.16	23817
833.299	23920
833.437	23802
833.576	23870
833.714	23893
833.852	23920
833.991	23908
834.129	24018
834.267	23878
834.406	23821
834.544	23954
834.682	23977
834.821	23866
834.959	24060
835.097	23726
835.235	23946
835.373	23904
835.511	23790
835.65	23680
835.788	23745
835.926	23524
836.064	23368
836.202	23528
836.34	23798
836.478	23783
836.615	23737
836.753	23756
836.891	23737
837.029	23699
837.167	23570
837.305	23642
837.443	23543
837.58	23478
837.718	23611
837.856	23680
837.993	23417
838.131	23497
838.269	23402
838.406	23372
838.544	23269
838.681	23079
838.819	23075
838.956	23010
839.094	23090
839.231	22953
839.369	23056
839.506	23417
839.643	23128
839.781	22915
839.918	22904
840.055	22839
840.193	22755
840.33	22885
840.467	22748
840.604	22835
840.742	23178
840.879	22637
841.016	22790
841.153	22668
841.29	22831
841.427	22873
841.564	22759
841.701	22885
841.838	22752
841.975	22607
842.112	22691
842.249	22713
842.385	22489
842.522	22706
842.659	22523
842.796	22440
842.933	22474
843.069	22481
843.206	22497
843.343	22428
843.479	22527
843.616	22432
843.752	22325
843.889	22306
844.025	22322
844.162	22242
844.298	22405
844.435	22249
844.571	22219
844.708	22322
844.844	22337
844.98	22443
845.117	22310
845.253	22116
845.389	22162
845.525	22147
845.661	22074
845.798	21964
845.934	21960
846.07	22010
846.206	22006
846.342	22067
846.478	22002
846.614	21743
846.75	21641
846.886	21739
847.022	21823
847.158	21606
847.294	21675
847.429	21724
847.565	21618
847.701	21941
847.837	21405
847.972	21405
848.108	21496
848.244	21622
848.379	21245
848.515	21138
848.65	21154
848.786	21287
848.921	21252
849.057	21344
849.192	21275
849.328	21203
849.463	21154
849.598	21222
849.734	21089
849.869	21211
850.004	21039
850.14	20994
850.275	21009
850.41	20902
850.545	20941
850.68	20975
850.815	20967
850.95	20944
851.085	21070
851.22	21020
851.355	20887
851.49	20891
851.625	20899
851.76	20861
851.895	20777
852.03	20735
852.165	20891
852.299	21043
852.434	20944
852.569	21074
852.703	21017
852.838	21051
852.973	20933
853.107	21104
853.242	20857
853.376	20864
853.511	20632
853.645	20777
853.78	20758
853.914	20887
854.048	20644
854.183	20731
854.317	20682
854.451	20918
854.585	20823
854.72	20682
854.854	20720
854.988	20648
855.122	20826
855.256	20689
855.39	20655
855.524	20792
855.658	20792
855.792	20861
855.926	20636
856.06	20739
856.194	20743
856.327	20705
856.461	20629
856.595	20613
856.729	20762
856.862	20967
856.996	20754
857.13	20819
857.263	20769
857.397	20857
857.53	20609
857.664	20785
857.797	20689
857.931	20819
858.064	20712
858.197	20864
858.331	20571
858.464	20655
858.597	20526
858.731	20720
858.864	20663
858.997	20777
859.13	20708
859.263	20678
859.396	20765
859.529	20727
859.662	20625
859.795	20511
859.928	20598
860.061	20735
860.194	20800
860.327	20708
860.46	20590
860.592	20853
860.725	20796
860.858	20743
860.99	20636
861.123	20644
861.256	20701
861.388	20682
861.521	21199
861.653	20480
861.786	20503
861.918	20636
862.05	20587
862.183	20686
862.315	20781
862.447	20758
862.58	20655
862.712	20454
862.844	20484
862.976	20457
863.108	20484
863.24	20948
863.372	20225
863.504	20294
863.636	20275
863.768	20404
863.9	20427
864.032	20298
864.164	20244
864.296	20347
864.428	20347
864.559	20400
864.691	20488
864.823	20252
864.954	20271
865.086	20332
865.217	20309
865.349	20187
865.48	20275
865.612	20237
865.743	20313
865.875	20267
866.006	20172
866.137	20320
866.269	20206
866.4	20317
866.531	20161
866.662	20172
866.793	20187
866.924	20180
867.055	20199
867.186	20065
867.317	20134
867.448	20081
867.579	20210
867.71	20027
867.841	20122
867.972	20138
868.103	20073
868.233	20122
868.364	20168
868.495	20214
868.625	20415
868.756	20522
868.886	20347
869.017	20343
869.147	20594
869.278	20415
869.408	20457
869.539	20438
869.669	20442
869.799	20454
869.929	20476
870.06	20545
870.19	20644
870.32	20606
870.45	20743
870.58	20918
870.71	20845
870.84	20910
870.97	20746
871.1	20796
871.23	20838
871.36	21085
871.489	20891
871.619	20960
871.749	21066
871.879	21096
872.008	21157
872.138	20990
872.267	21020
872.397	20952
872.526	20834
872.656	20921
872.785	20944
872.915	20986
873.044	21108
873.173	21100
873.303	21169
873.432	21138
873.561	21131
873.69	21062
873.819	20956
873.948	21112
874.077	20906
874.206	20994
874.335	21180
874.464	21165
874.593	21291
874.722	21230
874.851	21344
874.979	21367
875.108	21355
875.237	21195
875.365	21241
875.494	21252
875.623	21424
875.751	21199
875.88	21249
876.008	21447
876.136	21488
876.265	21637
876.393	21892
876.521	21781
876.65	21899
876.778	21743
876.906	21648
877.034	21629
877.162	21580
877.29	21686
877.418	21732
877.546	21641
877.674	21675
877.802	21652
877.93	21625
878.058	21454
878.185	21549
878.313	21690
878.441	21583
878.568	21481
878.696	21591
878.824	21743
878.951	21720
879.079	21953
879.206	21903
879.333	21873
879.461	21603
879.588	21857
879.715	21945
879.842	21846
879.97	21625
880.097	21485
880.224	21447
880.351	21500
880.478	21583
880.605	21496
880.732	21530
880.859	21660
880.986	21435
881.112	21583
881.239	21310
881.366	21230
881.493	21142
881.619	21096
881.746	20971
881.872	21058
881.999	20975
882.125	21081
882.252	21173
882.378	21055
882.505	21203
882.631	21070
882.757	20845
882.883	20864
883.01	20853
883.136	20918
883.262	20674
883.388	20609
883.514	20792
883.64	20876
883.766	20781
883.892	20636
884.018	20621
884.143	20750
884.269	20769
884.395	20400
884.52	20423
884.646	20484
884.772	20377
884.897	20355
885.023	20476
885.148	20606
885.274	20587
885.399	20568
885.524	20446
885.65	20339
885.775	20495
885.9	20343
886.025	20583
886.15	20503
886.275	20442
886.4	20286
886.525	20393
886.65	20328
886.775	20225
886.9	20587
887.025	20568
887.149	20370
887.274	20278
887.399	20183
887.523	20195
887.648	20298
887.773	20081
887.897	20164
888.021	20313
888.146	20157
888.27	20286
888.395	20180
888.519	20134
888.643	20176
888.767	20233
888.891	20180
889.015	20134
889.139	20130
889.263	19932
889.387	20081
889.511	20214
889.635	20107
889.759	19963
889.883	19864
890.006	19970
890.13	20062
890.254	19898
890.377	19871
890.501	19700
890.624	19635
890.748	19693
890.871	19578
890.995	19556
891.118	19472
891.241	19552
891.364	19582
891.488	19643
891.611	19480
891.734	19544
891.857	19639
891.98	19495
892.103	19613
892.226	19601
892.349	19434
892.471	19343
892.594	19457
892.717	19434
892.839	19457
892.962	19495
893.085	19476
893.207	19464
893.33	19339
893.452	19327
893.575	19506
893.697	19491
893.819	19632
893.941	19685
894.064	19712
894.186	19476
894.308	19358
894.43	19548
894.552	19628
894.674	19609
894.796	19324
894.918	19445
895.04	19400
895.161	19518
895.283	19400
895.405	19468
895.526	19476
895.648	19441
895.769	19430
895.891	19499
896.012	19639
896.134	19556
896.255	19441
896.376	19419
896.498	19426
896.619	19643
896.74	19430
896.861	19719
896.982	19830
897.103	20039
897.224	19837
897.345	19734
897.466	19613
897.587	19750
897.708	19989
897.828	19731
897.949	19742
898.07	19518
898.19	19578
898.311	19731
898.431	19662
898.552	19628
898.672	19731
898.792	19772
898.913	19746
899.033	19616
899.153	19388
899.273	19327
899.393	19491
899.513	19362
899.633	19460
899.753	19430
899.873	19331
899.993	19396
900.113	19377
900.232	19289
900.352	19263
900.472	19293
900.591	19122
900.711	19263
900.83	19190
900.95	19343
901.069	19316
901.189	19129
901.308	18833
901.427	18741
901.546	18867
901.665	18920
901.784	18871
901.904	18730
902.023	18582
902.141	18369
902.26	18319
902.379	18342
902.498	18315
902.617	18300
902.735	18346
902.854	18209
902.973	18300
903.091	17977
903.21	17988
903.328	18011
903.446	17931
903.565	17737
903.683	17805
903.801	17741
903.919	17733
904.038	17817
904.156	17619
904.274	17627
904.392	17551
904.51	17528
904.627	17547
904.745	17691
904.863	17547
904.981	17296
905.098	17261
905.216	17204
905.334	17277
905.451	17235
905.569	17269
905.686	17220
905.803	17265
905.921	17006
906.038	17014
906.155	17048
906.272	16927
906.389	16885
906.506	16839
906.623	16759
906.74	16820
906.857	16649
906.974	16626
907.091	16839
907.208	16896
907.324	16763
907.441	16618
907.557	16474
907.674	16462
907.79	16417
907.907	16417
908.023	16428
908.139	16390
908.256	16249
908.372	16287
908.488	16295
908.604	16131
908.72	16120
908.836	16177
908.952	16234
909.068	16188
909.184	16234
909.3	16112
909.415	16177
909.531	16071
909.647	15800
909.762	15876
909.878	15736
909.993	15842
910.108	15808
910.224	15854
910.339	15793
910.454	15709
910.57	15622
910.685	15614
910.8	15823
910.915	15728
911.03	15667
911.145	15485
911.259	15462
911.374	15435
911.489	15279
911.604	15214
911.718	15093
911.833	15169
911.947	15108
912.062	14963
912.176	15195
912.291	15161
912.405	15165
912.519	15291
912.633	15298
912.748	15218
912.862	15123
912.976	14990
913.09	14864
913.204	14960
913.318	15077
913.431	15131
913.545	15119
913.659	15074
913.772	14834
913.886	14826
914	14872
914.113	14902
914.226	14918
914.34	14910
914.453	14720
914.566	14823
914.68	14712
914.793	14640
914.906	14457
915.019	14450
915.132	14332
915.245	14412
915.358	14427
915.47	14438
915.583	14419
915.696	14415
915.809	14526
915.921	14606
916.034	14381
916.146	14336
916.259	14339
916.371	14408
916.483	14347
916.595	14278
916.708	14301
916.82	14259
916.932	14248
917.044	14191
917.156	14278
917.268	14115
917.38	14043
917.491	14145
917.603	14111
917.715	14248
917.826	14199
917.938	14088
918.049	13913
918.161	14020
918.272	14103
918.384	14172
918.495	14016
918.606	13955
918.717	13776
918.828	13830
918.939	13860
919.05	13780
919.161	13871
919.272	13624
919.383	13734
919.494	13826
919.604	14092
919.715	13833
919.826	13715
919.936	13719
920.047	13963
920.157	13715
920.267	13986
920.378	13894
920.488	13788
920.598	14008
920.708	14126
920.818	13894
920.928	13936
921.038	14119
921.148	14134
921.258	13750
921.368	13662
921.477	13643
921.587	13567
921.697	13419
921.806	13468
921.916	13510
922.025	13301
922.134	13171
922.244	13118
922.353	13259
922.462	13072
922.571	13012
922.68	12833
922.789	12833
922.898	12837
923.007	12730
923.116	12837
923.224	12825
923.333	12768
923.442	12757
923.55	12734
923.659	12707
923.767	12730
923.876	12635
923.984	12772
924.092	12521
924.201	12608
924.309	12513
924.417	12673
924.525	12513
924.633	12544
924.741	13232
924.849	12369
924.956	12429
925.064	12391
925.172	12186
925.279	12270
925.387	12410
925.494	12251
925.602	12353
925.709	12369
925.816	12186
925.924	12220
926.031	12342
926.138	12270
926.245	12285
926.352	12186
926.459	12380
926.566	12403
926.673	12201
926.779	12030
926.886	12079
926.993	11908
927.099	11897
927.206	11912
927.312	11695
927.419	11786
927.525	11870
927.631	11939
927.737	11813
927.843	11714
927.95	11577
928.056	11722
928.162	11726
928.267	11775
928.373	12410
928.479	11828
928.585	11615
928.69	11634
928.796	11554
928.901	11532
929.007	11471
929.112	11570
929.218	11573
929.323	11440
929.428	11383
929.533	11585
929.638	11391
929.743	11372
929.848	11463
929.953	11383
930.058	11284
930.163	11121
930.267	11193
930.372	11269
930.477	11071
930.581	11292
930.685	11189
930.79	11045
930.894	11052
930.998	10976
931.103	11075
931.207	10755
931.311	10729
931.415	10565
931.519	10421
931.623	10379
