Data from test_V78500241_871.txt Node
Date: Fri Mar 25 15:15:55 CST 2022
User: usil
Spectrometer: V785-0024
Trigger mode: 0
Integration Time (sec): 4.000000E-1
Scans to average: 1
Nonlinearity correction enabled: false
Boxcar width: 0
Storing dark spectrum: false
XAxis mode: Wavelengths
Number of Pixels in Spectrum: 1024
>>>>>Begin Spectral Data<<<<<
801.071	28192
801.214	28223
801.356	27991
801.499	27785
801.641	27736
801.783	27717
801.926	27808
802.068	27861
802.211	27709
802.353	27549
802.496	27447
802.638	27450
802.78	27363
802.923	27336
803.065	27393
803.208	27363
803.35	27500
803.492	27671
803.635	27648
803.777	27534
803.919	27755
804.061	27892
804.204	27576
804.346	27614
804.488	27504
804.63	27671
804.773	27389
804.915	27755
805.057	27572
805.199	27523
805.341	27694
805.483	27739
805.626	27713
805.768	27728
805.91	27698
806.052	27804
806.194	27572
806.336	27941
806.478	27865
806.62	27819
806.762	27861
806.904	28044
807.046	28215
807.188	28131
807.33	28204
807.472	28352
807.614	28185
807.756	28207
807.898	27983
808.04	27983
808.182	28017
808.324	27975
808.465	28070
808.607	28280
808.749	28546
808.891	28485
809.033	28550
809.174	28531
809.316	28516
809.458	28561
809.6	28405
809.741	28573
809.883	28649
810.025	28664
810.166	28790
810.308	28622
810.45	28664
810.591	28618
810.733	28573
810.875	28413
811.016	28299
811.158	28306
811.299	28557
811.441	28516
811.582	28656
811.724	28538
811.865	28432
812.007	28341
812.148	28341
812.29	28421
812.431	28626
812.573	28843
812.714	28984
812.855	28908
812.997	29265
813.138	29151
813.279	29204
813.421	28965
813.562	28961
813.703	28843
813.845	28767
813.986	28424
814.127	28333
814.268	28013
814.41	28215
814.551	28124
814.692	28272
814.833	28204
814.974	28124
815.115	28200
815.256	27930
815.397	28181
815.539	28010
815.68	28029
815.821	27865
815.962	28017
816.103	27911
816.244	27861
816.385	27876
816.526	27686
816.666	27454
816.807	27462
816.948	27542
817.089	27606
817.23	27606
817.371	27553
817.512	27496
817.653	27557
817.793	27447
817.934	27545
818.075	27378
818.216	27599
818.356	27545
818.497	27443
818.638	27119
818.778	27169
818.919	27146
819.06	27302
819.2	27370
819.341	27454
819.481	27374
819.622	27648
819.762	27819
819.903	27873
820.043	27720
820.184	27564
820.324	27587
820.465	27614
820.605	27648
820.746	27583
820.886	27576
821.026	27629
821.167	27545
821.307	27682
821.447	27488
821.588	27443
821.728	27260
821.868	27005
822.008	27017
822.149	26918
822.289	27081
822.429	26769
822.569	26598
822.709	26499
822.849	26518
822.99	26385
823.13	26362
823.27	26351
823.41	26313
823.55	26164
823.69	26271
823.83	26259
823.97	26233
824.11	26142
824.25	26115
824.389	26149
824.529	26157
824.669	26130
824.809	26282
824.949	26282
825.089	26240
825.228	26138
825.368	25978
825.508	25883
825.648	25970
825.787	26001
825.927	26119
826.067	25989
826.206	26016
826.346	26130
826.485	26161
826.625	25963
826.765	26043
826.904	26103
827.044	25674
827.183	25776
827.323	25597
827.462	25769
827.601	25757
827.741	25879
827.88	25776
828.02	25552
828.159	25670
828.298	25731
828.437	25833
828.577	25506
828.716	25765
828.855	25651
828.994	25422
829.134	25301
829.273	25476
829.412	25308
829.551	25365
829.69	25422
829.829	25358
829.968	25548
830.107	25563
830.246	25388
830.385	25373
830.524	25388
830.663	25145
830.802	25129
830.941	25099
831.08	24913
831.219	24951
831.357	25053
831.496	25377
831.635	24924
831.774	24928
831.913	24913
832.051	24840
832.19	24779
832.329	24863
832.467	24642
832.606	24582
832.744	24650
832.883	24570
833.022	24650
833.16	24635
833.299	24772
833.437	24711
833.576	24722
833.714	24711
833.852	24795
833.991	24791
834.129	24810
834.267	24719
834.406	24859
834.544	24795
834.682	24760
834.821	24791
834.959	24859
835.097	24650
835.235	24734
835.373	24753
835.511	24787
835.65	24509
835.788	24627
835.926	24399
836.064	24292
836.202	24456
836.34	24563
836.478	24669
836.615	24502
836.753	24547
836.891	24623
837.029	24570
837.167	24380
837.305	24521
837.443	24475
837.58	24395
837.718	24570
837.856	24528
837.993	24334
838.131	24429
838.269	24251
838.406	24197
838.544	24102
838.681	24148
838.819	24163
838.956	23874
839.094	23878
839.231	23984
839.369	24026
839.506	24292
839.643	24117
839.781	23855
839.918	23653
840.055	23870
840.193	23813
840.33	23737
840.467	23832
840.604	23870
840.742	24053
840.879	23684
841.016	23649
841.153	23558
841.29	23824
841.427	23790
841.564	23741
841.701	23722
841.838	23714
841.975	23676
842.112	23581
842.249	23558
842.385	23486
842.522	23699
842.659	23638
842.796	23608
842.933	23528
843.069	23467
843.206	23482
843.343	23646
843.479	23566
843.616	23482
843.752	23208
843.889	23303
844.025	23471
844.162	23318
844.298	23558
844.435	23235
844.571	23231
844.708	23337
844.844	23531
844.98	23395
845.117	23345
845.253	23376
845.389	23083
845.525	23250
845.661	23178
845.798	23075
845.934	23090
846.07	22999
846.206	23105
846.342	23121
846.478	23003
846.614	22877
846.75	22816
846.886	22793
847.022	22828
847.158	22717
847.294	22717
847.429	22687
847.565	22679
847.701	23090
847.837	22573
847.972	22611
848.108	22523
848.244	22596
848.379	22348
848.515	22379
848.65	22348
848.786	22352
848.921	22409
849.057	22455
849.192	22394
849.328	22382
849.463	22371
849.598	22337
849.734	22196
849.869	22303
850.004	22055
850.14	22158
850.275	22128
850.41	22093
850.545	21899
850.68	22215
850.815	22135
850.95	22006
851.085	22257
851.22	22109
851.355	22143
851.49	22158
851.625	22101
851.76	22063
851.895	22017
852.03	22036
852.165	22097
852.299	22082
852.434	22192
852.569	22333
852.703	22234
852.838	22166
852.973	22219
853.107	22268
853.242	22029
853.376	21956
853.511	21865
853.645	21797
853.78	21983
853.914	21918
854.048	21785
854.183	21991
854.317	21941
854.451	22086
854.585	21941
854.72	21949
854.854	21953
854.988	21903
855.122	22002
855.256	21857
855.39	21835
855.524	22017
855.658	22002
855.792	22025
855.926	21953
856.06	22055
856.194	22086
856.327	22036
856.461	21804
856.595	21994
856.729	21850
856.862	21937
856.996	22017
857.13	22147
857.263	22082
857.397	22029
857.53	21964
857.664	21941
857.797	22067
857.931	22021
858.064	22013
858.197	22051
858.331	21899
858.464	21854
858.597	21785
858.731	21774
858.864	21857
858.997	21899
859.13	21983
859.263	21937
859.396	22025
859.529	21835
859.662	21987
859.795	21918
859.928	21945
860.061	21972
860.194	22139
860.327	21983
860.46	22021
860.592	22017
860.725	22063
860.858	22131
860.99	22002
861.123	21774
861.256	21899
861.388	21831
861.521	22729
861.653	21743
861.786	21819
861.918	21846
862.05	21739
862.183	21926
862.315	21922
862.447	21854
862.58	21869
862.712	21568
862.844	21641
862.976	21720
863.108	21671
863.24	22128
863.372	21686
863.504	21736
863.636	21583
863.768	21690
863.9	21660
864.032	21667
864.164	21606
864.296	21606
864.428	21732
864.559	21762
864.691	21587
864.823	21675
864.954	21694
865.086	21603
865.217	21530
865.349	21466
865.48	21542
865.612	21450
865.743	21652
865.875	21587
866.006	21583
866.137	21652
866.269	21580
866.4	21515
866.531	21382
866.662	21401
866.793	21408
866.924	21435
867.055	21534
867.186	21454
867.317	21408
867.448	21447
867.579	21469
867.71	21363
867.841	21462
867.972	21412
868.103	21363
868.233	21504
868.364	21443
868.495	21591
868.625	21603
868.756	21698
868.886	21576
869.017	21728
869.147	21831
869.278	21770
869.408	21682
869.539	21561
869.669	21781
869.799	21644
869.929	21911
870.06	21774
870.19	22086
870.32	21892
870.45	21991
870.58	22017
870.71	22265
870.84	22173
870.97	22093
871.1	22215
871.23	22188
871.36	22333
871.489	22223
871.619	22398
871.749	22348
871.879	22306
872.008	22333
872.138	22280
872.267	22314
872.397	22086
872.526	21994
872.656	22093
872.785	22059
872.915	22253
873.044	22360
873.173	22352
873.303	22287
873.432	22337
873.561	22462
873.69	22344
873.819	22295
873.948	22394
874.077	22333
874.206	22223
874.335	22337
874.464	22394
874.593	22618
874.722	22615
874.851	22622
874.979	22565
875.108	22500
875.237	22409
875.365	22519
875.494	22561
875.623	22592
875.751	22500
875.88	22573
876.008	22519
876.136	22683
876.265	22828
876.393	22995
876.521	22934
876.65	23052
876.778	22793
876.906	22896
877.034	22831
877.162	22980
877.29	22801
877.418	22858
877.546	22843
877.674	22797
877.802	22831
877.93	22965
878.058	22854
878.185	22710
878.313	22839
878.441	22923
878.568	22767
878.696	22748
878.824	22915
878.951	22968
879.079	23124
879.206	23086
879.333	23037
879.461	22911
879.588	22987
879.715	23025
879.842	22987
879.97	22972
880.097	22790
880.224	22683
880.351	22786
880.478	22706
880.605	22664
880.732	22698
880.859	22767
880.986	22694
881.112	22744
881.239	22428
881.366	22443
881.493	22386
881.619	22226
881.746	22325
881.872	22234
881.999	22207
882.125	22253
882.252	22166
882.378	22154
882.505	22344
882.631	22067
882.757	21911
882.883	21964
883.01	21983
883.136	21895
883.262	21797
883.388	21774
883.514	22025
883.64	22010
883.766	21930
883.892	21690
884.018	21682
884.143	22048
884.269	21937
884.395	21785
884.52	21572
884.646	21717
884.772	21523
884.897	21485
885.023	21587
885.148	21709
885.274	21694
885.399	21705
885.524	21530
885.65	21549
885.775	21591
885.9	21511
886.025	21690
886.15	21633
886.275	21553
886.4	21610
886.525	21583
886.65	21469
886.775	21466
886.9	21739
887.025	21835
887.149	21515
887.274	21504
887.399	21317
887.523	21321
887.648	21325
887.773	21268
887.897	21321
888.021	21443
888.146	21188
888.27	21416
888.395	21393
888.519	21344
888.643	21351
888.767	21302
888.891	21169
889.015	21157
889.139	21245
889.263	21150
889.387	21222
889.511	21329
889.635	21233
889.759	21146
889.883	21055
890.006	21066
890.13	21089
890.254	21043
890.377	21005
890.501	20830
890.624	20773
890.748	20868
890.871	20708
890.995	20735
891.118	20670
891.241	20670
891.364	20678
891.488	20811
891.611	20712
891.734	20670
891.857	20788
891.98	20724
892.103	20727
892.226	20659
892.349	20674
892.471	20522
892.594	20552
892.717	20621
892.839	20682
892.962	20640
893.085	20670
893.207	20686
893.33	20533
893.452	20533
893.575	20636
893.697	20594
893.819	20735
893.941	20785
894.064	20857
894.186	20476
894.308	20530
894.43	20549
894.552	20773
894.674	20583
894.796	20461
894.918	20526
895.04	20552
895.161	20640
895.283	20590
895.405	20583
895.526	20575
895.648	20552
895.769	20609
895.891	20571
896.012	20689
896.134	20533
896.255	20533
896.376	20507
896.498	20560
896.619	20693
896.74	20575
896.861	20621
896.982	20864
897.103	21024
897.224	20796
897.345	20739
897.466	20682
897.587	20758
897.708	20960
897.828	20754
897.949	20701
898.07	20575
898.19	20686
898.311	20804
898.431	20720
898.552	20800
898.672	20876
898.792	20845
898.913	20701
899.033	20648
899.153	20587
899.273	20450
899.393	20644
899.513	20598
899.633	20507
899.753	20625
899.873	20423
899.993	20518
900.113	20465
900.232	20583
900.352	20400
900.472	20389
900.591	20267
900.711	20290
900.83	20202
900.95	20301
901.069	20393
901.189	20180
901.308	19906
901.427	19822
901.546	19852
901.665	19830
901.784	19947
901.904	19837
902.023	19715
902.141	19483
902.26	19449
902.379	19415
902.498	19308
902.617	19476
902.735	19445
902.854	19365
902.973	19240
903.091	19190
903.21	19012
903.328	19091
903.446	18970
903.565	18848
903.683	18947
903.801	18779
903.919	18856
904.038	18760
904.156	18509
904.274	18707
904.392	18574
904.51	18623
904.627	18593
904.745	18764
904.863	18597
904.981	18441
905.098	18300
905.216	18300
905.334	18407
905.451	18338
905.569	18304
905.686	18254
905.803	18243
905.921	18049
906.038	18117
906.155	17980
906.272	17897
906.389	17961
906.506	17866
906.623	17821
906.74	17760
906.857	17684
906.974	17729
907.091	17824
907.208	18015
907.324	17737
907.441	17687
907.557	17512
907.674	17566
907.79	17459
907.907	17535
908.023	17562
908.139	17562
908.256	17474
908.372	17330
908.488	17490
908.604	17315
908.72	17261
908.836	17299
908.952	17200
909.068	17265
909.184	17303
909.3	17242
909.415	17250
909.531	17181
909.647	16995
909.762	16957
909.878	16999
909.993	16946
910.108	16953
910.224	16805
910.339	16892
910.454	16881
910.57	16752
910.685	16668
910.8	16923
910.915	16881
911.03	16782
911.145	16649
911.259	16508
911.374	16626
911.489	16413
911.604	16306
911.718	16238
911.833	16318
911.947	16211
912.062	16150
912.176	16249
912.291	16204
912.405	16200
912.519	16394
912.633	16478
912.748	16253
912.862	16223
912.976	16063
913.09	15960
913.204	16101
913.318	16071
913.431	16109
913.545	16101
913.659	16082
913.772	16048
913.886	15819
914	15873
914.113	15972
914.226	15934
914.34	15945
914.453	15766
914.566	15838
914.68	15694
914.793	15766
914.906	15500
915.019	15481
915.132	15454
915.245	15325
915.358	15545
915.47	15462
915.583	15500
915.696	15500
915.809	15538
915.921	15622
916.034	15557
916.146	15241
916.259	15283
916.371	15584
916.483	15374
916.595	15340
916.708	15359
916.82	15294
916.932	15287
917.044	15249
917.156	15310
917.268	15108
917.38	15135
917.491	15131
917.603	15055
917.715	15116
917.826	15173
917.938	14998
918.049	14948
918.161	15062
918.272	15169
918.384	15066
918.495	15039
918.606	14933
918.717	14921
918.828	14929
918.939	15055
919.05	14834
919.161	14819
919.272	14659
919.383	14701
919.494	14861
919.604	14979
919.715	14834
919.826	14834
919.936	14804
920.047	14952
920.157	14876
920.267	15085
920.378	14918
920.488	14762
920.598	14982
920.708	15074
920.818	14998
920.928	15028
921.038	15097
921.148	15062
921.258	14826
921.368	14667
921.477	14552
921.587	14514
921.697	14518
921.806	14549
921.916	14495
922.025	14263
922.134	14229
922.244	14195
922.353	14290
922.462	13970
922.571	14027
922.68	13959
922.789	13757
922.898	13750
923.007	13746
923.116	13852
923.224	13772
923.333	13803
923.442	13715
923.55	13651
923.659	13704
923.767	13708
923.876	13643
923.984	13685
924.092	13518
924.201	13689
924.309	13506
924.417	13628
924.525	13441
924.633	13616
924.741	14237
924.849	13236
924.956	13445
925.064	13304
925.172	13149
925.279	13194
925.387	13175
925.494	13217
925.602	13282
925.709	13350
925.816	13107
925.924	13129
926.031	13255
926.138	13171
926.245	13297
926.352	13084
926.459	13198
926.566	13194
926.673	13084
926.779	12894
926.886	12970
926.993	12871
927.099	12825
927.206	12745
927.312	12707
927.419	12798
927.525	12837
927.631	12856
927.737	12730
927.843	12608
927.95	12445
928.056	12555
928.162	12669
928.267	12601
928.373	13149
928.479	12730
928.585	12490
928.69	12540
928.796	12502
928.901	12376
929.007	12384
929.112	12407
929.218	12445
929.323	12323
929.428	12323
929.533	12441
929.638	12254
929.743	12224
929.848	12315
929.953	12270
930.058	12155
930.163	11999
930.267	11935
930.372	12072
930.477	11893
930.581	12175
930.685	12015
930.79	11870
930.894	11885
930.998	11889
931.103	12053
931.207	11684
931.311	11532
931.415	11467
931.519	11315
931.623	11197
