Data from test_V78500241_2440.txt Node
Date: Fri Mar 25 15:26:50 CST 2022
User: usil
Spectrometer: V785-0024
Trigger mode: 0
Integration Time (sec): 4.000000E-1
Scans to average: 1
Nonlinearity correction enabled: false
Boxcar width: 0
Storing dark spectrum: false
XAxis mode: Wavelengths
Number of Pixels in Spectrum: 1024
>>>>>Begin Spectral Data<<<<<
801.071	27089
801.214	26861
801.356	26739
801.499	26667
801.641	26537
801.783	26446
801.926	26427
802.068	26469
802.211	26438
802.353	26358
802.496	26100
802.638	26130
802.78	26050
802.923	25974
803.065	26020
803.208	26046
803.35	26119
803.492	26256
803.635	26282
803.777	26164
803.919	26351
804.061	26735
804.204	26343
804.346	26286
804.488	26259
804.63	26229
804.773	26134
804.915	26408
805.057	26332
805.199	26214
805.341	26294
805.483	26469
805.626	26374
805.768	26400
805.91	26476
806.052	26324
806.194	26267
806.336	26594
806.478	26313
806.62	26358
806.762	26469
806.904	26720
807.046	26952
807.188	26937
807.33	26762
807.472	26826
807.614	26629
807.756	26891
807.898	26670
808.04	26514
808.182	26640
808.324	26598
808.465	26655
808.607	26925
808.749	26906
808.891	27157
809.033	27184
809.174	27112
809.316	26956
809.458	27028
809.6	27036
809.741	27218
809.883	27081
810.025	27184
810.166	27176
810.308	27256
810.45	27089
810.591	27119
810.733	27058
810.875	26910
811.016	26781
811.158	26880
811.299	26994
811.441	27043
811.582	27142
811.724	27028
811.865	26921
812.007	26834
812.148	26883
812.29	26925
812.431	27062
812.573	27245
812.714	27382
812.855	27317
812.997	27515
813.138	27789
813.279	27732
813.421	27344
813.562	27427
813.703	27348
813.845	27142
813.986	26891
814.127	26739
814.268	26670
814.41	26541
814.551	26606
814.692	26609
814.833	26541
814.974	26556
815.115	26686
815.256	26484
815.397	26415
815.539	26492
815.68	26446
815.821	26377
815.962	26400
816.103	26271
816.244	26343
816.385	26180
816.526	26176
816.666	26012
816.807	25883
816.948	25932
817.089	25963
817.23	25925
817.371	25803
817.512	25879
817.653	25780
817.793	25803
817.934	25951
818.075	25887
818.216	25761
818.356	25746
818.497	25818
818.638	25479
818.778	25567
818.919	25674
819.06	25620
819.2	25620
819.341	25852
819.481	25822
819.622	25940
819.762	26187
819.903	26168
820.043	26001
820.184	26065
820.324	25875
820.465	26077
820.605	26103
820.746	26001
820.886	25662
821.026	25940
821.167	25883
821.307	26008
821.447	25738
821.588	25822
821.728	25643
821.868	25620
822.008	25415
822.149	25384
822.289	25327
822.429	25027
822.569	24913
822.709	25069
822.849	24776
822.99	24837
823.13	24814
823.27	24795
823.41	24757
823.55	24517
823.69	24646
823.83	24802
823.97	24616
824.11	24452
824.25	24388
824.389	24536
824.529	24639
824.669	24471
824.809	24707
824.949	24627
825.089	24525
825.228	24460
825.368	24243
825.508	24365
825.648	24289
825.787	24407
825.927	24289
826.067	24376
826.206	24273
826.346	24296
826.485	24369
826.625	24201
826.765	24445
826.904	24505
827.044	24114
827.183	24114
827.323	24057
827.462	24224
827.601	24079
827.741	23950
827.88	24049
828.02	23958
828.159	24034
828.298	24133
828.437	24140
828.577	24003
828.716	24148
828.855	23965
828.994	23718
829.134	23813
829.273	23748
829.412	23767
829.551	23699
829.69	23775
829.829	23642
829.968	23882
830.107	23824
830.246	23851
830.385	23794
830.524	23684
830.663	23718
830.802	23512
830.941	23391
831.08	23448
831.219	23509
831.357	23379
831.496	23600
831.635	23239
831.774	23334
831.913	23178
832.051	23086
832.19	23086
832.329	23086
832.467	23105
832.606	23109
832.744	23064
832.883	22999
833.022	23025
833.16	23064
833.299	23090
833.437	23098
833.576	23216
833.714	23067
833.852	23166
833.991	23185
834.129	23166
834.267	23151
834.406	23189
834.544	23181
834.682	23136
834.821	23090
834.959	23277
835.097	23060
835.235	23102
835.373	23231
835.511	23064
835.65	23014
835.788	22900
835.926	22896
836.064	22771
836.202	22702
836.34	23006
836.478	23113
836.615	22862
836.753	23102
836.891	23022
837.029	23029
837.167	22892
837.305	22839
837.443	22790
837.58	22877
837.718	22847
837.856	22740
837.993	22725
838.131	22790
838.269	22771
838.406	22611
838.544	22664
838.681	22459
838.819	22497
838.956	22200
839.094	22272
839.231	22409
839.369	22474
839.506	22729
839.643	22466
839.781	22310
839.918	22207
840.055	22341
840.193	22234
840.33	22226
840.467	22352
840.604	22181
840.742	22493
840.879	22048
841.016	22074
841.153	22044
841.29	22291
841.427	22090
841.564	22249
841.701	22147
841.838	22196
841.975	22177
842.112	22105
842.249	22226
842.385	21934
842.522	22036
842.659	22090
842.796	21926
842.933	21972
843.069	22021
843.206	22021
843.343	22006
843.479	22067
843.616	21861
843.752	21816
843.889	21739
844.025	21922
844.162	21774
844.298	21911
844.435	21739
844.571	21720
844.708	21888
844.844	21895
844.98	21857
845.117	21949
845.253	21770
845.389	21534
845.525	21667
845.661	21675
845.798	21477
845.934	21625
846.07	21576
846.206	21580
846.342	21686
846.478	21530
846.614	21325
846.75	21226
846.886	21291
847.022	21317
847.158	21252
847.294	21367
847.429	21306
847.565	21214
847.701	21435
847.837	21013
847.972	21013
848.108	21096
848.244	21123
848.379	20861
848.515	20788
848.65	20773
848.786	20876
848.921	20777
849.057	20868
849.192	20876
849.328	20956
849.463	20804
849.598	20746
849.734	20762
849.869	20724
850.004	20682
850.14	20689
850.275	20564
850.41	20457
850.545	20560
850.68	20636
850.815	20655
850.95	20663
851.085	20773
851.22	20693
851.355	20594
851.49	20613
851.625	20526
851.76	20488
851.895	20423
852.03	20480
852.165	20682
852.299	20750
852.434	20689
852.569	20556
852.703	20617
852.838	20648
852.973	20708
853.107	20815
853.242	20632
853.376	20556
853.511	20404
853.645	20419
853.78	20552
853.914	20427
854.048	20385
854.183	20419
854.317	20389
854.451	20731
854.585	20408
854.72	20419
854.854	20431
854.988	20396
855.122	20404
855.256	20248
855.39	20427
855.524	20442
855.658	20492
855.792	20454
855.926	20473
856.06	20541
856.194	20541
856.327	20450
856.461	20431
856.595	20446
856.729	20400
856.862	20568
856.996	20530
857.13	20480
857.263	20552
857.397	20442
857.53	20343
857.664	20450
857.797	20533
857.931	20473
858.064	20526
858.197	20556
858.331	20412
858.464	20450
858.597	20317
858.731	20313
858.864	20225
858.997	20351
859.13	20480
859.263	20598
859.396	20438
859.529	20480
859.662	20400
859.795	20393
859.928	20431
860.061	20674
860.194	20511
860.327	20469
860.46	20442
860.592	20545
860.725	20446
860.858	20609
860.99	20419
861.123	20320
861.256	20339
861.388	20332
861.521	20963
861.653	20396
861.786	20229
861.918	20290
862.05	20415
862.183	20313
862.315	20408
862.447	20358
862.58	20313
862.712	20149
862.844	20134
862.976	20252
863.108	20206
863.24	20571
863.372	20157
863.504	20157
863.636	20225
863.768	20180
863.9	20046
864.032	20115
864.164	20126
864.296	20221
864.428	20324
864.559	20062
864.691	20199
864.823	20161
864.954	20046
865.086	20107
865.217	20145
865.349	20058
865.48	19997
865.612	19917
865.743	20202
865.875	19993
866.006	19959
866.137	20161
866.269	20092
866.4	19913
866.531	20008
866.662	19982
866.793	19974
866.924	20024
867.055	20031
867.186	20050
867.317	20001
867.448	19898
867.579	19986
867.71	19955
867.841	19970
867.972	19989
868.103	19982
868.233	20024
868.364	19955
868.495	20153
868.625	20153
868.756	20381
868.886	20172
869.017	20145
869.147	20370
869.278	20313
869.408	20305
869.539	20328
869.669	20358
869.799	20267
869.929	20324
870.06	20294
870.19	20541
870.32	20434
870.45	20686
870.58	20682
870.71	20921
870.84	20625
870.97	20697
871.1	20708
871.23	20788
871.36	20815
871.489	20754
871.619	20781
871.749	20853
871.879	20902
872.008	20990
872.138	20758
872.267	20815
872.397	20678
872.526	20701
872.656	20594
872.785	20625
872.915	20826
873.044	20876
873.173	20910
873.303	20861
873.432	20849
873.561	20929
873.69	20925
873.819	20887
873.948	20910
874.077	20921
874.206	20834
874.335	20853
874.464	21062
874.593	21096
874.722	21108
874.851	21131
874.979	21047
875.108	21119
875.237	21043
875.365	21093
875.494	21036
875.623	21138
875.751	21176
875.88	21211
876.008	21306
876.136	21256
876.265	21583
876.393	21564
876.521	21564
876.65	21622
876.778	21382
876.906	21545
877.034	21553
877.162	21496
877.29	21530
877.418	21454
877.546	21507
877.674	21447
877.802	21477
877.93	21439
878.058	21363
878.185	21462
878.313	21469
878.441	21481
878.568	21283
878.696	21275
878.824	21405
878.951	21462
879.079	21622
879.206	21747
879.333	21576
879.461	21557
879.588	21576
879.715	21614
879.842	21694
879.97	21591
880.097	21298
880.224	21207
880.351	21363
880.478	21405
880.605	21340
880.732	21287
880.859	21530
880.986	21310
881.112	21355
881.239	21150
881.366	21131
881.493	20891
881.619	20853
881.746	20902
881.872	20948
881.999	20876
882.125	20868
882.252	20952
882.378	20891
882.505	21085
882.631	20674
882.757	20636
882.883	20697
883.01	20587
883.136	20446
883.262	20423
883.388	20465
883.514	20583
883.64	20613
883.766	20442
883.892	20328
884.018	20507
884.143	20606
884.269	20651
884.395	20431
884.52	20088
884.646	20301
884.772	20286
884.897	20210
885.023	20256
885.148	20347
885.274	20503
885.399	20332
885.524	20199
885.65	20275
885.775	20244
885.9	20145
886.025	20195
886.15	20282
886.275	20183
886.4	20164
886.525	20180
886.65	20096
886.775	20290
886.9	20332
887.025	20495
887.149	20164
887.274	20054
887.399	20088
887.523	19978
887.648	20016
887.773	19864
887.897	20039
888.021	19921
888.146	19928
888.27	20107
888.395	20077
888.519	19963
888.643	20172
888.767	20031
888.891	19951
889.015	19936
889.139	19890
889.263	19765
889.387	19993
889.511	20016
889.635	19970
889.759	19772
889.883	19852
890.006	19894
890.13	19906
890.254	19677
890.377	19670
890.501	19620
890.624	19582
890.748	19628
890.871	19506
890.995	19472
891.118	19419
891.241	19388
891.364	19365
891.488	19499
891.611	19480
891.734	19377
891.857	19499
891.98	19491
892.103	19438
892.226	19388
892.349	19438
892.471	19141
892.594	19274
892.717	19373
892.839	19381
892.962	19430
893.085	19472
893.207	19316
893.33	19217
893.452	19316
893.575	19358
893.697	19331
893.819	19377
893.941	19525
894.064	19499
894.186	19282
894.308	19346
894.43	19419
894.552	19548
894.674	19377
894.796	19316
894.918	19282
895.04	19282
895.161	19392
895.283	19324
895.405	19377
895.526	19320
895.648	19453
895.769	19346
895.891	19343
896.012	19518
896.134	19312
896.255	19232
896.376	19297
896.498	19365
896.619	19346
896.74	19377
896.861	19327
896.982	19693
897.103	19784
897.224	19696
897.345	19590
897.466	19533
897.587	19575
897.708	19780
897.828	19635
897.949	19453
898.07	19441
898.19	19483
898.311	19723
898.431	19445
898.552	19708
898.672	19689
898.792	19719
898.913	19506
899.033	19552
899.153	19495
899.273	19381
899.393	19312
899.513	19438
899.633	19343
899.753	19312
899.873	19373
899.993	19411
900.113	19304
900.232	19354
900.352	19324
900.472	19209
900.591	19297
900.711	19148
900.83	19103
900.95	19244
901.069	19266
901.189	19232
901.308	18897
901.427	18806
901.546	18825
901.665	18760
901.784	18802
901.904	18623
902.023	18570
902.141	18441
902.26	18376
902.379	18300
902.498	18224
902.617	18190
902.735	18342
902.854	18289
902.973	18064
903.091	17931
903.21	18038
903.328	18011
903.446	17855
903.565	17748
903.683	17737
903.801	17596
903.919	17794
904.038	17684
904.156	17493
904.274	17589
904.392	17509
904.51	17474
904.627	17474
904.745	17642
904.863	17539
904.981	17250
905.098	17303
905.216	17345
905.334	17246
905.451	17197
905.569	17185
905.686	17269
905.803	17315
905.921	16930
906.038	17155
906.155	17064
906.272	17014
906.389	16999
906.506	16831
906.623	16755
906.74	16847
906.857	16580
906.974	16797
907.091	16847
907.208	16839
907.324	16843
907.441	16710
907.557	16481
907.674	16405
907.79	16466
907.907	16436
908.023	16493
908.139	16447
908.256	16455
908.372	16363
908.488	16379
908.604	16230
908.72	16226
908.836	16143
908.952	16192
909.068	16135
909.184	16280
909.3	16268
909.415	16204
909.531	16291
909.647	16048
909.762	15945
909.878	15869
909.993	15880
910.108	15842
910.224	15972
910.339	16040
910.454	15827
910.57	15759
910.685	15717
910.8	15960
910.915	15922
911.03	15663
911.145	15781
911.259	15534
911.374	15580
911.489	15553
911.604	15412
911.718	15230
911.833	15226
911.947	15192
912.062	15047
912.176	15237
912.291	15344
912.405	15226
912.519	15435
912.633	15473
912.748	15298
912.862	15256
912.976	15119
913.09	15043
913.204	15051
913.318	15142
913.431	15214
913.545	15161
913.659	15211
913.772	15024
913.886	14975
914	14902
914.113	14941
914.226	15119
914.34	14921
914.453	14834
914.566	14853
914.68	14765
914.793	14708
914.906	14617
915.019	14602
915.132	14503
915.245	14514
915.358	14549
915.47	14530
915.583	14613
915.696	14644
915.809	14708
915.921	14587
916.034	14454
916.146	14495
916.259	14556
916.371	14533
916.483	14518
916.595	14332
916.708	14351
916.82	14404
916.932	14347
917.044	14358
917.156	14320
917.268	14290
917.38	14164
917.491	14187
917.603	14202
917.715	14259
917.826	14301
917.938	14240
918.049	14103
918.161	14191
918.272	14358
918.384	14317
918.495	14134
918.606	14069
918.717	14020
918.828	13997
918.939	13978
919.05	13860
919.161	14020
919.272	13868
919.383	13894
919.494	13989
919.604	14046
919.715	13959
919.826	13875
919.936	13906
920.047	14039
920.157	13856
920.267	14153
920.378	14043
920.488	13864
920.598	14119
920.708	14298
920.818	14168
920.928	14020
921.038	14271
921.148	14225
921.258	13947
921.368	13864
921.477	13674
921.587	13658
921.697	13613
921.806	13689
921.916	13601
922.025	13381
922.134	13358
922.244	13293
922.353	13381
922.462	13316
922.571	13190
922.68	12996
922.789	12924
922.898	13034
923.007	12928
923.116	13080
923.224	12909
923.333	12947
923.442	12837
923.55	12886
923.659	12890
923.767	12875
923.876	12757
923.984	12810
924.092	12776
924.201	12882
924.309	12757
924.417	12715
924.525	12604
924.633	12650
924.741	13586
924.849	12498
924.956	12601
925.064	12467
925.172	12372
925.279	12410
925.387	12376
925.494	12422
925.602	12528
925.709	12494
925.816	12407
925.924	12365
926.031	12506
926.138	12391
926.245	12532
926.352	12266
926.459	12464
926.566	12551
926.673	12289
926.779	12262
926.886	12232
926.993	12068
927.099	12098
927.206	11923
927.312	11954
927.419	12022
927.525	11961
927.631	12015
927.737	11931
927.843	11965
927.95	11821
928.056	11866
928.162	11882
928.267	11965
928.373	12445
928.479	11946
928.585	11707
928.69	11847
928.796	11893
928.901	11688
929.007	11585
929.112	11756
929.218	11726
929.323	11684
929.428	11638
929.533	11741
929.638	11471
929.743	11524
929.848	11566
929.953	11592
930.058	11395
930.163	11292
930.267	11345
930.372	11417
930.477	11261
930.581	11543
930.685	11318
930.79	11193
930.894	11239
930.998	11151
931.103	11242
931.207	10942
931.311	10965
931.415	10801
931.519	10538
931.623	10615
