Data from test_V78500241_3530.txt Node
Date: Fri Mar 25 15:34:26 CST 2022
User: usil
Spectrometer: V785-0024
Trigger mode: 0
Integration Time (sec): 4.000000E-1
Scans to average: 1
Nonlinearity correction enabled: false
Boxcar width: 0
Storing dark spectrum: false
XAxis mode: Wavelengths
Number of Pixels in Spectrum: 1024
>>>>>Begin Spectral Data<<<<<
801.071	27348
801.214	27313
801.356	27150
801.499	27085
801.641	26986
801.783	26895
801.926	26986
802.068	27001
802.211	26910
802.353	26746
802.496	26594
802.638	26659
802.78	26712
802.923	26480
803.065	26442
803.208	26423
803.35	26579
803.492	26583
803.635	26762
803.777	26651
803.919	26644
804.061	27123
804.204	26773
804.346	26663
804.488	26629
804.63	26857
804.773	26609
804.915	26663
805.057	26887
805.199	26648
805.341	26823
805.483	26895
805.626	26861
805.768	26724
805.91	26705
806.052	26838
806.194	26777
806.336	26956
806.478	26792
806.62	26834
806.762	26906
806.904	27074
807.046	27378
807.188	27203
807.33	27161
807.472	27378
807.614	27230
807.756	27252
807.898	26963
808.04	27039
808.182	27096
808.324	27116
808.465	27138
808.607	27336
808.749	27488
808.891	27485
809.033	27591
809.174	27523
809.316	27340
809.458	27473
809.6	27370
809.741	27447
809.883	27675
810.025	27656
810.166	27694
810.308	27804
810.45	27652
810.591	27610
810.733	27405
810.875	27382
811.016	27336
811.158	27401
811.299	27397
811.441	27500
811.582	27625
811.724	27496
811.865	27367
812.007	27431
812.148	27435
812.29	27561
812.431	27504
812.573	27743
812.714	27781
812.855	27869
812.997	27949
813.138	28192
813.279	28013
813.421	27888
813.562	27804
813.703	27633
813.845	27534
813.986	27230
814.127	27108
814.268	27020
814.41	27272
814.551	27165
814.692	27249
814.833	27081
814.974	27176
815.115	27077
815.256	26986
815.397	26842
815.539	26990
815.68	27058
815.821	26739
815.962	26864
816.103	26937
816.244	26807
816.385	26522
816.526	26625
816.666	26545
816.807	26256
816.948	26442
817.089	26461
817.23	26423
817.371	26431
817.512	26320
817.653	26290
817.793	26290
817.934	26366
818.075	26469
818.216	26396
818.356	26294
818.497	26172
818.638	26081
818.778	26122
818.919	26065
819.06	26069
819.2	26180
819.341	26248
819.481	26332
819.622	26541
819.762	26663
819.903	26609
820.043	26434
820.184	26355
820.324	26404
820.465	26571
820.605	26583
820.746	26522
820.886	26434
821.026	26374
821.167	26347
821.307	26396
821.447	26324
821.588	26290
821.728	26313
821.868	26012
822.008	25860
822.149	25795
822.289	25833
822.429	25548
822.569	25422
822.709	25567
822.849	25445
822.99	25392
823.13	25285
823.27	25304
823.41	25228
823.55	25053
823.69	25118
823.83	25107
823.97	25050
824.11	24901
824.25	24932
824.389	24962
824.529	25000
824.669	24996
824.809	25057
824.949	25091
825.089	25057
825.228	25015
825.368	24958
825.508	24840
825.648	24943
825.787	24844
825.927	24837
826.067	24753
826.206	24890
826.346	24772
826.485	24837
826.625	24745
826.765	24875
826.904	24992
827.044	24642
827.183	24623
827.323	24505
827.462	24661
827.601	24505
827.741	24566
827.88	24639
828.02	24490
828.159	24456
828.298	24566
828.437	24578
828.577	24414
828.716	24582
828.855	24429
828.994	24376
829.134	24239
829.273	24270
829.412	24277
829.551	24171
829.69	24209
829.829	24232
829.968	24243
830.107	24391
830.246	24239
830.385	24216
830.524	24121
830.663	23992
830.802	24022
830.941	23889
831.08	23843
831.219	24121
831.357	23980
831.496	24194
831.635	23923
831.774	23813
831.913	23790
832.051	23600
832.19	23714
832.329	23805
832.467	23627
832.606	23444
832.744	23478
832.883	23615
833.022	23520
833.16	23558
833.299	23581
833.437	23581
833.576	23627
833.714	23691
833.852	23707
833.991	23661
834.129	23737
834.267	23623
834.406	23745
834.544	23630
834.682	23680
834.821	23691
834.959	23764
835.097	23627
835.235	23638
835.373	23649
835.511	23627
835.65	23581
835.788	23490
835.926	23398
836.064	23265
836.202	23353
836.34	23512
836.478	23634
836.615	23421
836.753	23452
836.891	23486
837.029	23539
837.167	23539
837.305	23395
837.443	23376
837.58	23280
837.718	23353
837.856	23231
837.993	23341
838.131	23258
838.269	23356
838.406	23239
838.544	23136
838.681	22980
838.819	23037
838.956	22835
839.094	22740
839.231	22953
839.369	22934
839.506	23185
839.643	23143
839.781	22786
839.918	22801
840.055	22801
840.193	22828
840.33	22755
840.467	22763
840.604	22767
840.742	23098
840.879	22599
841.016	22812
841.153	22649
841.29	22797
841.427	22713
841.564	22797
841.701	22767
841.838	22820
841.975	22645
842.112	22603
842.249	22599
842.385	22504
842.522	22850
842.659	22626
842.796	22535
842.933	22538
843.069	22363
843.206	22379
843.343	22516
843.479	22561
843.616	22550
843.752	22287
843.889	22306
844.025	22421
844.162	22291
844.298	22344
844.435	22291
844.571	22322
844.708	22421
844.844	22584
844.98	22440
845.117	22443
845.253	22215
845.389	22158
845.525	22143
845.661	22200
845.798	22055
845.934	22185
846.07	21960
846.206	21991
846.342	22036
846.478	22021
846.614	21778
846.75	21652
846.886	21690
847.022	21960
847.158	21819
847.294	21876
847.429	21816
847.565	21785
847.701	22025
847.837	21557
847.972	21454
848.108	21576
848.244	21431
848.379	21431
848.515	21252
848.65	21329
848.786	21302
848.921	21348
849.057	21370
849.192	21363
849.328	21447
849.463	21298
849.598	21306
849.734	21340
849.869	21146
850.004	21241
850.14	21135
850.275	21093
850.41	21028
850.545	21039
850.68	21017
850.815	21150
850.95	21077
851.085	21298
851.22	21108
851.355	21192
851.49	20952
851.625	21017
851.76	21070
851.895	21116
852.03	20941
852.165	21161
852.299	21169
852.434	21089
852.569	21165
852.703	21146
852.838	21157
852.973	21146
853.107	21306
853.242	21146
853.376	20998
853.511	20788
853.645	20925
853.78	21108
853.914	20925
854.048	20834
854.183	20826
854.317	20986
854.451	21161
854.585	20998
854.72	20899
854.854	21005
854.988	20826
855.122	20956
855.256	20899
855.39	20952
855.524	20910
855.658	20960
855.792	20998
855.926	20921
856.06	21001
856.194	20960
856.327	20933
856.461	20929
856.595	20842
856.729	20857
856.862	20975
856.996	20979
857.13	20998
857.263	20956
857.397	20960
857.53	20990
857.664	21096
857.797	20998
857.931	21150
858.064	21020
858.197	20975
858.331	20910
858.464	20861
858.597	20785
858.731	20963
858.864	20899
858.997	20891
859.13	20937
859.263	20929
859.396	20971
859.529	20967
859.662	20952
859.795	20804
859.928	20899
860.061	21074
860.194	21146
860.327	20937
860.46	21013
860.592	21024
860.725	21055
860.858	20967
860.99	20925
861.123	20815
861.256	20777
861.388	20914
861.521	21800
861.653	20834
861.786	20598
861.918	20819
862.05	20868
862.183	20811
862.315	20975
862.447	20979
862.58	20895
862.712	20670
862.844	20621
862.976	20697
863.108	20644
863.24	21058
863.372	20594
863.504	20594
863.636	20598
863.768	20667
863.9	20659
864.032	20583
864.164	20625
864.296	20697
864.428	20788
864.559	20716
864.691	20735
864.823	20587
864.954	20655
865.086	20552
865.217	20731
865.349	20465
865.48	20522
865.612	20609
865.743	20644
865.875	20552
866.006	20537
866.137	20644
866.269	20571
866.4	20530
866.531	20606
866.662	20526
866.793	20438
866.924	20476
867.055	20598
867.186	20415
867.317	20385
867.448	20370
867.579	20473
867.71	20412
867.841	20488
867.972	20594
868.103	20457
868.233	20499
868.364	20488
868.495	20583
868.625	20769
868.756	20724
868.886	20689
869.017	20716
869.147	20815
869.278	20838
869.408	20811
869.539	20697
869.669	20834
869.799	20845
869.929	21013
870.06	20788
870.19	21017
870.32	20967
870.45	21051
870.58	21119
870.71	21218
870.84	21245
870.97	21108
871.1	21226
871.23	21332
871.36	21306
871.489	21249
871.619	21340
871.749	21450
871.879	21401
872.008	21439
872.138	21420
872.267	21302
872.397	21268
872.526	21131
872.656	21203
872.785	21214
872.915	21389
873.044	21523
873.173	21439
873.303	21378
873.432	21428
873.561	21386
873.69	21443
873.819	21481
873.948	21530
874.077	21378
874.206	21344
874.335	21473
874.464	21545
874.593	21553
874.722	21530
874.851	21743
874.979	21679
875.108	21587
875.237	21572
875.365	21485
875.494	21671
875.623	21648
875.751	21629
875.88	21618
876.008	21728
876.136	21804
876.265	22105
876.393	22166
876.521	22120
876.65	22097
876.778	22048
876.906	22086
877.034	21907
877.162	22090
877.29	22017
877.418	22040
877.546	21972
877.674	22010
877.802	22029
877.93	21865
878.058	21918
878.185	21922
878.313	21892
878.441	21956
878.568	21850
878.696	21926
878.824	21983
878.951	22082
879.079	22253
879.206	22363
879.333	22055
879.461	22124
879.588	21975
879.715	22158
879.842	22291
879.97	22021
880.097	21717
880.224	21880
880.351	21766
880.478	21774
880.605	21812
880.732	21850
880.859	22070
880.986	21861
881.112	21778
881.239	21709
881.366	21549
881.493	21519
881.619	21443
881.746	21393
881.872	21329
881.999	21389
882.125	21416
882.252	21363
882.378	21450
882.505	21481
882.631	21443
882.757	21138
882.883	21203
883.01	21150
883.136	21116
883.262	20982
883.388	21032
883.514	21051
883.64	21161
883.766	20960
883.892	20975
884.018	20994
884.143	20952
884.269	21062
884.395	20823
884.52	20762
884.646	20739
884.772	20655
884.897	20598
885.023	20845
885.148	20864
885.274	20982
885.399	20914
885.524	20762
885.65	20819
885.775	20720
885.9	20792
886.025	20853
886.15	20788
886.275	20689
886.4	20670
886.525	20686
886.65	20583
886.775	20720
886.9	20864
887.025	20872
887.149	20697
887.274	20541
887.399	20602
887.523	20530
887.648	20480
887.773	20324
887.897	20556
888.021	20587
888.146	20389
888.27	20556
888.395	20602
888.519	20556
888.643	20514
888.767	20659
888.891	20393
889.015	20271
889.139	20320
889.263	20271
889.387	20507
889.511	20560
889.635	20423
889.759	20271
889.883	20305
890.006	20374
890.13	20366
890.254	20248
890.377	20248
890.501	20107
890.624	19986
890.748	20005
890.871	19925
890.995	19868
891.118	19917
891.241	19909
891.364	19871
891.488	20001
891.611	19814
891.734	20020
891.857	19875
891.98	20012
892.103	19944
892.226	19898
892.349	19715
892.471	19746
892.594	19822
892.717	19852
892.839	19852
892.962	19791
893.085	19989
893.207	19772
893.33	19677
893.452	19757
893.575	19837
893.697	19761
893.819	19928
893.941	19978
894.064	19959
894.186	19788
894.308	19841
894.43	19913
894.552	19970
894.674	20046
894.796	19639
894.918	19860
895.04	19814
895.161	19818
895.283	19814
895.405	19712
895.526	19791
895.648	19788
895.769	19746
895.891	19761
896.012	19928
896.134	19818
896.255	19852
896.376	19689
896.498	19830
896.619	19780
896.74	19818
896.861	19940
896.982	20122
897.103	20336
897.224	20008
897.345	19982
897.466	19974
897.587	20008
897.708	20157
897.828	20062
897.949	20012
898.07	19856
898.19	19978
898.311	19989
898.431	19974
898.552	19944
898.672	20195
898.792	20073
898.913	20050
899.033	20039
899.153	19860
899.273	19795
899.393	19845
899.513	19772
899.633	19772
899.753	19723
899.873	19765
899.993	19746
900.113	19772
900.232	19864
900.352	19670
900.472	19639
900.591	19567
900.711	19590
900.83	19438
900.95	19651
901.069	19575
901.189	19400
901.308	19168
901.427	18985
901.546	19278
901.665	19194
901.784	19122
901.904	19057
902.023	18928
902.141	18692
902.26	18601
902.379	18764
902.498	18620
902.617	18646
902.735	18635
902.854	18669
902.973	18650
903.091	18338
903.21	18395
903.328	18350
903.446	18209
903.565	18205
903.683	18228
903.801	18083
903.919	18079
904.038	18152
904.156	17901
904.274	17969
904.392	17882
904.51	17931
904.627	17889
904.745	17980
904.863	17885
904.981	17646
905.098	17623
905.216	17642
905.334	17573
905.451	17467
905.569	17573
905.686	17630
905.803	17699
905.921	17406
906.038	17558
906.155	17471
906.272	17296
906.389	17322
906.506	17174
906.623	17220
906.74	17018
906.857	16987
906.974	17056
907.091	17261
907.208	17299
907.324	17200
907.441	17022
907.557	16820
907.674	16820
907.79	16824
907.907	16774
908.023	16908
908.139	16847
908.256	16805
908.372	16877
908.488	16847
908.604	16622
908.72	16580
908.836	16527
908.952	16641
909.068	16577
909.184	16569
909.3	16603
909.415	16580
909.531	16653
909.647	16276
909.762	16173
909.878	16242
909.993	16192
910.108	16314
910.224	16246
910.339	16314
910.454	16188
910.57	16090
910.685	16112
910.8	16265
910.915	16238
911.03	16143
911.145	15926
911.259	15926
911.374	15793
911.489	15804
911.604	15766
911.718	15656
911.833	15633
911.947	15576
912.062	15428
912.176	15675
912.291	15667
912.405	15660
912.519	15751
912.633	15838
912.748	15778
912.862	15564
912.976	15523
913.09	15370
913.204	15466
913.318	15420
913.431	15549
913.545	15511
913.659	15519
913.772	15466
913.886	15485
914	15184
914.113	15298
914.226	15401
914.34	15344
914.453	15119
914.566	15359
914.68	15047
914.793	15165
914.906	14971
915.019	14796
915.132	14857
915.245	14807
915.358	14902
915.47	14906
915.583	14895
915.696	15028
915.809	14971
915.921	14998
916.034	14796
916.146	14857
916.259	14720
916.371	14845
916.483	14811
916.595	14659
916.708	14750
916.82	14655
916.932	14682
917.044	14739
917.156	14629
917.268	14533
917.38	14579
917.491	14537
917.603	14575
917.715	14549
917.826	14579
917.938	14549
918.049	14434
918.161	14488
918.272	14651
918.384	14549
918.495	14499
918.606	14336
918.717	14233
918.828	14362
918.939	14362
919.05	14161
919.161	14218
919.272	14062
919.383	14180
919.494	14343
919.604	14480
919.715	14351
919.826	14172
919.936	14180
920.047	14290
920.157	14267
920.267	14499
920.378	14358
920.488	14275
920.598	14427
920.708	14476
920.818	14450
920.928	14343
921.038	14575
921.148	14476
921.258	14305
921.368	14168
921.477	14050
921.587	13970
921.697	13917
921.806	14031
921.916	13841
922.025	13769
922.134	13662
922.244	13605
922.353	13696
922.462	13563
922.571	13483
922.68	13282
922.789	13202
922.898	13289
923.007	13168
923.116	13415
923.224	13255
923.333	13289
923.442	13137
923.55	13080
923.659	13183
923.767	13198
923.876	13118
923.984	13217
924.092	13034
924.201	13103
924.309	12989
924.417	13012
924.525	12947
924.633	13046
924.741	13712
924.849	12768
924.956	12871
925.064	12760
925.172	12711
925.279	12703
925.387	12700
925.494	12760
925.602	12920
925.709	12833
925.816	12646
925.924	12703
926.031	12745
926.138	12646
926.245	12711
926.352	12563
926.459	12768
926.566	12711
926.673	12665
926.779	12456
926.886	12418
926.993	12372
927.099	12285
927.206	12342
927.312	12281
927.419	12353
927.525	12330
927.631	12361
927.737	12235
927.843	12068
927.95	12057
928.056	12095
928.162	12167
928.267	12106
928.373	12642
928.479	12262
928.585	11999
928.69	12102
928.796	12178
928.901	12022
929.007	11836
929.112	12026
929.218	11847
929.323	11885
929.428	11889
929.533	12026
929.638	11836
929.743	11802
929.848	11828
929.953	11840
930.058	11642
930.163	11532
930.267	11562
930.372	11714
930.477	11474
930.581	11691
930.685	11532
930.79	11433
930.894	11471
930.998	11429
931.103	11573
931.207	11174
931.311	11064
931.415	11052
931.519	10877
931.623	10744
