Data from test_V78500241_1599.txt Node
Date: Fri Mar 25 15:20:59 CST 2022
User: usil
Spectrometer: V785-0024
Trigger mode: 0
Integration Time (sec): 4.000000E-1
Scans to average: 1
Nonlinearity correction enabled: false
Boxcar width: 0
Storing dark spectrum: false
XAxis mode: Wavelengths
Number of Pixels in Spectrum: 1024
>>>>>Begin Spectral Data<<<<<
801.071	28006
801.214	28006
801.356	27633
801.499	27477
801.641	27427
801.783	27427
801.926	27462
802.068	27435
802.211	27545
802.353	27291
802.496	27279
802.638	27173
802.78	27066
802.923	27039
803.065	26963
803.208	26998
803.35	27077
803.492	27401
803.635	27260
803.777	27199
803.919	27329
804.061	27618
804.204	27424
804.346	27218
804.488	27374
804.63	27329
804.773	27241
804.915	27427
805.057	27332
805.199	27321
805.341	27393
805.483	27439
805.626	27466
805.768	27302
805.91	27321
806.052	27492
806.194	27348
806.336	27606
806.478	27355
806.62	27397
806.762	27595
806.904	27698
807.046	27907
807.188	27857
807.33	27911
807.472	27907
807.614	27766
807.756	27804
807.898	27823
808.04	27797
808.182	27755
808.324	27694
808.465	27679
808.607	28097
808.749	28025
808.891	28173
809.033	28105
809.174	28192
809.316	27998
809.458	27991
809.6	28017
809.741	28234
809.883	28131
810.025	28413
810.166	28386
810.308	28394
810.45	28280
810.591	28344
810.733	28112
810.875	28013
811.016	27991
811.158	27922
811.299	28200
811.441	28223
811.582	28249
811.724	28128
811.865	28128
812.007	28116
812.148	28025
812.29	28055
812.431	28291
812.573	28356
812.714	28470
812.855	28569
812.997	28713
813.138	28831
813.279	28733
813.421	28698
813.562	28641
813.703	28440
813.845	28128
813.986	28017
814.127	27911
814.268	27591
814.41	27804
814.551	27717
814.692	27903
814.833	27770
814.974	27713
815.115	27812
815.256	27694
815.397	27739
815.539	27633
815.68	27496
815.821	27511
815.962	27656
816.103	27542
816.244	27511
816.385	27348
816.526	27245
816.666	27104
816.807	27146
816.948	27131
817.089	27298
817.23	27142
817.371	27028
817.512	27043
817.653	27036
817.793	27093
817.934	27116
818.075	27043
818.216	27176
818.356	26960
818.497	26876
818.638	26800
818.778	26796
818.919	26880
819.06	26880
819.2	26967
819.341	27047
819.481	27009
819.622	27127
819.762	27348
819.903	27332
820.043	27169
820.184	27142
820.324	27348
820.465	27218
820.605	27142
820.746	27272
820.886	26937
821.026	27100
821.167	27116
821.307	27188
821.447	27047
821.588	26914
821.728	26834
821.868	26640
822.008	26556
822.149	26503
822.289	26530
822.429	26328
822.569	26313
822.709	26020
822.849	26077
822.99	26046
823.13	26050
823.27	25963
823.41	25925
823.55	25788
823.69	25833
823.83	25814
823.97	25788
824.11	25643
824.25	25635
824.389	25643
824.529	25742
824.669	25696
824.809	25750
824.949	25776
825.089	25761
825.228	25746
825.368	25419
825.508	25540
825.648	25559
825.787	25674
825.927	25624
826.067	25601
826.206	25430
826.346	25658
826.485	25651
826.625	25434
826.765	25655
826.904	25609
827.044	25244
827.183	25308
827.323	25190
827.462	25320
827.601	25247
827.741	25213
827.88	25148
828.02	25095
828.159	25187
828.298	25263
828.437	25240
828.577	25240
828.716	25358
828.855	25076
828.994	25015
829.134	24943
829.273	25141
829.412	24973
829.551	24760
829.69	24890
829.829	25088
829.968	24996
830.107	24966
830.246	24882
830.385	24924
830.524	24840
830.663	24700
830.802	24783
830.941	24502
831.08	24574
831.219	24604
831.357	24616
831.496	24753
831.635	24528
831.774	24540
831.913	24467
832.051	24395
832.19	24361
832.329	24376
832.467	24475
832.606	24209
832.744	24083
832.883	24178
833.022	24216
833.16	24372
833.299	24213
833.437	24281
833.576	24289
833.714	24232
833.852	24369
833.991	24315
834.129	24376
834.267	24365
834.406	24323
834.544	24235
834.682	24350
834.821	24205
834.959	24342
835.097	24292
835.235	24319
835.373	24277
835.511	24114
835.65	24072
835.788	24152
835.926	24106
836.064	23882
836.202	23984
836.34	24038
836.478	24251
836.615	24087
836.753	24148
836.891	24167
837.029	24060
837.167	24106
837.305	23980
837.443	23954
837.58	23809
837.718	24003
837.856	23897
837.993	23908
838.131	24102
838.269	23771
838.406	23771
838.544	23680
838.681	23596
838.819	23687
838.956	23467
839.094	23425
839.231	23482
839.369	23486
839.506	23889
839.643	23676
839.781	23490
839.918	23425
840.055	23436
840.193	23326
840.33	23478
840.467	23227
840.604	23410
840.742	23589
840.879	23208
841.016	23231
841.153	23147
841.29	23425
841.427	23334
841.564	23398
841.701	23280
841.838	23261
841.975	23250
842.112	23147
842.249	23162
842.385	23014
842.522	23318
842.659	23170
842.796	23044
842.933	23143
843.069	23109
843.206	23048
843.343	23003
843.479	23044
843.616	23052
843.752	22976
843.889	22976
844.025	23075
844.162	22854
844.298	23044
844.435	22904
844.571	22812
844.708	22923
844.844	22995
844.98	23041
845.117	23079
845.253	22881
845.389	22645
845.525	22778
845.661	22675
845.798	22675
845.934	22535
846.07	22580
846.206	22603
846.342	22675
846.478	22565
846.614	22356
846.75	22211
846.886	22150
847.022	22409
847.158	22455
847.294	22325
847.429	22394
847.565	22291
847.701	22500
847.837	22128
847.972	22128
848.108	22162
848.244	22013
848.379	21918
848.515	21915
848.65	21937
848.786	21903
848.921	22017
849.057	22029
849.192	22017
849.328	21964
849.463	21888
849.598	21785
849.734	21880
849.869	21781
850.004	21690
850.14	21690
850.275	21755
850.41	21572
850.545	21591
850.68	21633
850.815	21709
850.95	21690
851.085	21797
851.22	21823
851.355	21823
851.49	21622
851.625	21614
851.76	21694
851.895	21686
852.03	21561
852.165	21705
852.299	21812
852.434	21720
852.569	21724
852.703	21717
852.838	21694
852.973	21800
853.107	21827
853.242	21641
853.376	21660
853.511	21416
853.645	21557
853.78	21576
853.914	21564
854.048	21500
854.183	21500
854.317	21500
854.451	21823
854.585	21469
854.72	21507
854.854	21568
854.988	21412
855.122	21504
855.256	21393
855.39	21447
855.524	21454
855.658	21530
855.792	21507
855.926	21568
856.06	21599
856.194	21542
856.327	21614
856.461	21435
856.595	21397
856.729	21637
856.862	21606
856.996	21511
857.13	21618
857.263	21709
857.397	21694
857.53	21469
857.664	21583
857.797	21542
857.931	21671
858.064	21580
858.197	21485
858.331	21534
858.464	21401
858.597	21477
858.731	21504
858.864	21583
858.997	21458
859.13	21485
859.263	21549
859.396	21644
859.529	21485
859.662	21488
859.795	21496
859.928	21576
860.061	21667
860.194	21663
860.327	21473
860.46	21568
860.592	21587
860.725	21610
860.858	21553
860.99	21534
861.123	21424
861.256	21485
861.388	21591
861.521	22223
861.653	21332
861.786	21450
861.918	21382
862.05	21389
862.183	21515
862.315	21485
862.447	21481
862.58	21496
862.712	21180
862.844	21245
862.976	21275
863.108	21291
863.24	21496
863.372	21173
863.504	21230
863.636	21195
863.768	21363
863.9	21233
864.032	21184
864.164	21146
864.296	21275
864.428	21298
864.559	21264
864.691	21260
864.823	21176
864.954	21211
865.086	21222
865.217	21127
865.349	21058
865.48	21135
865.612	21085
865.743	21260
865.875	21169
866.006	21104
866.137	21024
866.269	21211
866.4	21093
866.531	21028
866.662	21013
866.793	21028
866.924	21043
867.055	21203
867.186	21138
867.317	20971
867.448	20979
867.579	21081
867.71	20902
867.841	21005
867.972	21024
868.103	21104
868.233	21009
868.364	21074
868.495	21104
868.625	21310
868.756	21378
868.886	21161
869.017	21169
869.147	21313
869.278	21405
869.408	21279
869.539	21291
869.669	21348
869.799	21355
869.929	21534
870.06	21329
870.19	21469
870.32	21561
870.45	21599
870.58	21625
870.71	21739
870.84	21728
870.97	21694
871.1	21705
871.23	21835
871.36	21842
871.489	21717
871.619	21785
871.749	21930
871.879	21800
872.008	21945
872.138	21979
872.267	21884
872.397	21770
872.526	21690
872.656	21641
872.785	21644
872.915	21907
873.044	21991
873.173	21926
873.303	21987
873.432	21998
873.561	21987
873.69	21941
873.819	21941
873.948	21903
874.077	21949
874.206	21850
874.335	21850
874.464	22105
874.593	22112
874.722	22048
874.851	22120
874.979	22082
875.108	22230
875.237	22017
875.365	21979
875.494	22135
875.623	22276
875.751	22055
875.88	22093
876.008	22344
876.136	22367
876.265	22694
876.393	22672
876.521	22577
876.65	22603
876.778	22565
876.906	22409
877.034	22485
877.162	22424
877.29	22371
877.418	22523
877.546	22497
877.674	22394
877.802	22512
877.93	22500
878.058	22478
878.185	22379
878.313	22291
878.441	22489
878.568	22291
878.696	22276
878.824	22478
878.951	22523
879.079	22622
879.206	22736
879.333	22596
879.461	22535
879.588	22626
879.715	22546
879.842	22736
879.97	22500
880.097	22360
880.224	22333
880.351	22394
880.478	22230
880.605	22310
880.732	22344
880.859	22493
880.986	22390
881.112	22234
881.239	22280
881.366	22013
881.493	21949
881.619	21937
881.746	21876
881.872	21960
881.999	21892
882.125	21793
882.252	21827
882.378	21789
882.505	21956
882.631	21835
882.757	21637
882.883	21690
883.01	21549
883.136	21504
883.262	21428
883.388	21321
883.514	21641
883.64	21667
883.766	21481
883.892	21374
884.018	21401
884.143	21439
884.269	21576
884.395	21264
884.52	21294
884.646	21214
884.772	21104
884.897	21138
885.023	21283
885.148	21283
885.274	21389
885.399	21272
885.524	21207
885.65	21161
885.775	21157
885.9	21169
886.025	21389
886.15	21344
886.275	21176
886.4	21051
886.525	21146
886.65	21055
886.775	21039
886.9	21294
887.025	21507
887.149	21123
887.274	20979
887.399	21020
887.523	20895
887.648	20975
887.773	20925
887.897	20986
888.021	20960
888.146	20895
888.27	21039
888.395	21047
888.519	20895
888.643	21028
888.767	21009
888.891	20956
889.015	20796
889.139	20929
889.263	20735
889.387	20758
889.511	21070
889.635	20861
889.759	20682
889.883	20785
890.006	20724
890.13	20785
890.254	20705
890.377	20644
890.501	20511
890.624	20446
890.748	20606
890.871	20511
890.995	20259
891.118	20244
891.241	20343
891.364	20324
891.488	20457
891.611	20347
891.734	20347
891.857	20404
891.98	20313
892.103	20396
892.226	20275
892.349	20229
892.471	20027
892.594	20233
892.717	20339
892.839	20218
892.962	20206
893.085	20294
893.207	20214
893.33	20107
893.452	20161
893.575	20214
893.697	20180
893.819	20336
893.941	20339
894.064	20355
894.186	20191
894.308	20088
894.43	20290
894.552	20343
894.674	20328
894.796	20191
894.918	20183
895.04	20229
895.161	20336
895.283	20339
895.405	20229
895.526	20290
895.648	20199
895.769	20320
895.891	20385
896.012	20259
896.134	20336
896.255	20267
896.376	20199
896.498	20298
896.619	20298
896.74	20206
896.861	20282
896.982	20583
897.103	20571
897.224	20488
897.345	20507
897.466	20339
897.587	20507
897.708	20629
897.828	20419
897.949	20454
898.07	20183
898.19	20415
898.311	20423
898.431	20404
898.552	20446
898.672	20549
898.792	20442
898.913	20461
899.033	20434
899.153	20195
899.273	20275
899.393	20206
899.513	20168
899.633	20092
899.753	20149
899.873	20096
899.993	20157
900.113	20058
900.232	20100
900.352	20050
900.472	19997
900.591	19940
900.711	19932
900.83	19898
900.95	20016
901.069	20084
901.189	19845
901.308	19677
901.427	19556
901.546	19594
901.665	19480
901.784	19586
901.904	19384
902.023	19297
902.141	19137
902.26	19110
902.379	19114
902.498	19091
902.617	18966
902.735	19129
902.854	18837
902.973	19038
903.091	18757
903.21	18707
903.328	18707
903.446	18661
903.565	18437
903.683	18528
903.801	18467
903.919	18445
904.038	18551
904.156	18251
904.274	18422
904.392	18220
904.51	18281
904.627	18182
904.745	18262
904.863	18266
904.981	18152
905.098	17950
905.216	18015
905.334	17992
905.451	18015
905.569	18076
905.686	17931
905.803	17927
905.921	17764
906.038	17935
906.155	17779
906.272	17668
906.389	17745
906.506	17493
906.623	17497
906.74	17554
906.857	17341
906.974	17402
907.091	17589
907.208	17562
907.324	17516
907.441	17364
907.557	17292
907.674	17242
907.79	17151
907.907	17147
908.023	17299
908.139	17197
908.256	17094
908.372	17045
908.488	17143
908.604	16919
908.72	16976
908.836	16877
908.952	16885
909.068	16949
909.184	17041
909.3	16904
909.415	17033
909.531	16858
909.647	16694
909.762	16622
909.878	16653
909.993	16561
910.108	16656
910.224	16596
910.339	16649
910.454	16500
910.57	16360
910.685	16371
910.8	16554
910.915	16573
911.03	16341
911.145	16246
911.259	16223
911.374	16204
911.489	16135
911.604	16071
911.718	16017
911.833	15964
911.947	15838
912.062	15800
912.176	15949
912.291	15983
912.405	16002
912.519	15968
912.633	16173
912.748	15964
912.862	15968
912.976	15816
913.09	15713
913.204	15747
913.318	15827
913.431	15838
913.545	15819
913.659	15804
913.772	15884
913.886	15618
914	15633
914.113	15713
914.226	15690
914.34	15656
914.453	15462
914.566	15523
914.68	15603
914.793	15389
914.906	15241
915.019	15275
915.132	15146
915.245	15180
915.358	15260
915.47	15203
915.583	15252
915.696	15199
915.809	15188
915.921	15279
916.034	15070
916.146	15108
916.259	14975
916.371	15218
916.483	15161
916.595	15066
916.708	15142
916.82	15001
916.932	14990
917.044	14899
917.156	14876
917.268	14800
917.38	14891
917.491	14807
917.603	14823
917.715	14842
917.826	14933
917.938	14762
918.049	14682
918.161	14788
918.272	14872
918.384	14880
918.495	14746
918.606	14648
918.717	14560
918.828	14674
918.939	14667
919.05	14556
919.161	14587
919.272	14336
919.383	14446
919.494	14560
919.604	14765
919.715	14606
919.826	14476
919.936	14613
920.047	14568
920.157	14518
920.267	14750
920.378	14594
920.488	14537
920.598	14781
920.708	14754
920.818	14682
920.928	14712
921.038	14883
921.148	14819
921.258	14488
921.368	14400
921.477	14370
921.587	14309
921.697	14161
921.806	14366
921.916	14164
922.025	14081
922.134	13871
922.244	13883
922.353	13974
922.462	13864
922.571	13746
922.68	13620
922.789	13636
922.898	13521
923.007	13605
923.116	13628
923.224	13552
923.333	13514
923.442	13426
923.55	13430
923.659	13468
923.767	13476
923.876	13354
923.984	13445
924.092	13301
924.201	13304
924.309	13308
924.417	13312
924.525	13232
924.633	13228
924.741	13947
924.849	12966
924.956	13099
925.064	13038
925.172	12928
925.279	12920
925.387	13107
925.494	13000
925.602	13114
925.709	12996
925.816	12886
925.924	12897
926.031	12905
926.138	12905
926.245	13015
926.352	12863
926.459	13004
926.566	13019
926.673	12871
926.779	12760
926.886	12696
926.993	12616
927.099	12490
927.206	12528
927.312	12479
927.419	12658
927.525	12616
927.631	12578
927.737	12372
927.843	12460
927.95	12289
928.056	12342
928.162	12361
928.267	12475
928.373	13069
928.479	12441
928.585	12136
928.69	12361
928.796	12414
928.901	12289
929.007	12057
929.112	12182
929.218	12148
929.323	12121
929.428	12102
929.533	12167
929.638	12034
929.743	12049
929.848	12076
929.953	12076
930.058	11912
930.163	11771
930.267	11786
930.372	11927
930.477	11817
930.581	11935
930.685	11851
930.79	11699
930.894	11680
930.998	11596
931.103	11802
931.207	11391
931.311	11368
931.415	11318
931.519	11064
931.623	11041
