Data from test_V78500241_1168.txt Node
Date: Fri Mar 25 15:17:59 CST 2022
User: usil
Spectrometer: V785-0024
Trigger mode: 0
Integration Time (sec): 4.000000E-1
Scans to average: 1
Nonlinearity correction enabled: false
Boxcar width: 0
Storing dark spectrum: false
XAxis mode: Wavelengths
Number of Pixels in Spectrum: 1024
>>>>>Begin Spectral Data<<<<<
801.071	28341
801.214	28226
801.356	27998
801.499	27956
801.641	27800
801.783	27953
801.926	27831
802.068	27914
802.211	27911
802.353	27641
802.496	27557
802.638	27542
802.78	27534
802.923	27500
803.065	27401
803.208	27481
803.35	27458
803.492	27717
803.635	27679
803.777	27717
803.919	27854
804.061	28013
804.204	27755
804.346	27698
804.488	27622
804.63	27766
804.773	27614
804.915	27682
805.057	27895
805.199	27793
805.341	27930
805.483	27991
805.626	27808
805.768	27736
805.91	27728
806.052	27880
806.194	27812
806.336	28185
806.478	27934
806.62	27880
806.762	27960
806.904	28223
807.046	28390
807.188	28207
807.33	28284
807.472	28344
807.614	28169
807.756	28226
807.898	28230
808.04	28192
808.182	28158
808.324	28322
808.465	28185
808.607	28478
808.749	28478
808.891	28542
809.033	28740
809.174	28577
809.316	28493
809.458	28569
809.6	28398
809.741	28706
809.883	28626
810.025	28927
810.166	28835
810.308	28828
810.45	28809
810.591	28691
810.733	28656
810.875	28569
811.016	28497
811.158	28493
811.299	28573
811.441	28778
811.582	28698
811.724	28668
811.865	28622
812.007	28500
812.148	28565
812.29	28478
812.431	28702
812.573	28812
812.714	28961
812.855	28999
812.997	29162
813.138	29421
813.279	29227
813.421	29140
813.562	29181
813.703	28972
813.845	28744
813.986	28744
814.127	28421
814.268	28443
814.41	28318
814.551	28249
814.692	28352
814.833	28253
814.974	28219
815.115	28295
815.256	28105
815.397	28200
815.539	28063
815.68	28116
815.821	28090
815.962	27968
816.103	28128
816.244	27888
816.385	27941
816.526	27797
816.666	27587
816.807	27553
816.948	27690
817.089	27800
817.23	27557
817.371	27614
817.512	27485
817.653	27504
817.793	27549
817.934	27614
818.075	27599
818.216	27553
818.356	27572
818.497	27370
818.638	27283
818.778	27283
818.919	27389
819.06	27458
819.2	27542
819.341	27580
819.481	27538
819.622	27751
819.762	28032
819.903	27774
820.043	27743
820.184	27701
820.324	27682
820.465	27736
820.605	27804
820.746	27679
820.886	27583
821.026	27785
821.167	27515
821.307	27705
821.447	27542
821.588	27523
821.728	27435
821.868	27176
822.008	27226
822.149	27218
822.289	27032
822.429	26857
822.569	26697
822.709	26720
822.849	26617
822.99	26674
823.13	26461
823.27	26457
823.41	26450
823.55	26252
823.69	26541
823.83	26324
823.97	26362
824.11	26210
824.25	26202
824.389	26183
824.529	26301
824.669	26263
824.809	26351
824.949	26362
825.089	26218
825.228	26351
825.368	26180
825.508	26130
825.648	26157
825.787	26058
825.927	26054
826.067	26153
826.206	26221
826.346	26100
826.485	26172
826.625	26191
826.765	26218
826.904	26210
827.044	25898
827.183	25837
827.323	25860
827.462	25921
827.601	25902
827.741	25898
827.88	25856
828.02	25890
828.159	25780
828.298	25864
828.437	25947
828.577	25708
828.716	25951
828.855	25772
828.994	25639
829.134	25453
829.273	25559
829.412	25552
829.551	25472
829.69	25578
829.829	25556
829.968	25605
830.107	25620
830.246	25483
830.385	25400
830.524	25388
830.663	25343
830.802	25251
830.941	25168
831.08	25171
831.219	25194
831.357	25175
831.496	25441
831.635	25053
831.774	25168
831.913	24958
832.051	25038
832.19	24928
832.329	24962
832.467	24844
832.606	24882
832.744	24707
832.883	24829
833.022	24806
833.16	24958
833.299	24924
833.437	24833
833.576	24966
833.714	24897
833.852	24977
833.991	24977
834.129	25053
834.267	24894
834.406	24924
834.544	24871
834.682	25080
834.821	24943
834.959	25023
835.097	24886
835.235	25012
835.373	24837
835.511	24829
835.65	24833
835.788	24821
835.926	24635
836.064	24540
836.202	24620
836.34	24722
836.478	24863
836.615	24802
836.753	24684
836.891	24890
837.029	24863
837.167	24669
837.305	24719
837.443	24589
837.58	24471
837.718	24677
837.856	24555
837.993	24570
838.131	24445
838.269	24479
838.406	24475
838.544	24452
838.681	24194
838.819	24235
838.956	24030
839.094	23950
839.231	24038
839.369	24243
839.506	24418
839.643	24270
839.781	24003
839.918	23904
840.055	23973
840.193	24072
840.33	23939
840.467	23904
840.604	24068
840.742	24216
840.879	23783
841.016	23874
841.153	23786
841.29	24076
841.427	23954
841.564	24095
841.701	23961
841.838	23882
841.975	23817
842.112	23904
842.249	23817
842.385	23714
842.522	24026
842.659	23722
842.796	23771
842.933	23691
843.069	23665
843.206	23703
843.343	23843
843.479	23726
843.616	23687
843.752	23570
843.889	23410
844.025	23684
844.162	23520
844.298	23649
844.435	23463
844.571	23478
844.708	23566
844.844	23718
844.98	23707
845.117	23661
845.253	23539
845.389	23406
845.525	23292
845.661	23299
845.798	23311
845.934	23360
846.07	23246
846.206	23174
846.342	23265
846.478	23208
846.614	22965
846.75	22908
846.886	23018
847.022	23022
847.158	22995
847.294	23098
847.429	22991
847.565	22968
847.701	23239
847.837	22679
847.972	22611
848.108	22790
848.244	22668
848.379	22478
848.515	22542
848.65	22512
848.786	22599
848.921	22554
849.057	22634
849.192	22675
849.328	22554
849.463	22596
849.598	22554
849.734	22432
849.869	22478
850.004	22226
850.14	22265
850.275	22299
850.41	22238
850.545	22276
850.68	22204
850.815	22375
850.95	22318
851.085	22565
851.22	22398
851.355	22322
851.49	22280
851.625	22242
851.76	22226
851.895	22306
852.03	22276
852.165	22329
852.299	22337
852.434	22394
852.569	22306
852.703	22325
852.838	22295
852.973	22470
853.107	22474
853.242	22261
853.376	22253
853.511	22086
853.645	22131
853.78	22246
853.914	22192
854.048	22093
854.183	22181
854.317	22131
854.451	22363
854.585	22177
854.72	22093
854.854	22177
854.988	22090
855.122	22131
855.256	22078
855.39	22185
855.524	22238
855.658	22158
855.792	22124
855.926	22109
856.06	22131
856.194	22093
856.327	22150
856.461	22093
856.595	22101
856.729	22154
856.862	22280
856.996	22147
857.13	22120
857.263	22200
857.397	22276
857.53	22109
857.664	22147
857.797	22177
857.931	22181
858.064	22211
858.197	22257
858.331	22097
858.464	22105
858.597	21964
858.731	22082
858.864	22097
858.997	21983
859.13	22051
859.263	22078
859.396	22219
859.529	22150
859.662	22006
859.795	22090
859.928	22291
860.061	22352
860.194	22333
860.327	22253
860.46	22147
860.592	22352
860.725	22246
860.858	22246
860.99	22154
861.123	21918
861.256	21983
861.388	22219
861.521	22873
861.653	21945
861.786	21888
861.918	21998
862.05	22055
862.183	22105
862.315	22116
862.447	22116
862.58	22025
862.712	21759
862.844	21789
862.976	21956
863.108	21907
863.24	22207
863.372	21701
863.504	21762
863.636	21679
863.768	21854
863.9	21808
864.032	21698
864.164	21842
864.296	21682
864.428	21994
864.559	21880
864.691	21831
864.823	21842
864.954	21808
865.086	21812
865.217	21854
865.349	21629
865.48	21724
865.612	21736
865.743	21918
865.875	21701
866.006	21694
866.137	21819
866.269	21713
866.4	21675
866.531	21580
866.662	21633
866.793	21720
866.924	21587
867.055	21614
867.186	21629
867.317	21538
867.448	21576
867.579	21492
867.71	21538
867.841	21477
867.972	21663
868.103	21652
868.233	21576
868.364	21747
868.495	21739
868.625	21869
868.756	21941
868.886	21800
869.017	21827
869.147	22006
869.278	21945
869.408	21945
869.539	21865
869.669	21907
869.799	21934
869.929	21960
870.06	21949
870.19	22215
870.32	22154
870.45	22261
870.58	22398
870.71	22253
870.84	22398
870.97	22341
871.1	22261
871.23	22531
871.36	22443
871.489	22306
871.619	22443
871.749	22561
871.879	22413
872.008	22519
872.138	22455
872.267	22470
872.397	22306
872.526	22299
872.656	22306
872.785	22257
872.915	22542
873.044	22557
873.173	22618
873.303	22569
873.432	22596
873.561	22565
873.69	22546
873.819	22535
873.948	22421
874.077	22478
874.206	22421
874.335	22596
874.464	22744
874.593	22797
874.722	22615
874.851	22603
874.979	22835
875.108	22733
875.237	22740
875.365	22569
875.494	22615
875.623	22706
875.751	22683
875.88	22672
876.008	22968
876.136	22965
876.265	23147
876.393	23292
876.521	23212
876.65	23037
876.778	23159
876.906	23162
877.034	23018
877.162	23029
877.29	23067
877.418	23132
877.546	22972
877.674	22961
877.802	23121
877.93	23105
878.058	23143
878.185	22934
878.313	23018
878.441	22972
878.568	22805
878.696	23003
878.824	23067
878.951	23037
879.079	23060
879.206	23368
879.333	23235
879.461	23056
879.588	23155
879.715	23143
879.842	23250
879.97	23041
880.097	22866
880.224	22889
880.351	22839
880.478	22877
880.605	22850
880.732	22850
880.859	23159
880.986	22816
881.112	22938
881.239	22736
881.366	22577
881.493	22440
881.619	22527
881.746	22588
881.872	22402
881.999	22546
882.125	22337
882.252	22310
882.378	22428
882.505	22516
882.631	22246
882.757	22162
882.883	22143
883.01	22196
883.136	22048
883.262	21953
883.388	21991
883.514	22185
883.64	22238
883.766	22063
883.892	21956
884.018	21915
884.143	22013
884.269	22105
884.395	21903
884.52	21762
884.646	21774
884.772	21743
884.897	21637
885.023	21724
885.148	21686
885.274	21960
885.399	21789
885.524	21812
885.65	21690
885.775	21785
885.9	21667
886.025	21850
886.15	21846
886.275	21732
886.4	21663
886.525	21686
886.65	21743
886.775	21671
886.9	21835
887.025	21964
887.149	21728
887.274	21504
887.399	21450
887.523	21504
887.648	21496
887.773	21393
887.897	21500
888.021	21492
888.146	21424
888.27	21599
888.395	21793
888.519	21443
888.643	21599
888.767	21519
888.891	21405
889.015	21230
889.139	21462
889.263	21340
889.387	21481
889.511	21511
889.635	21367
889.759	21294
889.883	21382
890.006	21233
890.13	21348
890.254	21195
890.377	21249
890.501	21070
890.624	21104
890.748	21150
890.871	20948
890.995	20765
891.118	20746
891.241	20906
891.364	20819
891.488	21024
891.611	20853
891.734	20937
891.857	20914
891.98	20864
892.103	20868
892.226	20872
892.349	20804
892.471	20750
892.594	20872
892.717	20815
892.839	20800
892.962	20754
893.085	20739
893.207	20705
893.33	20651
893.452	20720
893.575	20807
893.697	20758
893.819	20941
893.941	21020
894.064	20990
894.186	20663
894.308	20644
894.43	20838
894.552	20910
894.674	20819
894.796	20686
894.918	20750
895.04	20629
895.161	20849
895.283	20686
895.405	20735
895.526	20735
895.648	20705
895.769	20743
895.891	20762
896.012	20777
896.134	20644
896.255	20861
896.376	20731
896.498	20678
896.619	20678
896.74	20792
896.861	20781
896.982	21024
897.103	21211
897.224	20941
897.345	20872
897.466	20872
897.587	20883
897.708	21077
897.828	20933
897.949	20952
898.07	20838
898.19	20868
898.311	20960
898.431	20815
898.552	20937
898.672	20960
898.792	20998
898.913	20864
899.033	20743
899.153	20708
899.273	20655
899.393	20724
899.513	20754
899.633	20644
899.753	20621
899.873	20503
899.993	20773
900.113	20617
900.232	20636
900.352	20602
900.472	20533
900.591	20457
900.711	20404
900.83	20320
900.95	20537
901.069	20533
901.189	20305
901.308	20069
901.427	20039
901.546	19982
901.665	20027
901.784	20065
901.904	19883
902.023	19845
902.141	19651
902.26	19613
902.379	19590
902.498	19514
902.617	19529
902.735	19590
902.854	19449
902.973	19415
903.091	19122
903.21	19236
903.328	19168
903.446	19110
903.565	18996
903.683	19088
903.801	18863
903.919	18905
904.038	18943
904.156	18795
904.274	18783
904.392	18776
904.51	18753
904.627	18703
904.745	18795
904.863	18814
904.981	18513
905.098	18441
905.216	18498
905.334	18441
905.451	18418
905.569	18361
905.686	18395
905.803	18414
905.921	18194
906.038	18254
906.155	18296
906.272	18232
906.389	18026
906.506	17923
906.623	18060
906.74	17977
906.857	17901
906.974	17851
907.091	17980
907.208	17969
907.324	17927
907.441	17912
907.557	17661
907.674	17756
907.79	17585
907.907	17577
908.023	17726
908.139	17687
908.256	17684
908.372	17581
908.488	17539
908.604	17444
908.72	17383
908.836	17391
908.952	17440
909.068	17356
909.184	17554
909.3	17353
909.415	17467
909.531	17406
909.647	17117
909.762	17117
909.878	16965
909.993	17113
910.108	17029
910.224	17143
910.339	17079
910.454	16866
910.57	16858
910.685	16885
910.8	17197
910.915	17033
911.03	16866
911.145	16736
911.259	16664
911.374	16615
911.489	16630
911.604	16512
911.718	16314
911.833	16333
911.947	16280
912.062	16268
912.176	16421
912.291	16440
912.405	16268
912.519	16607
912.633	16504
912.748	16432
912.862	16367
912.976	16226
913.09	16048
913.204	16226
913.318	16200
913.431	16226
913.545	16272
913.659	16295
913.772	16093
913.886	15987
914	16044
914.113	16150
914.226	16086
914.34	16067
914.453	15895
914.566	15983
914.68	15819
914.793	15846
914.906	15538
915.019	15618
915.132	15542
915.245	15599
915.358	15606
915.47	15549
915.583	15663
915.696	15603
915.809	15720
915.921	15682
916.034	15511
916.146	15564
916.259	15534
916.371	15504
916.483	15477
916.595	15397
916.708	15504
916.82	15416
916.932	15435
917.044	15348
917.156	15336
917.268	15184
917.38	15256
917.491	15264
917.603	15298
917.715	15302
917.826	15348
917.938	15135
918.049	15055
918.161	15135
918.272	15298
918.384	15378
918.495	15173
918.606	14982
918.717	14864
918.828	14925
918.939	14948
919.05	14883
919.161	14944
919.272	14724
919.383	14815
919.494	14982
919.604	15199
919.715	14921
919.826	14792
919.936	14910
920.047	14979
920.157	14914
920.267	15150
920.378	15013
920.488	14933
920.598	15119
920.708	15176
920.818	15150
920.928	15051
921.038	15230
921.148	15100
921.258	14933
921.368	14811
921.477	14754
921.587	14663
921.697	14552
921.806	14629
921.916	14598
922.025	14385
922.134	14263
922.244	14237
922.353	14309
922.462	14164
922.571	14214
922.68	14069
922.789	13963
922.898	13974
923.007	14005
923.116	13936
923.224	14020
923.333	13826
923.442	13757
923.55	13803
923.659	13769
923.767	13902
923.876	13731
923.984	13864
924.092	13658
924.201	13738
924.309	13750
924.417	13715
924.525	13609
924.633	13655
924.741	14613
924.849	13438
924.956	13533
925.064	13358
925.172	13335
925.279	13327
925.387	13426
925.494	13316
925.602	13518
925.709	13434
925.816	13339
925.924	13377
926.031	13350
926.138	13251
926.245	13274
926.352	13217
926.459	13304
926.566	13422
926.673	13247
926.779	13027
926.886	13164
926.993	13015
927.099	12837
927.206	12882
927.312	12795
927.419	12993
927.525	12924
927.631	12932
927.737	12696
927.843	12787
927.95	12677
928.056	12741
928.162	12738
928.267	12871
928.373	13244
928.479	12833
928.585	12601
928.69	12650
928.796	12707
928.901	12639
929.007	12445
929.112	12612
929.218	12532
929.323	12426
929.428	12441
929.533	12578
929.638	12391
929.743	12407
929.848	12441
929.953	12330
930.058	12323
930.163	12091
930.267	12030
930.372	12228
930.477	12034
930.581	12292
930.685	12243
930.79	12072
930.894	11999
930.998	12022
931.103	12133
931.207	11790
931.311	11703
931.415	11646
931.519	11383
931.623	11410
