Data from test_V78500241_1365.txt Node
Date: Fri Mar 25 15:19:21 CST 2022
User: usil
Spectrometer: V785-0024
Trigger mode: 0
Integration Time (sec): 4.000000E-1
Scans to average: 1
Nonlinearity correction enabled: false
Boxcar width: 0
Storing dark spectrum: false
XAxis mode: Wavelengths
Number of Pixels in Spectrum: 1024
>>>>>Begin Spectral Data<<<<<
801.071	28101
801.214	28086
801.356	27857
801.499	27739
801.641	27633
801.783	27583
801.926	27682
802.068	27785
802.211	27515
802.353	27504
802.496	27378
802.638	27325
802.78	27329
802.923	27237
803.065	27074
803.208	27154
803.35	27245
803.492	27348
803.635	27424
803.777	27272
803.919	27496
804.061	27770
804.204	27587
804.346	27500
804.488	27466
804.63	27530
804.773	27481
804.915	27545
805.057	27614
805.199	27466
805.341	27755
805.483	27778
805.626	27580
805.768	27583
805.91	27724
806.052	27751
806.194	27720
806.336	27861
806.478	27713
806.62	27587
806.762	27827
806.904	27914
807.046	28242
807.188	28101
807.33	28226
807.472	28128
807.614	28097
807.756	28192
807.898	28063
808.04	27972
808.182	28006
808.324	28135
808.465	27972
808.607	28234
808.749	28143
808.891	28318
809.033	28470
809.174	28382
809.316	28249
809.458	28219
809.6	28223
809.741	28432
809.883	28630
810.025	28634
810.166	28603
810.308	28694
810.45	28512
810.591	28413
810.733	28485
810.875	28333
811.016	28211
811.158	28219
811.299	28226
811.441	28466
811.582	28508
811.724	28409
811.865	28181
812.007	28424
812.148	28371
812.29	28405
812.431	28527
812.573	28763
812.714	28858
812.855	28786
812.997	29044
813.138	29033
813.279	29067
813.421	28957
813.562	28835
813.703	28725
813.845	28607
813.986	28322
814.127	28158
814.268	28185
814.41	28082
814.551	28048
814.692	28112
814.833	28135
814.974	27983
815.115	28025
815.256	27953
815.397	27949
815.539	28036
815.68	27793
815.821	27789
815.962	27846
816.103	27869
816.244	27720
816.385	27587
816.526	27576
816.666	27427
816.807	27325
816.948	27355
817.089	27416
817.23	27378
817.371	27340
817.512	27340
817.653	27252
817.793	27329
817.934	27275
818.075	27291
818.216	27359
818.356	27275
818.497	27203
818.638	26960
818.778	27058
818.919	27066
819.06	27344
819.2	27275
819.341	27237
819.481	27260
819.622	27447
819.762	27629
819.903	27648
820.043	27641
820.184	27450
820.324	27340
820.465	27435
820.605	27542
820.746	27485
820.886	27283
821.026	27618
821.167	27382
821.307	27374
821.447	27439
821.588	27275
821.728	27127
821.868	27043
822.008	26975
822.149	26826
822.289	26788
822.429	26438
822.569	26465
822.709	26419
822.849	26336
822.99	26252
823.13	26305
823.27	26282
823.41	26161
823.55	26077
823.69	26126
823.83	26214
823.97	26065
824.11	25993
824.25	25963
824.389	25947
824.529	26073
824.669	25993
824.809	26183
824.949	26138
825.089	26077
825.228	25982
825.368	25856
825.508	25887
825.648	25864
825.787	25875
825.927	25837
826.067	25784
826.206	25887
826.346	25898
826.485	25955
826.625	25868
826.765	25974
826.904	25822
827.044	25723
827.183	25597
827.323	25495
827.462	25727
827.601	25499
827.741	25381
827.88	25533
828.02	25445
828.159	25529
828.298	25537
828.437	25609
828.577	25601
828.716	25681
828.855	25552
828.994	25373
829.134	25225
829.273	25377
829.412	25164
829.551	25133
829.69	25354
829.829	25354
829.968	25278
830.107	25266
830.246	25183
830.385	25236
830.524	25156
830.663	25038
830.802	24913
830.941	24897
831.08	24916
831.219	24992
831.357	25008
831.496	25080
831.635	24875
831.774	24939
831.913	24810
832.051	24681
832.19	24703
832.329	24719
832.467	24502
832.606	24483
832.744	24486
832.883	24494
833.022	24582
833.16	24536
833.299	24574
833.437	24589
833.576	24627
833.714	24760
833.852	24566
833.991	24707
834.129	24681
834.267	24597
834.406	24627
834.544	24544
834.682	24578
834.821	24456
834.959	24772
835.097	24437
835.235	24547
835.373	24509
835.511	24460
835.65	24369
835.788	24612
835.926	24285
836.064	24327
836.202	24251
836.34	24483
836.478	24399
836.615	24384
836.753	24414
836.891	24464
837.029	24498
837.167	24300
837.305	24388
837.443	24262
837.58	24399
837.718	24296
837.856	24300
837.993	24152
838.131	24281
838.269	24167
838.406	24098
838.544	24289
838.681	23908
838.819	23874
838.956	23680
839.094	23748
839.231	23863
839.369	23760
839.506	24190
839.643	23935
839.781	23794
839.918	23672
840.055	23718
840.193	23809
840.33	23649
840.467	23733
840.604	23642
840.742	23893
840.879	23501
841.016	23531
841.153	23520
841.29	23710
841.427	23589
841.564	23726
841.701	23615
841.838	23707
841.975	23676
842.112	23452
842.249	23364
842.385	23322
842.522	23551
842.659	23395
842.796	23345
842.933	23395
843.069	23261
843.206	23341
843.343	23429
843.479	23395
843.616	23455
843.752	23159
843.889	23258
844.025	23254
844.162	23197
844.298	23311
844.435	23265
844.571	23117
844.708	23273
844.844	23155
844.98	23402
845.117	23223
845.253	23098
845.389	23060
845.525	23124
845.661	23056
845.798	22843
845.934	22892
846.07	23029
846.206	23014
846.342	23056
846.478	22862
846.614	22713
846.75	22577
846.886	22675
847.022	22668
847.158	22740
847.294	22744
847.429	22706
847.565	22519
847.701	22790
847.837	22299
847.972	22284
848.108	22310
848.244	22557
848.379	22276
848.515	22135
848.65	22162
848.786	22192
848.921	22265
849.057	22249
849.192	22409
849.328	22242
849.463	22105
849.598	22162
849.734	22143
849.869	21918
850.004	22002
850.14	22078
850.275	21998
850.41	22070
850.545	21911
850.68	22002
850.815	21983
850.95	21949
851.085	22143
851.22	22074
851.355	21915
851.49	21991
851.625	21941
851.76	21918
851.895	21766
852.03	21991
852.165	21930
852.299	21930
852.434	22139
852.569	21991
852.703	21941
852.838	22040
852.973	22082
853.107	22051
853.242	21899
853.376	21850
853.511	21884
853.645	21819
853.78	22032
853.914	21854
854.048	21747
854.183	21888
854.317	21797
854.451	21964
854.585	21808
854.72	21827
854.854	22002
854.988	21637
855.122	21998
855.256	21705
855.39	21759
855.524	21857
855.658	21972
855.792	21869
855.926	21880
856.06	21857
856.194	21975
856.327	21808
856.461	21759
856.595	21857
856.729	21770
856.862	21918
856.996	21838
857.13	21793
857.263	21835
857.397	21869
857.53	21751
857.664	21842
857.797	21827
857.931	21888
858.064	21869
858.197	21880
858.331	21762
858.464	21778
858.597	21660
858.731	21857
858.864	21800
858.997	21797
859.13	21835
859.263	21743
859.396	21781
859.529	21789
859.662	21732
859.795	21720
859.928	21732
860.061	21926
860.194	22029
860.327	21922
860.46	21774
860.592	21903
860.725	21873
860.858	21926
860.99	21797
861.123	21842
861.256	21633
861.388	21884
861.521	22356
861.653	21724
861.786	21603
861.918	21656
862.05	21717
862.183	21766
862.315	21618
862.447	21778
862.58	21675
862.712	21458
862.844	21511
862.976	21644
863.108	21462
863.24	21808
863.372	21542
863.504	21511
863.636	21443
863.768	21561
863.9	21515
864.032	21466
864.164	21500
864.296	21534
864.428	21557
864.559	21591
864.691	21488
864.823	21447
864.954	21351
865.086	21488
865.217	21561
865.349	21325
865.48	21492
865.612	21329
865.743	21443
865.875	21389
866.006	21355
866.137	21439
866.269	21359
866.4	21401
866.531	21260
866.662	21226
866.793	21340
866.924	21306
867.055	21389
867.186	21283
867.317	21241
867.448	21306
867.579	21256
867.71	21256
867.841	21188
867.972	21348
868.103	21454
868.233	21233
868.364	21264
868.495	21374
868.625	21488
868.756	21557
868.886	21580
869.017	21416
869.147	21606
869.278	21603
869.408	21572
869.539	21599
869.669	21564
869.799	21564
869.929	21675
870.06	21663
870.19	21907
870.32	21934
870.45	21911
870.58	21930
870.71	21968
870.84	22059
870.97	21926
871.1	21983
871.23	22002
871.36	22150
871.489	21975
871.619	22112
871.749	22242
871.879	22162
872.008	22272
872.138	22093
872.267	22131
872.397	21998
872.526	22021
872.656	21949
872.785	21903
872.915	22158
873.044	22268
873.173	22211
873.303	22268
873.432	22101
873.561	22192
873.69	22135
873.819	22291
873.948	22337
874.077	22181
874.206	22128
874.335	22082
874.464	22287
874.593	22519
874.722	22249
874.851	22497
874.979	22314
875.108	22443
875.237	22337
875.365	22352
875.494	22375
875.623	22470
875.751	22341
875.88	22341
876.008	22550
876.136	22584
876.265	22790
876.393	23010
876.521	22820
876.65	22778
876.778	22729
876.906	22694
877.034	22687
877.162	22790
877.29	22645
877.418	22660
877.546	22774
877.674	22755
877.802	22717
877.93	22771
878.058	22615
878.185	22618
878.313	22736
878.441	22672
878.568	22675
878.696	22698
878.824	22866
878.951	22828
879.079	22889
879.206	23128
879.333	22771
879.461	22698
879.588	22885
879.715	22976
879.842	22953
879.97	22854
880.097	22523
880.224	22565
880.351	22679
880.478	22535
880.605	22523
880.732	22485
880.859	22820
880.986	22512
881.112	22531
881.239	22409
881.366	22291
881.493	22211
881.619	22093
881.746	22249
881.872	22177
881.999	22158
882.125	22025
882.252	22219
882.378	22097
882.505	22135
882.631	21956
882.757	21880
882.883	21800
883.01	21899
883.136	21705
883.262	21671
883.388	21778
883.514	21770
883.64	21918
883.766	21766
883.892	21610
884.018	21652
884.143	21701
884.269	21831
884.395	21458
884.52	21454
884.646	21523
884.772	21393
884.897	21374
885.023	21424
885.148	21523
885.274	21591
885.399	21469
885.524	21492
885.65	21435
885.775	21431
885.9	21477
886.025	21583
886.15	21576
886.275	21428
886.4	21420
886.525	21294
886.65	21332
886.775	21412
886.9	21515
887.025	21736
887.149	21351
887.274	21241
887.399	21218
887.523	21146
887.648	21275
887.773	21199
887.897	21329
888.021	21192
888.146	21135
888.27	21363
888.395	21283
888.519	21298
888.643	21268
888.767	21287
888.891	21096
889.015	20963
889.139	20979
889.263	21096
889.387	21104
889.511	21188
889.635	21252
889.759	20887
889.883	21047
890.006	20967
890.13	21081
890.254	20933
890.377	20815
890.501	20731
890.624	20781
890.748	20746
890.871	20632
890.995	20617
891.118	20594
891.241	20583
891.364	20648
891.488	20674
891.611	20606
891.734	20476
891.857	20545
891.98	20530
892.103	20575
892.226	20549
892.349	20526
892.471	20381
892.594	20480
892.717	20568
892.839	20469
892.962	20480
893.085	20469
893.207	20457
893.33	20332
893.452	20431
893.575	20609
893.697	20336
893.819	20617
893.941	20739
894.064	20575
894.186	20233
894.308	20301
894.43	20549
894.552	20625
894.674	20495
894.796	20332
894.918	20492
895.04	20355
895.161	20514
895.283	20518
895.405	20374
895.526	20518
895.648	20446
895.769	20594
895.891	20473
896.012	20476
896.134	20461
896.255	20389
896.376	20499
896.498	20423
896.619	20514
896.74	20495
896.861	20571
896.982	20758
897.103	20883
897.224	20724
897.345	20644
897.466	20609
897.587	20670
897.708	20727
897.828	20739
897.949	20609
898.07	20549
898.19	20499
898.311	20735
898.431	20625
898.552	20663
898.672	20670
898.792	20594
898.913	20724
899.033	20488
899.153	20522
899.273	20347
899.393	20457
899.513	20389
899.633	20503
899.753	20404
899.873	20305
899.993	20450
900.113	20362
900.232	20332
900.352	20377
900.472	20237
900.591	20149
900.711	20229
900.83	20119
900.95	20218
901.069	20267
901.189	20145
901.308	19970
901.427	19795
901.546	19761
901.665	19772
901.784	19734
901.904	19639
902.023	19594
902.141	19285
902.26	19312
902.379	19282
902.498	19274
902.617	19236
902.735	19263
902.854	19293
902.973	19107
903.091	19065
903.21	18840
903.328	18852
903.446	18795
903.565	18635
903.683	18684
903.801	18555
903.919	18639
904.038	18707
904.156	18486
904.274	18540
904.392	18445
904.51	18506
904.627	18589
904.745	18547
904.863	18525
904.981	18342
905.098	18216
905.216	18262
905.334	18159
905.451	18232
905.569	18224
905.686	18205
905.803	18190
905.921	17866
906.038	18045
906.155	18098
906.272	17813
906.389	17878
906.506	17699
906.623	17748
906.74	17676
906.857	17608
906.974	17589
907.091	17748
907.208	17771
907.324	17726
907.441	17668
907.557	17596
907.674	17455
907.79	17330
907.907	17364
908.023	17414
908.139	17467
908.256	17349
908.372	17318
908.488	17280
908.604	17265
908.72	17060
908.836	17174
908.952	17117
909.068	17136
909.184	17280
909.3	17159
909.415	17178
909.531	17060
909.647	16828
909.762	16869
909.878	16771
909.993	16889
910.108	16911
910.224	16752
910.339	16717
910.454	16702
910.57	16725
910.685	16630
910.8	16744
910.915	16740
911.03	16668
911.145	16481
911.259	16367
911.374	16398
911.489	16382
911.604	16303
911.718	16120
911.833	16131
911.947	16150
912.062	15972
912.176	16200
912.291	16169
912.405	16116
912.519	16390
912.633	16322
912.748	16120
912.862	16109
912.976	15964
913.09	15930
913.204	15804
913.318	15975
913.431	16105
913.545	16055
913.659	16090
913.772	15865
913.886	15880
914	15789
914.113	16006
914.226	15781
914.34	15823
914.453	15667
914.566	15778
914.68	15705
914.793	15633
914.906	15545
915.019	15370
915.132	15351
915.245	15386
915.358	15378
915.47	15393
915.583	15367
915.696	15363
915.809	15412
915.921	15481
916.034	15226
916.146	15363
916.259	15310
916.371	15344
916.483	15264
916.595	15241
916.708	15233
916.82	15207
916.932	15127
917.044	15116
917.156	15116
917.268	14979
917.38	15020
917.491	14952
917.603	14971
917.715	15066
917.826	15161
917.938	14864
918.049	14826
918.161	14963
918.272	15150
918.384	14994
918.495	14864
918.606	14834
918.717	14758
918.828	14811
918.939	14781
919.05	14674
919.161	14781
919.272	14488
919.383	14659
919.494	14754
919.604	15009
919.715	14842
919.826	14667
919.936	14686
920.047	14811
920.157	14804
920.267	14902
920.378	14754
920.488	14758
920.598	14872
920.708	15104
920.818	14823
920.928	14857
921.038	15070
921.148	14948
921.258	14724
921.368	14590
921.477	14499
921.587	14404
921.697	14343
921.806	14522
921.916	14271
922.025	14210
922.134	14134
922.244	13967
922.353	14191
922.462	13959
922.571	13887
922.68	13784
922.789	13761
922.898	13769
923.007	13712
923.116	13753
923.224	13696
923.333	13632
923.442	13616
923.55	13632
923.659	13567
923.767	13677
923.876	13590
923.984	13643
924.092	13445
924.201	13476
924.309	13521
924.417	13506
924.525	13396
924.633	13415
924.741	14119
924.849	13266
924.956	13377
925.064	13270
925.172	13129
925.279	13114
925.387	13152
925.494	13149
925.602	13304
925.709	13084
925.816	13118
925.924	13080
926.031	13057
926.138	13110
926.245	13118
926.352	12916
926.459	13110
926.566	13171
926.673	13008
926.779	12935
926.886	12859
926.993	12738
927.099	12741
927.206	12635
927.312	12650
927.419	12738
927.525	12642
927.631	12753
927.737	12597
927.843	12509
927.95	12506
928.056	12566
928.162	12486
928.267	12551
928.373	13149
928.479	12604
928.585	12258
928.69	12429
928.796	12532
928.901	12330
929.007	12235
929.112	12285
929.218	12376
929.323	12422
929.428	12148
929.533	12433
929.638	12224
929.743	12178
929.848	12262
929.953	12148
930.058	12129
930.163	11923
930.267	11969
930.372	12076
930.477	11802
930.581	12083
930.685	12045
930.79	11904
930.894	11866
930.998	11771
931.103	11950
931.207	11547
931.311	11516
931.415	11360
931.519	11242
931.623	11201
