Data from test_V78500241_1689.txt Node
Date: Fri Mar 25 15:21:37 CST 2022
User: usil
Spectrometer: V785-0024
Trigger mode: 0
Integration Time (sec): 4.000000E-1
Scans to average: 1
Nonlinearity correction enabled: false
Boxcar width: 0
Storing dark spectrum: false
XAxis mode: Wavelengths
Number of Pixels in Spectrum: 1024
>>>>>Begin Spectral Data<<<<<
801.071	28040
801.214	27934
801.356	27652
801.499	27701
801.641	27698
801.783	27561
801.926	27709
802.068	27545
802.211	27427
802.353	27488
802.496	27283
802.638	27207
802.78	27336
802.923	27226
803.065	27039
803.208	27218
803.35	27283
803.492	27363
803.635	27348
803.777	27218
803.919	27458
804.061	27728
804.204	27534
804.346	27545
804.488	27389
804.63	27496
804.773	27207
804.915	27481
805.057	27580
805.199	27454
805.341	27500
805.483	27530
805.626	27572
805.768	27447
805.91	27583
806.052	27557
806.194	27675
806.336	27778
806.478	27610
806.62	27393
806.762	27576
806.904	27751
807.046	28120
807.188	28067
807.33	27987
807.472	28036
807.614	28067
807.756	28070
807.898	27709
808.04	27850
808.182	27785
808.324	27876
808.465	27873
808.607	28135
808.749	28318
808.891	28280
809.033	28310
809.174	28253
809.316	28128
809.458	28234
809.6	28105
809.741	28421
809.883	28401
810.025	28382
810.166	28519
810.308	28542
810.45	28497
810.591	28363
810.733	28318
810.875	28116
811.016	28112
811.158	27994
811.299	28211
811.441	28367
811.582	28314
811.724	28128
811.865	28223
812.007	28139
812.148	28314
812.29	28333
812.431	28447
812.573	28634
812.714	28698
812.855	28694
812.997	28816
813.138	28839
813.279	28752
813.421	28744
813.562	28706
813.703	28611
813.845	28508
813.986	28219
814.127	28074
814.268	27930
814.41	27914
814.551	27842
814.692	27884
814.833	27907
814.974	27907
815.115	27812
815.256	27759
815.397	27823
815.539	27968
815.68	27686
815.821	27618
815.962	27629
816.103	27781
816.244	27656
816.385	27435
816.526	27306
816.666	27340
816.807	27161
816.948	27287
817.089	27218
817.23	27214
817.371	27222
817.512	27268
817.653	27089
817.793	27184
817.934	27260
818.075	27321
818.216	27279
818.356	27138
818.497	27036
818.638	26925
818.778	26933
818.919	26960
819.06	27005
819.2	27142
819.341	27275
819.481	27317
819.622	27264
819.762	27424
819.903	27553
820.043	27401
820.184	27355
820.324	27237
820.465	27450
820.605	27256
820.746	27275
820.886	27249
821.026	27294
821.167	27287
821.307	27370
821.447	27138
821.588	27161
821.728	26925
821.868	26895
822.008	26758
822.149	26807
822.289	26682
822.429	26442
822.569	26396
822.709	26343
822.849	26092
822.99	26161
823.13	26263
823.27	25997
823.41	26187
823.55	25947
823.69	25978
823.83	25974
823.97	25978
824.11	25715
824.25	25799
824.389	25845
824.529	25906
824.669	25871
824.809	25898
824.949	26016
825.089	25902
825.228	25849
825.368	25578
825.508	25719
825.648	25693
825.787	25647
825.927	25860
826.067	25635
826.206	25609
826.346	25772
826.485	25689
826.625	25658
826.765	25693
826.904	25696
827.044	25529
827.183	25453
827.323	25441
827.462	25529
827.601	25430
827.741	25438
827.88	25373
828.02	25270
828.159	25495
828.298	25445
828.437	25575
828.577	25304
828.716	25537
828.855	25362
828.994	25209
829.134	25232
829.273	25240
829.412	25076
829.551	25110
829.69	25190
829.829	25190
829.968	25202
830.107	25156
830.246	25072
830.385	25145
830.524	25034
830.663	24939
830.802	24833
830.941	24764
831.08	24726
831.219	24909
831.357	24897
831.496	24985
831.635	24673
831.774	24551
831.913	24578
832.051	24563
832.19	24414
832.329	24555
832.467	24441
832.606	24304
832.744	24296
832.883	24498
833.022	24338
833.16	24391
833.299	24471
833.437	24464
833.576	24551
833.714	24490
833.852	24555
833.991	24604
834.129	24574
834.267	24509
834.406	24490
834.544	24365
834.682	24517
834.821	24384
834.959	24593
835.097	24353
835.235	24593
835.373	24429
835.511	24467
835.65	24338
835.788	24346
835.926	24194
836.064	24205
836.202	24106
836.34	24323
836.478	24346
836.615	24296
836.753	24308
836.891	24247
837.029	24277
837.167	24201
837.305	24365
837.443	24083
837.58	24178
837.718	24334
837.856	24285
837.993	24110
838.131	24178
838.269	24038
838.406	24091
838.544	23942
838.681	23764
838.819	23729
838.956	23714
839.094	23657
839.231	23729
839.369	23847
839.506	24129
839.643	23863
839.781	23707
839.918	23539
840.055	23573
840.193	23562
840.33	23448
840.467	23600
840.604	23589
840.742	23832
840.879	23436
841.016	23417
841.153	23585
841.29	23672
841.427	23554
841.564	23398
841.701	23520
841.838	23551
841.975	23455
842.112	23505
842.249	23395
842.385	23296
842.522	23501
842.659	23360
842.796	23299
842.933	23307
843.069	23261
843.206	23265
843.343	23395
843.479	23299
843.616	23395
843.752	23132
843.889	23121
844.025	23269
844.162	23090
844.298	23140
844.435	23029
844.571	23071
844.708	23140
844.844	23239
844.98	23197
845.117	23227
845.253	23079
845.389	22949
845.525	22968
845.661	22934
845.798	22908
845.934	22771
846.07	22710
846.206	22824
846.342	22843
846.478	22763
846.614	22645
846.75	22516
846.886	22577
847.022	22459
847.158	22557
847.294	22535
847.429	22649
847.565	22493
847.701	22710
847.837	22204
847.972	22314
848.108	22352
848.244	22287
848.379	22105
848.515	22162
848.65	22192
848.786	22150
848.921	22101
849.057	22322
849.192	22280
849.328	22204
849.463	22055
849.598	22029
849.734	22021
849.869	21941
850.004	21911
850.14	22029
850.275	21880
850.41	21812
850.545	21835
850.68	21823
850.815	21930
850.95	21812
851.085	22090
851.22	22025
851.355	21953
851.49	21804
851.625	21888
851.76	21979
851.895	21701
852.03	21759
852.165	21865
852.299	21911
852.434	22017
852.569	21960
852.703	21888
852.838	21979
852.973	22029
853.107	22036
853.242	21884
853.376	21747
853.511	21504
853.645	21728
853.78	21873
853.914	21698
854.048	21690
854.183	21728
854.317	21644
854.451	21895
854.585	21622
854.72	21808
854.854	21793
854.988	21644
855.122	21660
855.256	21614
855.39	21724
855.524	21720
855.658	21781
855.792	21759
855.926	21732
856.06	21713
856.194	21755
856.327	21618
856.461	21656
856.595	21606
856.729	21759
856.862	21812
856.996	21770
857.13	21762
857.263	21831
857.397	21759
857.53	21652
857.664	21713
857.797	21846
857.931	21819
858.064	21682
858.197	21774
858.331	21656
858.464	21644
858.597	21656
858.731	21800
858.864	21648
858.997	21720
859.13	21808
859.263	21751
859.396	21869
859.529	21751
859.662	21755
859.795	21568
859.928	21743
860.061	21785
860.194	21888
860.327	21819
860.46	21633
860.592	21724
860.725	21789
860.858	21804
860.99	21751
861.123	21682
861.256	21652
861.388	21747
861.521	22413
861.653	21603
861.786	21511
861.918	21420
862.05	21496
862.183	21679
862.315	21576
862.447	21686
862.58	21622
862.712	21542
862.844	21424
862.976	21481
863.108	21431
863.24	21884
863.372	21439
863.504	21370
863.636	21564
863.768	21530
863.9	21401
864.032	21359
864.164	21454
864.296	21507
864.428	21553
864.559	21466
864.691	21507
864.823	21424
864.954	21363
865.086	21386
865.217	21424
865.349	21264
865.48	21317
865.612	21237
865.743	21500
865.875	21401
866.006	21291
866.137	21310
866.269	21386
866.4	21192
866.531	21207
866.662	21154
866.793	21230
866.924	21264
867.055	21245
867.186	21279
867.317	21127
867.448	21142
867.579	21081
867.71	21154
867.841	21218
867.972	21317
868.103	21127
868.233	21260
868.364	21214
868.495	21370
868.625	21416
868.756	21553
868.886	21382
869.017	21431
869.147	21553
869.278	21675
869.408	21439
869.539	21386
869.669	21568
869.799	21473
869.929	21492
870.06	21591
870.19	21842
870.32	21736
870.45	21892
870.58	21918
870.71	21979
870.84	21903
870.97	21831
871.1	21789
871.23	22070
871.36	22021
871.489	21979
871.619	22017
871.749	21880
871.879	22211
872.008	22139
872.138	22147
872.267	22025
872.397	21888
872.526	21876
872.656	21998
872.785	21793
872.915	22105
873.044	22234
873.173	21960
873.303	22120
873.432	22059
873.561	22223
873.69	22143
873.819	22109
873.948	22135
874.077	22082
874.206	22006
874.335	22070
874.464	22215
874.593	22402
874.722	22303
874.851	22261
874.979	22295
875.108	22379
875.237	22196
875.365	22246
875.494	22253
875.623	22440
875.751	22192
875.88	22223
876.008	22481
876.136	22489
876.265	22733
876.393	22725
876.521	22774
876.65	22596
876.778	22687
876.906	22618
877.034	22580
877.162	22603
877.29	22611
877.418	22653
877.546	22710
877.674	22698
877.802	22656
877.93	22710
878.058	22626
878.185	22557
878.313	22550
878.441	22694
878.568	22470
878.696	22603
878.824	22599
878.951	22668
879.079	22759
879.206	23022
879.333	22790
879.461	22679
879.588	22672
879.715	22877
879.842	22835
879.97	22748
880.097	22485
880.224	22497
880.351	22554
880.478	22535
880.605	22436
880.732	22440
880.859	22774
880.986	22447
881.112	22485
881.239	22310
881.366	22147
881.493	22090
881.619	21941
881.746	21994
881.872	22021
881.999	22036
882.125	21949
882.252	22010
882.378	21873
882.505	22139
882.631	21812
882.757	21755
882.883	21842
883.01	21739
883.136	21705
883.262	21610
883.388	21564
883.514	21793
883.64	21747
883.766	21698
883.892	21545
884.018	21549
884.143	21720
884.269	21739
884.395	21485
884.52	21386
884.646	21458
884.772	21211
884.897	21226
885.023	21420
885.148	21603
885.274	21458
885.399	21431
885.524	21332
885.65	21382
885.775	21389
885.9	21416
886.025	21454
886.15	21469
886.275	21332
886.4	21329
886.525	21382
886.65	21416
886.775	21321
886.9	21397
887.025	21545
887.149	21386
887.274	21264
887.399	21089
887.523	21176
887.648	21192
887.773	21066
887.897	21207
888.021	21165
888.146	21093
888.27	21245
888.395	21233
888.519	21325
888.643	21112
888.767	21211
888.891	21047
889.015	20982
889.139	20906
889.263	20861
889.387	20956
889.511	21127
889.635	21024
889.759	20929
889.883	20971
890.006	20785
890.13	21066
890.254	20872
890.377	20880
890.501	20636
890.624	20659
890.748	20777
890.871	20564
890.995	20503
891.118	20648
891.241	20575
891.364	20549
891.488	20613
891.611	20518
891.734	20358
891.857	20587
891.98	20499
892.103	20571
892.226	20552
892.349	20305
892.471	20408
892.594	20492
892.717	20473
892.839	20427
892.962	20400
893.085	20438
893.207	20362
893.33	20377
893.452	20298
893.575	20461
893.697	20461
893.819	20564
893.941	20450
894.064	20560
894.186	20355
894.308	20336
894.43	20412
894.552	20522
894.674	20446
894.796	20298
894.918	20358
895.04	20389
895.161	20423
895.283	20385
895.405	20317
895.526	20339
895.648	20358
895.769	20381
895.891	20400
896.012	20442
896.134	20385
896.255	20400
896.376	20381
896.498	20385
896.619	20442
896.74	20381
896.861	20484
896.982	20754
897.103	20838
897.224	20629
897.345	20598
897.466	20552
897.587	20655
897.708	20826
897.828	20594
897.949	20499
898.07	20473
898.19	20507
898.311	20625
898.431	20575
898.552	20465
898.672	20724
898.792	20712
898.913	20568
899.033	20370
899.153	20412
899.273	20339
899.393	20374
899.513	20488
899.633	20396
899.753	20419
899.873	20134
899.993	20396
900.113	20267
900.232	20381
900.352	20161
900.472	20081
900.591	20039
900.711	20077
900.83	20077
900.95	20183
901.069	20103
901.189	19932
901.308	19791
901.427	19666
901.546	19670
901.665	19715
901.784	19712
901.904	19521
902.023	19468
902.141	19209
902.26	19187
902.379	19358
902.498	19228
902.617	19156
902.735	19110
902.854	19206
902.973	19129
903.091	18962
903.21	18905
903.328	18764
903.446	18787
903.565	18700
903.683	18703
903.801	18494
903.919	18658
904.038	18658
904.156	18452
904.274	18494
904.392	18403
904.51	18395
904.627	18380
904.745	18467
904.863	18467
904.981	18201
905.098	18182
905.216	18072
905.334	18174
905.451	18026
905.569	18049
905.686	18034
905.803	18079
905.921	17901
906.038	18091
906.155	17802
906.272	17802
906.389	17843
906.506	17562
906.623	17592
906.74	17596
906.857	17486
906.974	17535
907.091	17573
907.208	17668
907.324	17638
907.441	17532
907.557	17391
907.674	17376
907.79	17334
907.907	17299
908.023	17246
908.139	17353
908.256	17337
908.372	17189
908.488	17227
908.604	17170
908.72	17174
908.836	17113
908.952	17037
909.068	17140
909.184	17197
909.3	16923
909.415	17181
909.531	17147
909.647	16919
909.762	16831
909.878	16816
909.993	16717
910.108	16809
910.224	16637
910.339	16759
910.454	16630
910.57	16500
910.685	16455
910.8	16736
910.915	16679
911.03	16626
911.145	16428
911.259	16382
911.374	16436
911.489	16268
911.604	16215
911.718	16082
911.833	16109
911.947	16036
912.062	15915
912.176	16067
912.291	16078
912.405	16097
912.519	16230
912.633	16341
912.748	16162
912.862	16177
912.976	15930
913.09	15797
913.204	15888
913.318	15949
913.431	15968
913.545	16010
913.659	15972
913.772	15907
913.886	15743
914	15709
914.113	15778
914.226	15785
914.34	15747
914.453	15599
914.566	15850
914.68	15701
914.793	15618
914.906	15359
915.019	15317
915.132	15237
915.245	15367
915.358	15329
915.47	15310
915.583	15363
915.696	15195
915.809	15408
915.921	15515
916.034	15340
916.146	15154
916.259	15135
916.371	15317
916.483	15260
916.595	15222
916.708	15218
916.82	15138
916.932	15093
917.044	15112
917.156	15062
917.268	14971
917.38	14971
917.491	15005
917.603	15020
917.715	15070
917.826	15024
917.938	15009
918.049	14804
918.161	14899
918.272	15108
918.384	14982
918.495	14925
918.606	14689
918.717	14594
918.828	14830
918.939	14682
919.05	14594
919.161	14621
919.272	14594
919.383	14564
919.494	14735
919.604	14914
919.715	14705
919.826	14533
919.936	14583
920.047	14720
920.157	14796
920.267	14781
920.378	14678
920.488	14712
920.598	14872
920.708	15001
920.818	14838
920.928	14811
921.038	14960
921.148	14861
921.258	14720
921.368	14560
921.477	14450
921.587	14450
921.697	14271
921.806	14480
921.916	14320
922.025	14168
922.134	14073
922.244	13928
922.353	14069
922.462	13936
922.571	13883
922.68	13708
922.789	13677
922.898	13708
923.007	13643
923.116	13658
923.224	13719
923.333	13655
923.442	13578
923.55	13472
923.659	13556
923.767	13552
923.876	13464
923.984	13506
924.092	13419
924.201	13453
924.309	13476
924.417	13438
924.525	13343
924.633	13331
924.741	14168
924.849	13187
924.956	13350
925.064	13050
925.172	13084
925.279	13145
925.387	13202
925.494	13183
925.602	13206
925.709	13183
925.816	13019
925.924	13027
926.031	13141
926.138	13038
926.245	13057
926.352	12981
926.459	13088
926.566	13110
926.673	12958
926.779	12829
926.886	12817
926.993	12650
927.099	12688
927.206	12639
927.312	12574
927.419	12658
927.525	12673
927.631	12734
927.737	12574
927.843	12639
927.95	12319
928.056	12441
928.162	12513
928.267	12551
928.373	12970
928.479	12547
928.585	12357
928.69	12414
928.796	12475
928.901	12315
929.007	12228
929.112	12376
929.218	12300
929.323	12266
929.428	12095
929.533	12285
929.638	12087
929.743	12171
929.848	12232
929.953	12171
930.058	12003
930.163	11935
930.267	11855
930.372	11992
930.477	11813
930.581	12049
930.685	11904
930.79	11733
930.894	11794
930.998	11699
931.103	11973
931.207	11467
931.311	11505
931.415	11292
931.519	11121
931.623	11117
