Data from test_V78500241_1895.txt Node
Date: Fri Mar 25 15:23:03 CST 2022
User: usil
Spectrometer: V785-0024
Trigger mode: 0
Integration Time (sec): 4.000000E-1
Scans to average: 1
Nonlinearity correction enabled: false
Boxcar width: 0
Storing dark spectrum: false
XAxis mode: Wavelengths
Number of Pixels in Spectrum: 1024
>>>>>Begin Spectral Data<<<<<
801.071	27713
801.214	27762
801.356	27526
801.499	27439
801.641	27332
801.783	27317
801.926	27359
802.068	27378
802.211	27348
802.353	27283
802.496	27055
802.638	26838
802.78	27036
802.923	26857
803.065	26944
803.208	26952
803.35	27047
803.492	26910
803.635	27241
803.777	26994
803.919	27214
804.061	27526
804.204	27184
804.346	27100
804.488	27081
804.63	27302
804.773	27005
804.915	27195
805.057	27218
805.199	27001
805.341	27154
805.483	27393
805.626	27321
805.768	27199
805.91	27245
806.052	27348
806.194	27329
806.336	27466
806.478	27283
806.62	27431
806.762	27591
806.904	27625
807.046	27835
807.188	27686
807.33	27625
807.472	27778
807.614	27587
807.756	27587
807.898	27625
808.04	27488
808.182	27633
808.324	27568
808.465	27690
808.607	27724
808.749	27911
808.891	28135
809.033	28070
809.174	28128
809.316	27880
809.458	27838
809.6	27975
809.741	28032
809.883	27949
810.025	28204
810.166	28200
810.308	28051
810.45	28086
810.591	27983
810.733	27991
810.875	27884
811.016	27694
811.158	27827
811.299	28021
811.441	28036
811.582	28002
811.724	27968
811.865	27892
812.007	27789
812.148	27968
812.29	27899
812.431	28021
812.573	28223
812.714	28371
812.855	28295
812.997	28485
813.138	28527
813.279	28554
813.421	28497
813.562	28424
813.703	28272
813.845	28051
813.986	27778
814.127	27770
814.268	27660
814.41	27583
814.551	27488
814.692	27682
814.833	27534
814.974	27549
815.115	27591
815.256	27458
815.397	27496
815.539	27526
815.68	27473
815.821	27291
815.962	27466
816.103	27405
816.244	27310
816.385	27104
816.526	27047
816.666	26895
816.807	26899
816.948	26929
817.089	27001
817.23	27055
817.371	26876
817.512	26800
817.653	26899
817.793	26773
817.934	26937
818.075	26781
818.216	26944
818.356	26864
818.497	26712
818.638	26617
818.778	26670
818.919	26632
819.06	26621
819.2	26819
819.341	27005
819.481	26868
819.622	26963
819.762	27207
819.903	27051
820.043	27100
820.184	26975
820.324	26883
820.465	26967
820.605	27009
820.746	27047
820.886	26864
821.026	27028
821.167	27013
821.307	26880
821.447	26944
821.588	26826
821.728	26678
821.868	26488
822.008	26400
822.149	26339
822.289	26533
822.429	26157
822.569	26096
822.709	26073
822.849	25890
822.99	25913
823.13	25845
823.27	25738
823.41	25696
823.55	25537
823.69	25651
823.83	25704
823.97	25666
824.11	25525
824.25	25392
824.389	25601
824.529	25635
824.669	25552
824.809	25590
824.949	25658
825.089	25491
825.228	25655
825.368	25396
825.508	25339
825.648	25388
825.787	25403
825.927	25381
826.067	25403
826.206	25407
826.346	25362
826.485	25354
826.625	25320
826.765	25472
826.904	25430
827.044	25232
827.183	25259
827.323	25091
827.462	25069
827.601	25084
827.741	25190
827.88	25099
828.02	24985
828.159	25019
828.298	25000
828.437	25065
828.577	24989
828.716	25057
828.855	25091
828.994	24875
829.134	24909
829.273	24837
829.412	24795
829.551	24791
829.69	24760
829.829	24627
829.968	24776
830.107	24791
830.246	24810
830.385	24696
830.524	24878
830.663	24665
830.802	24540
830.941	24361
831.08	24376
831.219	24448
831.357	24540
831.496	24642
831.635	24471
831.774	24418
831.913	24388
832.051	24273
832.19	24159
832.329	24243
832.467	24220
832.606	24159
832.744	24114
832.883	24098
833.022	23946
833.16	24053
833.299	24102
833.437	24178
833.576	24330
833.714	24232
833.852	24205
833.991	24136
834.129	24254
834.267	24182
834.406	24270
834.544	24102
834.682	24083
834.821	24098
834.959	24258
835.097	24045
835.235	24213
835.373	24251
835.511	24083
835.65	24117
835.788	24140
835.926	23893
836.064	23882
836.202	23798
836.34	24083
836.478	24034
836.615	24060
836.753	24018
836.891	24072
837.029	24076
837.167	23935
837.305	23859
837.443	23965
837.58	23946
837.718	23946
837.856	23847
837.993	23737
838.131	23866
838.269	23581
838.406	23882
838.544	23760
838.681	23570
838.819	23425
838.956	23288
839.094	23429
839.231	23372
839.369	23539
839.506	23775
839.643	23558
839.781	23299
839.918	23258
840.055	23315
840.193	23284
840.33	23303
840.467	23143
840.604	23284
840.742	23505
840.879	22934
841.016	23277
841.153	23128
841.29	23509
841.427	23132
841.564	23265
841.701	23235
841.838	23227
841.975	23052
842.112	23067
842.249	23170
842.385	22972
842.522	23197
842.659	23044
842.796	23041
842.933	23006
843.069	22896
843.206	23056
843.343	23147
843.479	22946
843.616	23067
843.752	22778
843.889	22847
844.025	22892
844.162	22675
844.298	22847
844.435	22767
844.571	22824
844.708	22805
844.844	22919
844.98	22934
845.117	22949
845.253	22744
845.389	22653
845.525	22641
845.661	22683
845.798	22542
845.934	22527
846.07	22535
846.206	22500
846.342	22538
846.478	22440
846.614	22261
846.75	22276
846.886	22211
847.022	22306
847.158	22310
847.294	22238
847.429	22314
847.565	22303
847.701	22615
847.837	22067
847.972	21987
848.108	22010
848.244	22067
848.379	21827
848.515	21865
848.65	21812
848.786	21903
848.921	21781
849.057	21895
849.192	21838
849.328	21888
849.463	21854
849.598	21819
849.734	21709
849.869	21724
850.004	21447
850.14	21656
850.275	21679
850.41	21488
850.545	21515
850.68	21561
850.815	21633
850.95	21622
851.085	21800
851.22	21671
851.355	21682
851.49	21587
851.625	21667
851.76	21591
851.895	21583
852.03	21447
852.165	21633
852.299	21644
852.434	21759
852.569	21625
852.703	21450
852.838	21644
852.973	21694
853.107	21644
853.242	21549
853.376	21424
853.511	21332
853.645	21302
853.78	21507
853.914	21500
854.048	21450
854.183	21492
854.317	21397
854.451	21637
854.585	21530
854.72	21408
854.854	21481
854.988	21435
855.122	21435
855.256	21378
855.39	21439
855.524	21572
855.658	21431
855.792	21424
855.926	21485
856.06	21488
856.194	21660
856.327	21428
856.461	21344
856.595	21454
856.729	21431
856.862	21526
856.996	21519
857.13	21405
857.263	21492
857.397	21519
857.53	21370
857.664	21469
857.797	21530
857.931	21523
858.064	21363
858.197	21511
858.331	21386
858.464	21355
858.597	21332
858.731	21310
858.864	21397
858.997	21340
859.13	21466
859.263	21428
859.396	21492
859.529	21477
859.662	21355
859.795	21443
859.928	21412
860.061	21606
860.194	21637
860.327	21469
860.46	21545
860.592	21542
860.725	21660
860.858	21538
860.99	21363
861.123	21298
861.256	21439
861.388	21469
861.521	22109
861.653	21154
861.786	21188
861.918	21291
862.05	21416
862.183	21245
862.315	21378
862.447	21397
862.58	21374
862.712	21074
862.844	21180
862.976	21287
863.108	21104
863.24	21462
863.372	21077
863.504	21192
863.636	21180
863.768	21184
863.9	21154
864.032	21104
864.164	21165
864.296	21192
864.428	21207
864.559	21218
864.691	21165
864.823	21195
864.954	21150
865.086	21070
865.217	20998
865.349	21013
865.48	21039
865.612	21009
865.743	21203
865.875	21001
866.006	21020
866.137	20960
866.269	21043
866.4	21055
866.531	21001
866.662	20933
866.793	20986
866.924	20998
867.055	21154
867.186	21131
867.317	20857
867.448	20811
867.579	21020
867.71	20887
867.841	20853
867.972	20948
868.103	21062
868.233	20941
868.364	20872
868.495	20998
868.625	21283
868.756	21279
868.886	20998
869.017	21161
869.147	21336
869.278	21306
869.408	21112
869.539	21074
869.669	21325
869.799	21237
869.929	21317
870.06	21302
870.19	21523
870.32	21473
870.45	21599
870.58	21576
870.71	21675
870.84	21644
870.97	21572
871.1	21496
871.23	21842
871.36	21816
871.489	21644
871.619	21812
871.749	21736
871.879	21793
872.008	21903
872.138	21842
872.267	21857
872.397	21728
872.526	21564
872.656	21679
872.785	21580
872.915	21846
873.044	21895
873.173	21903
873.303	21907
873.432	21888
873.561	21865
873.69	21918
873.819	21861
873.948	21884
874.077	21819
874.206	21880
874.335	21732
874.464	22013
874.593	22120
874.722	22006
874.851	22074
874.979	22086
875.108	22211
875.237	22013
875.365	21983
875.494	22082
875.623	22036
875.751	21956
875.88	22002
876.008	22158
876.136	22177
876.265	22607
876.393	22588
876.521	22584
876.65	22546
876.778	22527
876.906	22337
877.034	22386
877.162	22466
877.29	22295
877.418	22440
877.546	22417
877.674	22424
877.802	22284
877.93	22409
878.058	22314
878.185	22386
878.313	22493
878.441	22322
878.568	22291
878.696	22329
878.824	22325
878.951	22386
879.079	22660
879.206	22744
879.333	22523
879.461	22462
879.588	22546
879.715	22550
879.842	22637
879.97	22512
880.097	22299
880.224	22147
880.351	22333
880.478	22166
880.605	22173
880.732	22147
880.859	22485
880.986	22223
881.112	22398
881.239	22074
881.366	21941
881.493	21838
881.619	21736
881.746	21819
881.872	21755
881.999	21736
882.125	21789
882.252	21888
882.378	21789
882.505	21804
882.631	21663
882.757	21507
882.883	21603
883.01	21443
883.136	21450
883.262	21382
883.388	21176
883.514	21504
883.64	21507
883.766	21389
883.892	21287
884.018	21256
884.143	21530
884.269	21553
884.395	21214
884.52	21089
884.646	21043
884.772	21154
884.897	21157
885.023	21058
885.148	21127
885.274	21260
885.399	21279
885.524	21157
885.65	21104
885.775	21127
885.9	21108
886.025	21367
886.15	21268
886.275	21020
886.4	21032
886.525	21127
886.65	21089
886.775	21116
886.9	21146
887.025	21161
887.149	21089
887.274	20845
887.399	20952
887.523	21009
887.648	20899
887.773	20838
887.897	20921
888.021	20857
888.146	20746
888.27	20952
888.395	21123
888.519	20929
888.643	20883
888.767	20975
888.891	20918
889.015	20788
889.139	20762
889.263	20625
889.387	20743
889.511	20937
889.635	20762
889.759	20583
889.883	20644
890.006	20644
890.13	20689
890.254	20678
890.377	20678
890.501	20537
890.624	20404
890.748	20526
890.871	20446
890.995	20320
891.118	20240
891.241	20278
891.364	20229
891.488	20476
891.611	20332
891.734	20225
891.857	20263
891.98	20339
892.103	20233
892.226	20263
892.349	20286
892.471	20149
892.594	20206
892.717	20259
892.839	20103
892.962	20149
893.085	20195
893.207	20298
893.33	20001
893.452	20103
893.575	20183
893.697	20122
893.819	20240
893.941	20343
894.064	20229
894.186	20092
894.308	20008
894.43	20191
894.552	20412
894.674	20210
894.796	19974
894.918	20153
895.04	20233
895.161	20218
895.283	20244
895.405	20081
895.526	20096
895.648	20111
895.769	20096
895.891	20225
896.012	20142
896.134	20183
896.255	20149
896.376	20164
896.498	20202
896.619	20119
896.74	20100
896.861	20183
896.982	20495
897.103	20716
897.224	20450
897.345	20473
897.466	20320
897.587	20347
897.708	20541
897.828	20484
897.949	20275
898.07	20305
898.19	20282
898.311	20332
898.431	20385
898.552	20419
898.672	20484
898.792	20358
898.913	20408
899.033	20381
899.153	20206
899.273	20134
899.393	20111
899.513	20168
899.633	20111
899.753	20176
899.873	20050
899.993	20142
900.113	20119
900.232	20092
900.352	19974
900.472	19947
900.591	19989
900.711	19830
900.83	19818
900.95	19944
901.069	19947
901.189	19776
901.308	19533
901.427	19483
901.546	19457
901.665	19453
901.784	19460
901.904	19324
902.023	19331
902.141	19034
902.26	19004
902.379	19019
902.498	18951
902.617	18916
902.735	18985
902.854	18894
902.973	18844
903.091	18673
903.21	18661
903.328	18582
903.446	18620
903.565	18452
903.683	18388
903.801	18460
903.919	18422
904.038	18395
904.156	18327
904.274	18350
904.392	18190
904.51	18220
904.627	18239
904.745	18304
904.863	18262
904.981	18087
905.098	17802
905.216	17916
905.334	17893
905.451	17969
905.569	17954
905.686	17961
905.803	17912
905.921	17638
906.038	17771
906.155	17718
906.272	17653
906.389	17547
906.506	17554
906.623	17486
906.74	17459
906.857	17288
906.974	17280
907.091	17493
907.208	17455
907.324	17471
907.441	17364
907.557	17235
907.674	17166
907.79	17052
907.907	17117
908.023	17178
908.139	17193
908.256	17067
908.372	17086
908.488	16976
908.604	16984
908.72	16782
908.836	16961
908.952	16816
909.068	16934
909.184	16930
909.3	16812
909.415	16957
909.531	16904
909.647	16702
909.762	16546
909.878	16558
909.993	16588
910.108	16535
910.224	16497
910.339	16546
910.454	16390
910.57	16421
910.685	16360
910.8	16626
910.915	16485
911.03	16443
911.145	16124
911.259	16105
911.374	16131
911.489	16040
911.604	16036
911.718	15880
911.833	15941
911.947	15736
912.062	15648
912.176	15895
912.291	15930
912.405	15956
912.519	16097
912.633	16002
912.748	15850
912.862	16071
912.976	15770
913.09	15553
913.204	15698
913.318	15698
913.431	15808
913.545	15766
913.659	15857
913.772	15728
913.886	15580
914	15523
914.113	15648
914.226	15561
914.34	15538
914.453	15420
914.566	15561
914.68	15504
914.793	15344
914.906	15272
915.019	15154
915.132	15051
915.245	15176
915.358	15211
915.47	15146
915.583	15123
915.696	15112
915.809	15218
915.921	15245
916.034	15097
916.146	15028
916.259	15005
916.371	15089
916.483	15135
916.595	15001
916.708	14948
916.82	15009
916.932	14925
917.044	14895
917.156	14876
917.268	14834
917.38	14880
917.491	14842
917.603	14834
917.715	14823
917.826	14842
917.938	14701
918.049	14629
918.161	14720
918.272	14918
918.384	14861
918.495	14701
918.606	14552
918.717	14393
918.828	14625
918.939	14518
919.05	14522
919.161	14514
919.272	14336
919.383	14366
919.494	14663
919.604	14720
919.715	14530
919.826	14415
919.936	14533
920.047	14556
920.157	14568
920.267	14590
920.378	14625
920.488	14564
920.598	14670
920.708	14781
920.818	14549
920.928	14621
921.038	14853
921.148	14811
921.258	14514
921.368	14404
921.477	14229
921.587	14332
921.697	14130
921.806	14248
921.916	14225
922.025	13974
922.134	13879
922.244	13849
922.353	13906
922.462	13780
922.571	13639
922.68	13685
922.789	13468
922.898	13502
923.007	13506
923.116	13502
923.224	13567
923.333	13453
923.442	13457
923.55	13449
923.659	13411
923.767	13377
923.876	13324
923.984	13464
924.092	13240
924.201	13346
924.309	13221
924.417	13312
924.525	13133
924.633	13194
924.741	14077
924.849	13004
924.956	13107
925.064	13019
925.172	12894
925.279	12981
925.387	13008
925.494	12989
925.602	13050
925.709	13053
925.816	12829
925.924	12962
926.031	13088
926.138	12798
926.245	12909
926.352	12779
926.459	12920
926.566	12981
926.673	12817
926.779	12642
926.886	12741
926.993	12547
927.099	12536
927.206	12460
927.312	12532
927.419	12494
927.525	12574
927.631	12506
927.737	12437
927.843	12372
927.95	12209
928.056	12327
928.162	12361
928.267	12399
928.373	12810
928.479	12311
928.585	12136
928.69	12334
928.796	12330
928.901	12254
929.007	12095
929.112	12258
929.218	12178
929.323	12087
929.428	11988
929.533	12121
929.638	11980
929.743	11961
929.848	12057
929.953	12022
930.058	11824
930.163	11775
930.267	11790
930.372	11840
930.477	11657
930.581	12007
930.685	11843
930.79	11611
930.894	11714
930.998	11573
931.103	11638
931.207	11433
931.311	11296
931.415	11216
931.519	11048
931.623	11025
