Data from test_V78500241_1923.txt Node
Date: Fri Mar 25 15:23:14 CST 2022
User: usil
Spectrometer: V785-0024
Trigger mode: 0
Integration Time (sec): 4.000000E-1
Scans to average: 1
Nonlinearity correction enabled: false
Boxcar width: 0
Storing dark spectrum: false
XAxis mode: Wavelengths
Number of Pixels in Spectrum: 1024
>>>>>Begin Spectral Data<<<<<
801.071	27827
801.214	27633
801.356	27443
801.499	27397
801.641	27275
801.783	27279
801.926	27378
802.068	27245
802.211	27218
802.353	27195
802.496	26967
802.638	26940
802.78	26807
802.923	26895
803.065	26819
803.208	26811
803.35	26960
803.492	27051
803.635	27062
803.777	27036
803.919	27096
804.061	27329
804.204	27233
804.346	26952
804.488	27119
804.63	27013
804.773	27138
804.915	27138
805.057	27157
805.199	27127
805.341	27260
805.483	27256
805.626	27154
805.768	27020
805.91	27294
806.052	27237
806.194	27291
806.336	27378
806.478	27252
806.62	27207
806.762	27283
806.904	27427
807.046	27762
807.188	27580
807.33	27599
807.472	27629
807.614	27625
807.756	27606
807.898	27488
808.04	27526
808.182	27500
808.324	27572
808.465	27458
808.607	27679
808.749	27835
808.891	27857
809.033	28032
809.174	27892
809.316	27793
809.458	27800
809.6	27819
809.741	27968
809.883	27956
810.025	28128
810.166	28207
810.308	28086
810.45	28150
810.591	28082
810.733	27854
810.875	27759
811.016	27766
811.158	27675
811.299	27968
811.441	27949
811.582	27861
811.724	27934
811.865	27755
812.007	27926
812.148	27831
812.29	27835
812.431	27968
812.573	28128
812.714	28299
812.855	28306
812.997	28474
813.138	28588
813.279	28481
813.421	28303
813.562	28352
813.703	28120
813.845	27911
813.986	27759
814.127	27454
814.268	27519
814.41	27610
814.551	27606
814.692	27622
814.833	27485
814.974	27420
815.115	27538
815.256	27530
815.397	27424
815.539	27424
815.68	27389
815.821	27104
815.962	27188
816.103	27264
816.244	27176
816.385	27093
816.526	27085
816.666	26929
816.807	26716
816.948	26883
817.089	26979
817.23	26762
817.371	26899
817.512	26785
817.653	26785
817.793	26788
817.934	26708
818.075	26811
818.216	26792
818.356	26724
818.497	26765
818.638	26621
818.778	26499
818.919	26606
819.06	26621
819.2	26796
819.341	26826
819.481	26891
819.622	26914
819.762	27173
819.903	26952
820.043	26815
820.184	27024
820.324	26823
820.465	26948
820.605	27024
820.746	26883
820.886	26800
821.026	26899
821.167	26914
821.307	26925
821.447	27020
821.588	26781
821.728	26636
821.868	26560
822.008	26259
822.149	26336
822.289	26324
822.429	26115
822.569	26039
822.709	26100
822.849	25746
822.99	25913
823.13	25795
823.27	25814
823.41	25662
823.55	25472
823.69	25685
823.83	25681
823.97	25677
824.11	25438
824.25	25438
824.389	25476
824.529	25449
824.669	25495
824.809	25491
824.949	25609
825.089	25597
825.228	25434
825.368	25263
825.508	25232
825.648	25312
825.787	25476
825.927	25453
826.067	25403
826.206	25255
826.346	25365
826.485	25392
826.625	25225
826.765	25354
826.904	25343
827.044	25168
827.183	24996
827.323	24981
827.462	25061
827.601	25084
827.741	25038
827.88	25114
828.02	24909
828.159	24989
828.298	25095
828.437	25034
828.577	24909
828.716	25133
828.855	24886
828.994	24776
829.134	24665
829.273	24779
829.412	24681
829.551	24776
829.69	24658
829.829	24745
829.968	24810
830.107	24787
830.246	24677
830.385	24833
830.524	24646
830.663	24471
830.802	24631
830.941	24372
831.08	24353
831.219	24338
831.357	24426
831.496	24517
831.635	24426
831.774	24232
831.913	24289
832.051	24224
832.19	24190
832.329	24129
832.467	24281
832.606	24064
832.744	23927
832.883	24003
833.022	23950
833.16	24022
833.299	24076
833.437	24174
833.576	24072
833.714	24060
833.852	24220
833.991	24220
834.129	24182
834.267	24133
834.406	24083
834.544	24110
834.682	24190
834.821	24091
834.959	24308
835.097	24045
835.235	24163
835.373	24178
835.511	24057
835.65	24018
835.788	23946
835.926	23897
836.064	23851
836.202	23874
836.34	23870
836.478	24064
836.615	23935
836.753	23988
836.891	23954
837.029	24003
837.167	23916
837.305	23790
837.443	23828
837.58	23847
837.718	23882
837.856	23843
837.993	23832
838.131	23786
838.269	23627
838.406	23843
838.544	23646
838.681	23520
838.819	23471
838.956	23254
839.094	23322
839.231	23368
839.369	23436
839.506	23733
839.643	23589
839.781	23341
839.918	23303
840.055	23383
840.193	23330
840.33	23220
840.467	23200
840.604	23250
840.742	23421
840.879	23124
841.016	23220
841.153	23079
841.29	23395
841.427	23231
841.564	23128
841.701	23200
841.838	23204
841.975	22995
842.112	23162
842.249	23010
842.385	22968
842.522	23128
842.659	22976
842.796	22949
842.933	23075
843.069	22980
843.206	22866
843.343	23033
843.479	23052
843.616	23018
843.752	22736
843.889	22687
844.025	22809
844.162	22660
844.298	22862
844.435	22763
844.571	22771
844.708	22797
844.844	22930
844.98	22889
845.117	22824
845.253	22915
845.389	22481
845.525	22752
845.661	22615
845.798	22485
845.934	22596
846.07	22516
846.206	22535
846.342	22634
846.478	22504
846.614	22363
846.75	22177
846.886	22230
847.022	22382
847.158	22177
847.294	22276
847.429	22284
847.565	22051
847.701	22451
847.837	21934
847.972	21846
848.108	22025
848.244	22116
848.379	21812
848.515	21842
848.65	21660
848.786	21804
848.921	21743
849.057	21869
849.192	21861
849.328	21869
849.463	21827
849.598	21698
849.734	21816
849.869	21549
850.004	21591
850.14	21610
850.275	21519
850.41	21462
850.545	21564
850.68	21538
850.815	21603
850.95	21610
851.085	21804
851.22	21625
851.355	21496
851.49	21583
851.625	21530
851.76	21682
851.895	21306
852.03	21458
852.165	21492
852.299	21599
852.434	21667
852.569	21545
852.703	21545
852.838	21610
852.973	21614
853.107	21663
853.242	21526
853.376	21488
853.511	21161
853.645	21374
853.78	21447
853.914	21340
854.048	21325
854.183	21325
854.317	21359
854.451	21698
854.585	21351
854.72	21424
854.854	21469
854.988	21275
855.122	21420
855.256	21146
855.39	21310
855.524	21545
855.658	21485
855.792	21389
855.926	21450
856.06	21511
856.194	21591
856.327	21363
856.461	21367
856.595	21313
856.729	21332
856.862	21439
856.996	21469
857.13	21344
857.263	21534
857.397	21576
857.53	21310
857.664	21428
857.797	21439
857.931	21572
858.064	21420
858.197	21557
858.331	21306
858.464	21279
858.597	21226
858.731	21370
858.864	21370
858.997	21393
859.13	21367
859.263	21397
859.396	21599
859.529	21332
859.662	21374
859.795	21313
859.928	21397
860.061	21629
860.194	21477
860.327	21473
860.46	21344
860.592	21530
860.725	21530
860.858	21568
860.99	21420
861.123	21336
861.256	21306
861.388	21405
861.521	21972
861.653	21192
861.786	21222
861.918	21169
862.05	21195
862.183	21298
862.315	21298
862.447	21386
862.58	21340
862.712	21173
862.844	20929
862.976	21173
863.108	21131
863.24	21462
863.372	21074
863.504	21024
863.636	21051
863.768	21020
863.9	21096
864.032	21009
864.164	20918
864.296	21081
864.428	21165
864.559	21020
864.691	21165
864.823	21074
864.954	21104
865.086	21028
865.217	20967
865.349	20982
865.48	20956
865.612	21074
865.743	21127
865.875	21104
866.006	20910
866.137	21009
866.269	20998
866.4	20933
866.531	20975
866.662	20834
866.793	20838
866.924	20902
867.055	20963
867.186	20929
867.317	20876
867.448	20762
867.579	20960
867.71	20948
867.841	20872
867.972	20925
868.103	20937
868.233	20925
868.364	20800
868.495	20994
868.625	21100
868.756	21176
868.886	21009
869.017	21165
869.147	21154
869.278	21344
869.408	21199
869.539	21127
869.669	21207
869.799	21233
869.929	21310
870.06	21249
870.19	21515
870.32	21405
870.45	21488
870.58	21466
870.71	21701
870.84	21648
870.97	21504
871.1	21511
871.23	21694
871.36	21755
871.489	21652
871.619	21838
871.749	21701
871.879	21797
872.008	21922
872.138	21709
872.267	21652
872.397	21610
872.526	21576
872.656	21553
872.785	21663
872.915	21781
873.044	21732
873.173	21808
873.303	21831
873.432	21884
873.561	21907
873.69	21781
873.819	21781
873.948	21861
874.077	21793
874.206	21739
874.335	21736
874.464	21823
874.593	22070
874.722	21945
874.851	21857
874.979	22078
875.108	21972
875.237	21960
875.365	21934
875.494	22067
875.623	21994
875.751	21903
875.88	22051
876.008	22135
876.136	22131
876.265	22306
876.393	22451
876.521	22440
876.65	22466
876.778	22333
876.906	22314
877.034	22329
877.162	22417
877.29	22470
877.418	22436
877.546	22367
877.674	22318
877.802	22360
877.93	22318
878.058	22291
878.185	22109
878.313	22284
878.441	22379
878.568	22238
878.696	22272
878.824	22352
878.951	22295
879.079	22360
879.206	22656
879.333	22512
879.461	22402
879.588	22436
879.715	22432
879.842	22653
879.97	22409
880.097	22257
880.224	22059
880.351	22185
880.478	22090
880.605	22162
880.732	22150
880.859	22356
880.986	22215
881.112	22051
881.239	22021
881.366	21892
881.493	21857
881.619	21888
881.746	21804
881.872	21705
881.999	21724
882.125	21576
882.252	21709
882.378	21629
882.505	21766
882.631	21587
882.757	21405
882.883	21542
883.01	21458
883.136	21435
883.262	21298
883.388	21226
883.514	21367
883.64	21526
883.766	21386
883.892	21081
884.018	21241
884.143	21321
884.269	21633
884.395	21131
884.52	21058
884.646	21058
884.772	20979
884.897	21043
885.023	20986
885.148	21096
885.274	21218
885.399	21203
885.524	21013
885.65	21116
885.775	21043
885.9	21085
886.025	21055
886.15	21188
886.275	21150
886.4	20933
886.525	21142
886.65	20963
886.775	20937
886.9	21146
887.025	21302
887.149	21036
887.274	20819
887.399	20804
887.523	20838
887.648	20880
887.773	20727
887.897	20925
888.021	20868
888.146	20800
888.27	21020
888.395	20902
888.519	20891
888.643	20891
888.767	20815
888.891	20697
889.015	20708
889.139	20754
889.263	20621
889.387	20849
889.511	20929
889.635	20815
889.759	20735
889.883	20697
890.006	20648
890.13	20609
890.254	20636
890.377	20609
890.501	20465
890.624	20336
890.748	20480
890.871	20214
890.995	20142
891.118	20252
891.241	20263
891.364	20221
891.488	20240
891.611	20298
891.734	20191
891.857	20240
891.98	20119
892.103	20134
892.226	20294
892.349	20084
892.471	20024
892.594	20161
892.717	20138
892.839	20062
892.962	20214
893.085	20199
893.207	20149
893.33	19944
893.452	20046
893.575	20149
893.697	20092
893.819	20134
893.941	20210
894.064	20309
894.186	20077
894.308	20012
894.43	20259
894.552	20237
894.674	20244
894.796	19921
894.918	20202
895.04	20157
895.161	20214
895.283	20092
895.405	19947
895.526	20111
895.648	20134
895.769	20024
895.891	20065
896.012	20191
896.134	20069
896.255	20142
896.376	20126
896.498	20058
896.619	20172
896.74	20161
896.861	20119
896.982	20381
897.103	20530
897.224	20328
897.345	20298
897.466	20328
897.587	20423
897.708	20431
897.828	20305
897.949	20343
898.07	20088
898.19	20218
898.311	20404
898.431	20191
898.552	20286
898.672	20427
898.792	20400
898.913	20389
899.033	20229
899.153	20153
899.273	20115
899.393	20058
899.513	20024
899.633	19947
899.753	20005
899.873	20008
899.993	20081
900.113	20012
900.232	20142
900.352	19989
900.472	20020
900.591	19826
900.711	19898
900.83	19788
900.95	19803
901.069	19925
901.189	19784
901.308	19480
901.427	19293
901.546	19388
901.665	19476
901.784	19434
901.904	19304
902.023	19164
902.141	19053
902.26	18932
902.379	19076
902.498	19061
902.617	18932
902.735	19008
902.854	18943
902.973	18814
903.091	18661
903.21	18627
903.328	18688
903.446	18578
903.565	18410
903.683	18410
903.801	18353
903.919	18422
904.038	18391
904.156	18194
904.274	18262
904.392	18220
904.51	18125
904.627	18167
904.745	18327
904.863	18270
904.981	17961
905.098	17859
905.216	17916
905.334	17961
905.451	17904
905.569	17794
905.686	17843
905.803	17916
905.921	17634
906.038	17741
906.155	17729
906.272	17501
906.389	17554
906.506	17440
906.623	17383
906.74	17505
906.857	17299
906.974	17273
907.091	17467
907.208	17554
907.324	17353
907.441	17326
907.557	17159
907.674	17094
907.79	17033
907.907	17090
908.023	17143
908.139	17105
908.256	17056
908.372	17083
908.488	16946
908.604	16869
908.72	16850
908.836	16904
908.952	16767
909.068	16953
909.184	16949
909.3	16740
909.415	16885
909.531	16801
909.647	16558
909.762	16630
909.878	16478
909.993	16592
910.108	16531
910.224	16592
910.339	16478
910.454	16440
910.57	16390
910.685	16219
910.8	16542
910.915	16424
911.03	16299
911.145	16166
911.259	16192
911.374	16120
911.489	16036
911.604	16082
911.718	15846
911.833	15907
911.947	15720
912.062	15637
912.176	15846
912.291	15793
912.405	15831
912.519	16021
912.633	16055
912.748	15857
912.862	15892
912.976	15660
913.09	15595
913.204	15648
913.318	15610
913.431	15781
913.545	15743
913.659	15720
913.772	15679
913.886	15412
914	15466
914.113	15614
914.226	15644
914.34	15584
914.453	15294
914.566	15431
914.68	15405
914.793	15363
914.906	15230
915.019	15104
915.132	15051
915.245	15013
915.358	15165
915.47	15039
915.583	15142
915.696	15157
915.809	15192
915.921	15180
916.034	14975
916.146	15081
916.259	14929
916.371	15081
916.483	15009
916.595	14948
916.708	14971
916.82	14971
916.932	14956
917.044	14960
917.156	14777
917.268	14762
917.38	14826
917.491	14743
917.603	14712
917.715	14727
917.826	14853
917.938	14659
918.049	14518
918.161	14754
918.272	14823
918.384	14849
918.495	14701
918.606	14511
918.717	14511
918.828	14503
918.939	14575
919.05	14503
919.161	14408
919.272	14347
919.383	14389
919.494	14480
919.604	14667
919.715	14507
919.826	14488
919.936	14526
920.047	14564
920.157	14488
920.267	14621
920.378	14514
920.488	14450
920.598	14602
920.708	14667
920.818	14602
920.928	14560
921.038	14746
921.148	14697
921.258	14343
921.368	14305
921.477	14210
921.587	14233
921.697	14065
921.806	14206
921.916	14111
922.025	13814
922.134	13803
922.244	13788
922.353	13864
922.462	13715
922.571	13658
922.68	13514
922.789	13434
922.898	13529
923.007	13476
923.116	13521
923.224	13377
923.333	13514
923.442	13312
923.55	13365
923.659	13251
923.767	13324
923.876	13221
923.984	13392
924.092	13259
924.201	13187
924.309	13228
924.417	13255
924.525	13091
924.633	13198
924.741	14103
924.849	12973
924.956	13069
925.064	13023
925.172	12821
925.279	12897
925.387	12882
925.494	12909
925.602	13015
925.709	12909
925.816	12875
925.924	12935
926.031	12909
926.138	12791
926.245	12924
926.352	12764
926.459	12947
926.566	12951
926.673	12817
926.779	12662
926.886	12669
926.993	12437
927.099	12418
927.206	12414
927.312	12426
927.419	12525
927.525	12445
927.631	12475
927.737	12311
927.843	12327
927.95	12178
928.056	12311
928.162	12357
928.267	12365
928.373	12806
928.479	12369
928.585	12098
928.69	12262
928.796	12251
928.901	12194
929.007	12095
929.112	12235
929.218	12125
929.323	12091
929.428	12053
929.533	12163
929.638	11950
929.743	11980
929.848	11969
929.953	11961
930.058	11836
930.163	11748
930.267	11733
930.372	11863
930.477	11661
930.581	11961
930.685	11809
930.79	11547
930.894	11668
930.998	11558
931.103	11665
931.207	11349
931.311	11246
931.415	11212
931.519	10976
931.623	11033
