Data from test_V78500241_2841.txt Node
Date: Fri Mar 25 15:29:38 CST 2022
User: usil
Spectrometer: V785-0024
Trigger mode: 0
Integration Time (sec): 4.000000E-1
Scans to average: 1
Nonlinearity correction enabled: false
Boxcar width: 0
Storing dark spectrum: false
XAxis mode: Wavelengths
Number of Pixels in Spectrum: 1024
>>>>>Begin Spectral Data<<<<<
801.071	27279
801.214	27135
801.356	26899
801.499	26921
801.641	26762
801.783	26716
801.926	26842
802.068	26724
802.211	26769
802.353	26682
802.496	26503
802.638	26400
802.78	26313
802.923	26305
803.065	26210
803.208	26180
803.35	26381
803.492	26431
803.635	26499
803.777	26476
803.919	26514
804.061	26880
804.204	26636
804.346	26389
804.488	26381
804.63	26556
804.773	26374
804.915	26476
805.057	26686
805.199	26499
805.341	26579
805.483	26716
805.626	26693
805.768	26533
805.91	26594
806.052	26697
806.194	26492
806.336	26769
806.478	26545
806.62	26663
806.762	26823
806.904	26998
807.046	27127
807.188	27081
807.33	27161
807.472	27142
807.614	26944
807.756	27020
807.898	26914
808.04	26834
808.182	26861
808.324	26921
808.465	26891
808.607	27058
808.749	27485
808.891	27393
809.033	27427
809.174	27382
809.316	27233
809.458	27348
809.6	27108
809.741	27344
809.883	27313
810.025	27572
810.166	27633
810.308	27549
810.45	27378
810.591	27545
810.733	27359
810.875	27104
811.016	27138
811.158	27222
811.299	27249
811.441	27389
811.582	27454
811.724	27275
811.865	27093
812.007	27176
812.148	27233
812.29	27283
812.431	27427
812.573	27542
812.714	27462
812.855	27728
812.997	27835
813.138	27941
813.279	27835
813.421	27762
813.562	27648
813.703	27599
813.845	27397
813.986	27222
814.127	27070
814.268	26986
814.41	26895
814.551	26785
814.692	26971
814.833	26963
814.974	26979
815.115	26811
815.256	26712
815.397	26857
815.539	26883
815.68	26674
815.821	26621
815.962	26708
816.103	26674
816.244	26564
816.385	26640
816.526	26446
816.666	26332
816.807	26229
816.948	26305
817.089	26259
817.23	26073
817.371	26195
817.512	26328
817.653	26309
817.793	26012
817.934	26046
818.075	26043
818.216	26145
818.356	26134
818.497	26062
818.638	25875
818.778	25978
818.919	25830
819.06	25966
819.2	26084
819.341	26290
819.481	26164
819.622	26240
819.762	26408
819.903	26271
820.043	26453
820.184	26191
820.324	26263
820.465	26446
820.605	26221
820.746	26332
820.886	26058
821.026	26202
821.167	26157
821.307	26313
821.447	26176
821.588	26214
821.728	25879
821.868	25856
822.008	25605
822.149	25704
822.289	25620
822.429	25350
822.569	25301
822.709	25324
822.849	25156
822.99	25080
823.13	25194
823.27	24909
823.41	24989
823.55	24810
823.69	24981
823.83	24947
823.97	24833
824.11	24783
824.25	24722
824.389	24764
824.529	24635
824.669	24692
824.809	24677
824.949	24768
825.089	24734
825.228	24696
825.368	24578
825.508	24623
825.648	24616
825.787	24620
825.927	24521
826.067	24669
826.206	24646
826.346	24684
826.485	24570
826.625	24578
826.765	24707
826.904	24684
827.044	24407
827.183	24395
827.323	24353
827.462	24311
827.601	24251
827.741	24270
827.88	24338
828.02	24220
828.159	24342
828.298	24365
828.437	24350
828.577	24220
828.716	24353
828.855	24281
828.994	24011
829.134	24041
829.273	24079
829.412	23973
829.551	24057
829.69	24011
829.829	24057
829.968	24133
830.107	24083
830.246	24083
830.385	24015
830.524	24038
830.663	23847
830.802	23737
830.941	23665
831.08	23570
831.219	23764
831.357	23707
831.496	23813
831.635	23539
831.774	23615
831.913	23501
832.051	23440
832.19	23429
832.329	23414
832.467	23284
832.606	23193
832.744	23231
832.883	23280
833.022	23246
833.16	23341
833.299	23296
833.437	23178
833.576	23391
833.714	23307
833.852	23383
833.991	23406
834.129	23429
834.267	23318
834.406	23318
834.544	23398
834.682	23455
834.821	23383
834.959	23551
835.097	23197
835.235	23516
835.373	23299
835.511	23288
835.65	23254
835.788	23227
835.926	23090
836.064	23014
836.202	23071
836.34	23166
836.478	23307
836.615	23239
836.753	23246
836.891	23181
837.029	23086
837.167	23094
837.305	23083
837.443	23143
837.58	23041
837.718	23128
837.856	23056
837.993	22892
838.131	23086
838.269	22843
838.406	22927
838.544	22896
838.681	22809
838.819	22683
838.956	22447
839.094	22485
839.231	22603
839.369	22706
839.506	22949
839.643	22778
839.781	22542
839.918	22443
840.055	22519
840.193	22386
840.33	22310
840.467	22584
840.604	22542
840.742	22733
840.879	22348
841.016	22424
841.153	22375
841.29	22436
841.427	22462
841.564	22440
841.701	22421
841.838	22382
841.975	22291
842.112	22295
842.249	22299
842.385	22310
842.522	22443
842.659	22284
842.796	22223
842.933	22181
843.069	22131
843.206	22173
843.343	22230
843.479	22211
843.616	22246
843.752	21873
843.889	22025
844.025	22185
844.162	22013
844.298	21953
844.435	21918
844.571	21850
844.708	21994
844.844	22112
844.98	22082
845.117	22006
845.253	21884
845.389	21804
845.525	21911
845.661	21701
845.798	21747
845.934	21827
846.07	21652
846.206	21720
846.342	21793
846.478	21599
846.614	21549
846.75	21393
846.886	21424
847.022	21523
847.158	21549
847.294	21488
847.429	21496
847.565	21408
847.701	21762
847.837	21161
847.972	21142
848.108	21351
848.244	21199
848.379	21104
848.515	20979
848.65	20952
848.786	21138
848.921	20998
849.057	21138
849.192	21207
849.328	21104
849.463	21123
849.598	21009
849.734	20902
849.869	20906
850.004	20682
850.14	20891
850.275	20845
850.41	20686
850.545	20571
850.68	20758
850.815	20769
850.95	20689
851.085	21074
851.22	20842
851.355	20929
851.49	20777
851.625	20750
851.76	20853
851.895	20765
852.03	20667
852.165	20735
852.299	20849
852.434	20921
852.569	20750
852.703	20804
852.838	20891
852.973	20853
853.107	20891
853.242	20796
853.376	20697
853.511	20503
853.645	20579
853.78	20724
853.914	20579
854.048	20526
854.183	20670
854.317	20693
854.451	20876
854.585	20613
854.72	20602
854.854	20674
854.988	20651
855.122	20617
855.256	20454
855.39	20575
855.524	20716
855.658	20640
855.792	20750
855.926	20644
856.06	20629
856.194	20750
856.327	20499
856.461	20385
856.595	20556
856.729	20686
856.862	20682
856.996	20537
857.13	20678
857.263	20735
857.397	20686
857.53	20674
857.664	20762
857.797	20602
857.931	20708
858.064	20564
858.197	20796
858.331	20640
858.464	20568
858.597	20393
858.731	20533
858.864	20533
858.997	20549
859.13	20617
859.263	20640
859.396	20716
859.529	20667
859.662	20648
859.795	20480
859.928	20796
860.061	20724
860.194	20925
860.327	20682
860.46	20575
860.592	20804
860.725	20743
860.858	20785
860.99	20549
861.123	20552
861.256	20564
861.388	20530
861.521	21374
861.653	20621
861.786	20415
861.918	20488
862.05	20526
862.183	20541
862.315	20583
862.447	20727
862.58	20568
862.712	20358
862.844	20115
862.976	20446
863.108	20396
863.24	20830
863.372	20164
863.504	20313
863.636	20385
863.768	20377
863.9	20374
864.032	20214
864.164	20259
864.296	20271
864.428	20393
864.559	20404
864.691	20362
864.823	20206
864.954	20343
865.086	20256
865.217	20275
865.349	20092
865.48	20278
865.612	20195
865.743	20446
865.875	20240
866.006	20183
866.137	20301
866.269	20161
866.4	20259
866.531	20206
866.662	20172
866.793	20153
866.924	20119
867.055	20161
867.186	20164
867.317	20164
867.448	20145
867.579	20103
867.71	19986
867.841	20043
867.972	20221
868.103	20069
868.233	20218
868.364	20088
868.495	20256
868.625	20469
868.756	20454
868.886	20320
869.017	20423
869.147	20598
869.278	20583
869.408	20454
869.539	20507
869.669	20488
869.799	20438
869.929	20560
870.06	20381
870.19	20739
870.32	20663
870.45	20727
870.58	20769
870.71	20952
870.84	20891
870.97	20842
871.1	20819
871.23	21047
871.36	21005
871.489	20792
871.619	20933
871.749	21135
871.879	21123
872.008	21108
872.138	21096
872.267	20899
872.397	20819
872.526	20902
872.656	20975
872.785	20956
872.915	21116
873.044	21020
873.173	21070
873.303	21142
873.432	20994
873.561	21218
873.69	21150
873.819	21100
873.948	21176
874.077	21085
874.206	21032
874.335	21154
874.464	21119
874.593	21287
874.722	21401
874.851	21298
874.979	21321
875.108	21351
875.237	21291
875.365	21252
875.494	21268
875.623	21405
875.751	21275
875.88	21359
876.008	21416
876.136	21587
876.265	21865
876.393	21880
876.521	21743
876.65	21876
876.778	21800
876.906	21709
877.034	21629
877.162	21751
877.29	21679
877.418	21606
877.546	21698
877.674	21618
877.802	21633
877.93	21610
878.058	21568
878.185	21637
878.313	21561
878.441	21713
878.568	21519
878.696	21656
878.824	21732
878.951	21759
879.079	21789
879.206	21899
879.333	21846
879.461	21701
879.588	21778
879.715	21842
879.842	22025
879.97	21751
880.097	21435
880.224	21450
880.351	21606
880.478	21443
880.605	21458
880.732	21401
880.859	21686
880.986	21469
881.112	21599
881.239	21504
881.366	21268
881.493	21195
881.619	21077
881.746	21138
881.872	21028
881.999	21093
882.125	20899
882.252	21096
882.378	21089
882.505	21066
882.631	21020
882.757	20689
882.883	20883
883.01	20838
883.136	20644
883.262	20754
883.388	20636
883.514	20819
883.64	20777
883.766	20678
883.892	20594
884.018	20632
884.143	20746
884.269	20823
884.395	20480
884.52	20503
884.646	20396
884.772	20415
884.897	20396
885.023	20419
885.148	20427
885.274	20629
885.399	20533
885.524	20423
885.65	20457
885.775	20446
885.9	20366
886.025	20507
886.15	20533
886.275	20400
886.4	20301
886.525	20408
886.65	20313
886.775	20442
886.9	20541
887.025	20632
887.149	20419
887.274	20111
887.399	20233
887.523	20202
887.648	20149
887.773	20058
887.897	20180
888.021	20191
888.146	20240
888.27	20183
888.395	20412
888.519	20218
888.643	20195
888.767	20229
888.891	20153
889.015	19989
889.139	20088
889.263	20024
889.387	20149
889.511	20248
889.635	20180
889.759	20100
889.883	20016
890.006	20073
890.13	20282
890.254	19837
890.377	19803
890.501	19818
890.624	19757
890.748	19928
890.871	19666
890.995	19491
891.118	19464
891.241	19639
891.364	19556
891.488	19734
891.611	19586
891.734	19563
891.857	19647
891.98	19533
892.103	19556
892.226	19658
892.349	19491
892.471	19422
892.594	19453
892.717	19464
892.839	19468
892.962	19434
893.085	19674
893.207	19491
893.33	19457
893.452	19430
893.575	19499
893.697	19472
893.819	19624
893.941	19674
894.064	19601
894.186	19502
894.308	19453
894.43	19605
894.552	19578
894.674	19681
894.796	19373
894.918	19518
895.04	19537
895.161	19670
895.283	19632
895.405	19472
895.526	19483
895.648	19464
895.769	19643
895.891	19556
896.012	19590
896.134	19499
896.255	19460
896.376	19495
896.498	19609
896.619	19586
896.74	19544
896.861	19586
896.982	19826
897.103	20062
897.224	19795
897.345	19643
897.466	19734
897.587	19738
897.708	19909
897.828	19826
897.949	19757
898.07	19552
898.19	19700
898.311	19841
898.431	19788
898.552	19689
898.672	19795
898.792	19837
898.913	19791
899.033	19715
899.153	19677
899.273	19575
899.393	19544
899.513	19597
899.633	19571
899.753	19537
899.873	19438
899.993	19529
900.113	19537
900.232	19464
900.352	19400
900.472	19282
900.591	19221
900.711	19335
900.83	19164
900.95	19434
901.069	19350
901.189	19240
901.308	18943
901.427	18882
901.546	18863
901.665	18875
901.784	18886
901.904	18791
902.023	18669
902.141	18528
902.26	18464
902.379	18589
902.498	18391
902.617	18509
902.735	18471
902.854	18361
902.973	18311
903.091	18087
903.21	18140
903.328	18194
903.446	17901
903.565	17946
903.683	17893
903.801	17794
903.919	17802
904.038	17802
904.156	17832
904.274	17756
904.392	17668
904.51	17577
904.627	17638
904.745	17661
904.863	17779
904.981	17383
905.098	17330
905.216	17376
905.334	17410
905.451	17239
905.569	17334
905.686	17383
905.803	17296
905.921	17193
906.038	17307
906.155	17105
906.272	17083
906.389	16965
906.506	16938
906.623	16892
906.74	16858
906.857	16782
906.974	16850
907.091	16934
907.208	17048
907.324	16957
907.441	16702
907.557	16649
907.674	16679
907.79	16516
907.907	16497
908.023	16645
908.139	16592
908.256	16542
908.372	16519
908.488	16512
908.604	16394
908.72	16223
908.836	16390
908.952	16322
909.068	16386
909.184	16497
909.3	16284
909.415	16379
909.531	16325
909.647	15994
909.762	16032
909.878	15964
909.993	16051
910.108	15998
910.224	15937
910.339	16044
910.454	15941
910.57	15819
910.685	15823
910.8	16021
910.915	16067
911.03	15755
911.145	15625
911.259	15542
911.374	15618
911.489	15553
911.604	15526
911.718	15393
911.833	15389
911.947	15363
912.062	15245
912.176	15389
912.291	15466
912.405	15428
912.519	15572
912.633	15549
912.748	15397
912.862	15378
912.976	15264
913.09	15142
913.204	15287
913.318	15192
913.431	15321
913.545	15313
913.659	15367
913.772	15135
913.886	15161
914	14998
914.113	15142
914.226	15127
914.34	15074
914.453	14967
914.566	15077
914.68	14853
914.793	14883
914.906	14731
915.019	14674
915.132	14610
915.245	14644
915.358	14746
915.47	14701
915.583	14606
915.696	14693
915.809	14861
915.921	14819
916.034	14644
916.146	14560
916.259	14530
916.371	14606
916.483	14560
916.595	14454
916.708	14503
916.82	14469
916.932	14469
917.044	14438
917.156	14415
917.268	14271
917.38	14313
917.491	14282
917.603	14328
917.715	14492
917.826	14374
917.938	14263
918.049	14259
918.161	14275
918.272	14499
918.384	14339
918.495	14199
918.606	14069
918.717	14077
918.828	14119
918.939	14187
919.05	14043
919.161	13982
919.272	13833
919.383	14008
919.494	14172
919.604	14263
919.715	14069
919.826	13986
919.936	13955
920.047	14126
920.157	14035
920.267	14218
920.378	14126
920.488	14115
920.598	14233
920.708	14347
920.818	14187
920.928	14115
921.038	14412
921.148	14244
921.258	14058
921.368	13963
921.477	13757
921.587	13772
921.697	13696
921.806	13814
921.916	13651
922.025	13506
922.134	13415
922.244	13396
922.353	13487
922.462	13369
922.571	13259
922.68	13179
922.789	13187
922.898	13114
923.007	13091
923.116	13122
923.224	13160
923.333	13107
923.442	13065
923.55	12905
923.659	12962
923.767	12996
923.876	12909
923.984	12924
924.092	12852
924.201	12821
924.309	12837
924.417	12730
924.525	12867
924.633	12802
924.741	13670
924.849	12498
924.956	12734
925.064	12532
925.172	12517
925.279	12559
925.387	12574
925.494	12441
925.602	12612
925.709	12563
925.816	12399
925.924	12566
926.031	12547
926.138	12467
926.245	12509
926.352	12441
926.459	12585
926.566	12578
926.673	12365
926.779	12228
926.886	12330
926.993	12194
927.099	12133
927.206	12079
927.312	12064
927.419	12117
927.525	12186
927.631	12106
927.737	12015
927.843	11992
927.95	11904
928.056	11863
928.162	11984
928.267	12003
928.373	12563
928.479	12022
928.585	11714
928.69	11942
928.796	11874
928.901	11878
929.007	11596
929.112	11828
929.218	11722
929.323	11737
929.428	11726
929.533	11802
929.638	11566
929.743	11672
929.848	11737
929.953	11691
930.058	11463
930.163	11436
930.267	11395
930.372	11524
930.477	11387
930.581	11585
930.685	11478
930.79	11258
930.894	11345
930.998	11284
931.103	11417
931.207	11010
931.311	10946
931.415	10850
931.519	10668
931.623	10645
