Data from test_V78500241_2500.txt Node
Date: Fri Mar 25 15:27:16 CST 2022
User: usil
Spectrometer: V785-0024
Trigger mode: 0
Integration Time (sec): 4.000000E-1
Scans to average: 1
Nonlinearity correction enabled: false
Boxcar width: 0
Storing dark spectrum: false
XAxis mode: Wavelengths
Number of Pixels in Spectrum: 1024
>>>>>Begin Spectral Data<<<<<
801.071	27241
801.214	27119
801.356	26906
801.499	26807
801.641	26689
801.783	26617
801.926	26765
802.068	26746
802.211	26598
802.353	26537
802.496	26328
802.638	26294
802.78	26233
802.923	26259
803.065	26126
803.208	26267
803.35	26210
803.492	26427
803.635	26511
803.777	26434
803.919	26571
804.061	26765
804.204	26640
804.346	26545
804.488	26434
804.63	26533
804.773	26423
804.915	26404
805.057	26587
805.199	26453
805.341	26549
805.483	26632
805.626	26564
805.768	26552
805.91	26632
806.052	26644
806.194	26461
806.336	26708
806.478	26609
806.62	26537
806.762	26621
806.904	26834
807.046	27039
807.188	27055
807.33	26960
807.472	26956
807.614	26842
807.756	27009
807.898	26754
808.04	26727
808.182	26800
808.324	26883
808.465	27062
808.607	26982
808.749	27195
808.891	27150
809.033	27256
809.174	27287
809.316	27161
809.458	27214
809.6	27039
809.741	27245
809.883	27370
810.025	27477
810.166	27557
810.308	27511
810.45	27416
810.591	27431
810.733	27214
810.875	27142
811.016	27081
811.158	27279
811.299	27230
811.441	27443
811.582	27283
811.724	27142
811.865	27165
812.007	27009
812.148	27157
812.29	27070
812.431	27317
812.573	27492
812.714	27652
812.855	27644
812.997	27785
813.138	27945
813.279	27812
813.421	27724
813.562	27595
813.703	27336
813.845	27405
813.986	27043
814.127	26960
814.268	26891
814.41	26811
814.551	26743
814.692	26845
814.833	26705
814.974	26765
815.115	26872
815.256	26697
815.397	26651
815.539	26644
815.68	26644
815.821	26632
815.962	26552
816.103	26469
816.244	26552
816.385	26457
816.526	26229
816.666	26168
816.807	25909
816.948	26221
817.089	26225
817.23	25997
817.371	26001
817.512	26164
817.653	26115
817.793	25989
817.934	25997
818.075	26130
818.216	26035
818.356	25993
818.497	25909
818.638	25871
818.778	25795
818.919	25818
819.06	25902
819.2	26031
819.341	26103
819.481	26164
819.622	26126
819.762	26374
819.903	26465
820.043	26278
820.184	26164
820.324	26176
820.465	26229
820.605	26199
820.746	26107
820.886	25959
821.026	26088
821.167	26088
821.307	26244
821.447	25978
821.588	25921
821.728	25849
821.868	25674
822.008	25609
822.149	25510
822.289	25521
822.429	25346
822.569	25183
822.709	25365
822.849	25069
822.99	25072
823.13	25038
823.27	25034
823.41	24798
823.55	24806
823.69	24901
823.83	24802
823.97	24951
824.11	24597
824.25	24585
824.389	24639
824.529	24741
824.669	24711
824.809	24722
824.949	24730
825.089	24772
825.228	24715
825.368	24460
825.508	24616
825.648	24528
825.787	24502
825.927	24528
826.067	24585
826.206	24505
826.346	24620
826.485	24753
826.625	24658
826.765	24608
826.904	24650
827.044	24319
827.183	24395
827.323	24327
827.462	24403
827.601	24285
827.741	24167
827.88	24391
828.02	24106
828.159	24296
828.298	24350
828.437	24254
828.577	24239
828.716	24239
828.855	24148
828.994	24049
829.134	23931
829.273	23954
829.412	23931
829.551	23973
829.69	23889
829.829	24034
829.968	23977
830.107	24083
830.246	23847
830.385	24015
830.524	23878
830.663	23847
830.802	23790
830.941	23619
831.08	23634
831.219	23779
831.357	23623
831.496	23756
831.635	23619
831.774	23627
831.913	23379
832.051	23318
832.19	23356
832.329	23391
832.467	23395
832.606	23372
832.744	23307
832.883	23414
833.022	23102
833.16	23387
833.299	23414
833.437	23349
833.576	23482
833.714	23391
833.852	23356
833.991	23448
834.129	23360
834.267	23455
834.406	23417
834.544	23360
834.682	23318
834.821	23349
834.959	23501
835.097	23303
835.235	23425
835.373	23398
835.511	23261
835.65	23318
835.788	23189
835.926	23079
836.064	23029
836.202	23037
836.34	23269
836.478	23261
836.615	23170
836.753	23223
836.891	23292
837.029	23296
837.167	23162
837.305	23193
837.443	23200
837.58	23113
837.718	23128
837.856	23151
837.993	23044
838.131	23094
838.269	22930
838.406	23010
838.544	22972
838.681	22812
838.819	22793
838.956	22573
839.094	22527
839.231	22481
839.369	22812
839.506	23060
839.643	22824
839.781	22542
839.918	22493
840.055	22569
840.193	22573
840.33	22615
840.467	22569
840.604	22592
840.742	22801
840.879	22462
841.016	22474
841.153	22462
841.29	22603
841.427	22459
841.564	22592
841.701	22634
841.838	22428
841.975	22318
842.112	22470
842.249	22371
842.385	22314
842.522	22538
842.659	22363
842.796	22200
842.933	22246
843.069	22166
843.206	22169
843.343	22348
843.479	22363
843.616	22257
843.752	22105
843.889	22101
844.025	22116
844.162	22044
844.298	22090
844.435	22093
844.571	21937
844.708	22021
844.844	22162
844.98	22124
845.117	22025
845.253	21926
845.389	21857
845.525	21922
845.661	22021
845.798	21709
845.934	21797
846.07	21724
846.206	21838
846.342	21941
846.478	21679
846.614	21553
846.75	21481
846.886	21412
847.022	21519
847.158	21656
847.294	21530
847.429	21587
847.565	21412
847.701	21637
847.837	21241
847.972	21116
848.108	21344
848.244	21336
848.379	21237
848.515	21096
848.65	21138
848.786	21096
848.921	21119
849.057	21237
849.192	21116
849.328	21291
849.463	21013
849.598	21062
849.734	20914
849.869	20941
850.004	20899
850.14	20952
850.275	20914
850.41	20746
850.545	20785
850.68	20800
850.815	21047
850.95	20899
851.085	21009
851.22	20925
851.355	20906
851.49	20853
851.625	20906
851.76	20853
851.895	20762
852.03	20872
852.165	20910
852.299	20929
852.434	21024
852.569	20895
852.703	20796
852.838	20960
852.973	20933
853.107	20979
853.242	20785
853.376	20750
853.511	20594
853.645	20701
853.78	20765
853.914	20571
854.048	20735
854.183	20705
854.317	20712
854.451	20735
854.585	20682
854.72	20724
854.854	20777
854.988	20693
855.122	20724
855.256	20583
855.39	20731
855.524	20743
855.658	20807
855.792	20777
855.926	20754
856.06	20804
856.194	20785
856.327	20686
856.461	20731
856.595	20648
856.729	20670
856.862	20777
856.996	20720
857.13	20807
857.263	20769
857.397	20727
857.53	20632
857.664	20811
857.797	20807
857.931	20743
858.064	20735
858.197	20804
858.331	20667
858.464	20602
858.597	20533
858.731	20674
858.864	20625
858.997	20663
859.13	20659
859.263	20587
859.396	20849
859.529	20651
859.662	20792
859.795	20686
859.928	20746
860.061	20861
860.194	20804
860.327	20765
860.46	20594
860.592	20826
860.725	20895
860.858	20872
860.99	20735
861.123	20716
861.256	20587
861.388	20743
861.521	21207
861.653	20484
861.786	20556
861.918	20549
862.05	20545
862.183	20625
862.315	20712
862.447	20682
862.58	20629
862.712	20370
862.844	20446
862.976	20530
863.108	20499
863.24	20948
863.372	20332
863.504	20328
863.636	20446
863.768	20461
863.9	20446
864.032	20381
864.164	20560
864.296	20465
864.428	20400
864.559	20526
864.691	20469
864.823	20324
864.954	20495
865.086	20396
865.217	20305
865.349	20301
865.48	20377
865.612	20267
865.743	20465
865.875	20408
866.006	20377
866.137	20237
866.269	20263
866.4	20358
866.531	20225
866.662	20240
866.793	20244
866.924	20415
867.055	20271
867.186	20370
867.317	20271
867.448	20225
867.579	20225
867.71	20142
867.841	20145
867.972	20278
868.103	20164
868.233	20278
868.364	20332
868.495	20415
868.625	20541
868.756	20530
868.886	20442
869.017	20374
869.147	20606
869.278	20465
869.408	20602
869.539	20484
869.669	20568
869.799	20400
869.929	20606
870.06	20640
870.19	20731
870.32	20796
870.45	20872
870.58	20910
870.71	21077
870.84	21043
870.97	20948
871.1	20872
871.23	21070
871.36	21135
871.489	20937
871.619	21055
871.749	21119
871.879	21173
872.008	21260
872.138	21119
872.267	21081
872.397	21009
872.526	20895
872.656	20941
872.785	20948
872.915	21066
873.044	21207
873.173	21195
873.303	21116
873.432	21306
873.561	21260
873.69	21199
873.819	20960
873.948	21237
874.077	21157
874.206	21154
874.335	21112
874.464	21386
874.593	21340
874.722	21329
874.851	21344
874.979	21363
875.108	21397
875.237	21408
875.365	21325
875.494	21408
875.623	21458
875.751	21374
875.88	21466
876.008	21481
876.136	21458
876.265	21778
876.393	21972
876.521	21861
876.65	21873
876.778	21720
876.906	21720
877.034	21705
877.162	21739
877.29	21606
877.418	21880
877.546	21671
877.674	21793
877.802	21713
877.93	21736
878.058	21591
878.185	21648
878.313	21736
878.441	21690
878.568	21473
878.696	21717
878.824	21717
878.951	21850
879.079	21766
879.206	21903
879.333	21926
879.461	21789
879.588	21812
879.715	21869
879.842	22021
879.97	21797
880.097	21530
880.224	21599
880.351	21538
880.478	21534
880.605	21477
880.732	21538
880.859	21751
880.986	21637
881.112	21564
881.239	21496
881.366	21264
881.493	21272
881.619	21154
881.746	21089
881.872	20998
881.999	21123
882.125	21032
882.252	21093
882.378	21112
882.505	21233
882.631	21009
882.757	20872
882.883	20956
883.01	20895
883.136	20800
883.262	20746
883.388	20689
883.514	20781
883.64	20792
883.766	20781
883.892	20625
884.018	20689
884.143	20731
884.269	20872
884.395	20632
884.52	20442
884.646	20465
884.772	20362
884.897	20294
885.023	20415
885.148	20590
885.274	20579
885.399	20613
885.524	20465
885.65	20545
885.775	20434
885.9	20434
886.025	20606
886.15	20571
886.275	20438
886.4	20408
886.525	20457
886.65	20393
886.775	20473
886.9	20492
887.025	20514
887.149	20370
887.274	20404
887.399	20301
887.523	20256
887.648	20218
887.773	20157
887.897	20195
888.021	20248
888.146	20248
888.27	20336
888.395	20301
888.519	20343
888.643	20237
888.767	20214
888.891	20202
889.015	20084
889.139	20001
889.263	20077
889.387	20161
889.511	20267
889.635	20103
889.759	20069
889.883	19967
890.006	20024
890.13	20012
890.254	20008
890.377	19970
890.501	19757
890.624	19727
890.748	19898
890.871	19772
890.995	19518
891.118	19586
891.241	19597
891.364	19559
891.488	19864
891.611	19674
891.734	19544
891.857	19712
891.98	19666
892.103	19765
892.226	19658
892.349	19651
892.471	19320
892.594	19525
892.717	19575
892.839	19483
892.962	19476
893.085	19620
893.207	19540
893.33	19506
893.452	19487
893.575	19685
893.697	19620
893.819	19639
893.941	19727
894.064	19685
894.186	19312
894.308	19411
894.43	19693
894.552	19696
894.674	19704
894.796	19324
894.918	19677
895.04	19544
895.161	19700
895.283	19548
895.405	19468
895.526	19518
895.648	19487
895.769	19628
895.891	19613
896.012	19738
896.134	19571
896.255	19575
896.376	19525
896.498	19453
896.619	19647
896.74	19552
896.861	19529
896.982	19963
897.103	20005
897.224	19746
897.345	19784
897.466	19704
897.587	19799
897.708	19936
897.828	19776
897.949	19632
898.07	19685
898.19	19700
898.311	19906
898.431	19696
898.552	19814
898.672	19898
898.792	19833
898.913	19837
899.033	19742
899.153	19655
899.273	19510
899.393	19521
899.513	19582
899.633	19533
899.753	19571
899.873	19445
899.993	19590
900.113	19495
900.232	19548
900.352	19415
900.472	19419
900.591	19335
900.711	19308
900.83	19263
900.95	19263
901.069	19293
901.189	19240
901.308	18977
901.427	18993
901.546	19000
901.665	18954
901.784	18989
901.904	18741
902.023	18707
902.141	18509
902.26	18559
902.379	18448
902.498	18388
902.617	18471
902.735	18483
902.854	18437
902.973	18376
903.091	18098
903.21	18030
903.328	18106
903.446	18041
903.565	17954
903.683	17939
903.801	17798
903.919	17893
904.038	17866
904.156	17767
904.274	17840
904.392	17623
904.51	17661
904.627	17699
904.745	17733
904.863	17760
904.981	17463
905.098	17433
905.216	17334
905.334	17334
905.451	17486
905.569	17307
905.686	17433
905.803	17299
905.921	17090
906.038	17269
906.155	17254
906.272	17143
906.389	17105
906.506	16930
906.623	16987
906.74	16949
906.857	16820
906.974	16683
907.091	16984
907.208	17102
907.324	17029
907.441	16831
907.557	16713
907.674	16607
907.79	16634
907.907	16634
908.023	16725
908.139	16668
908.256	16607
908.372	16550
908.488	16538
908.604	16436
908.72	16455
908.836	16413
908.952	16211
909.068	16322
909.184	16523
909.3	16413
909.415	16402
909.531	16417
909.647	16135
909.762	16143
909.878	16051
909.993	16150
910.108	16101
910.224	16017
910.339	16006
910.454	15987
910.57	15876
910.685	15850
910.8	16025
910.915	16036
911.03	15888
911.145	15724
911.259	15648
911.374	15690
911.489	15606
911.604	15561
911.718	15439
911.833	15469
911.947	15378
912.062	15405
912.176	15584
912.291	15542
912.405	15599
912.519	15743
912.633	15705
912.748	15481
912.862	15447
912.976	15283
913.09	15287
913.204	15230
913.318	15252
913.431	15374
913.545	15336
913.659	15428
913.772	15218
913.886	15195
914	15142
914.113	15089
914.226	15256
914.34	15085
914.453	15017
914.566	15043
914.68	14994
914.793	14925
914.906	14792
915.019	14849
915.132	14568
915.245	14686
915.358	14735
915.47	14754
915.583	14773
915.696	14686
915.809	14838
915.921	14842
916.034	14693
916.146	14689
916.259	14598
916.371	14708
916.483	14697
916.595	14469
916.708	14579
916.82	14537
916.932	14434
917.044	14480
917.156	14499
917.268	14336
917.38	14457
917.491	14389
917.603	14381
917.715	14362
917.826	14412
917.938	14301
918.049	14164
918.161	14347
918.272	14507
918.384	14408
918.495	14286
918.606	14161
918.717	14062
918.828	14161
918.939	14168
919.05	14088
919.161	14138
919.272	13970
919.383	13967
919.494	14130
919.604	14347
919.715	14107
919.826	13963
919.936	14077
920.047	14081
920.157	14187
920.267	14351
920.378	14191
920.488	14035
920.598	14176
920.708	14313
920.818	14244
920.928	14256
921.038	14282
921.148	14374
921.258	14107
921.368	14016
921.477	13955
921.587	13807
921.697	13723
921.806	13830
921.916	13700
922.025	13559
922.134	13502
922.244	13449
922.353	13476
922.462	13362
922.571	13388
922.68	13213
922.789	13107
922.898	13217
923.007	13228
923.116	13145
923.224	13099
923.333	13084
923.442	13012
923.55	12954
923.659	12977
923.767	13061
923.876	12905
923.984	12935
924.092	12909
924.201	12935
924.309	12977
924.417	12852
924.525	12837
924.633	12901
924.741	13814
924.849	12612
924.956	12711
925.064	12612
925.172	12555
925.279	12532
925.387	12555
925.494	12574
925.602	12692
925.709	12608
925.816	12433
925.924	12544
926.031	12597
926.138	12582
926.245	12616
926.352	12414
926.459	12570
926.566	12601
926.673	12437
926.779	12376
926.886	12311
926.993	12228
927.099	12243
927.206	12121
927.312	12136
927.419	12209
927.525	12152
927.631	12239
927.737	12057
927.843	12034
927.95	11973
928.056	11950
928.162	12053
928.267	12068
928.373	12654
928.479	12072
928.585	11798
928.69	11958
928.796	11961
928.901	11859
929.007	11714
929.112	11832
929.218	11798
929.323	11783
929.428	11836
929.533	11870
929.638	11688
929.743	11726
929.848	11695
929.953	11638
930.058	11581
930.163	11372
930.267	11429
930.372	11497
930.477	11326
930.581	11623
930.685	11463
930.79	11277
930.894	11341
930.998	11254
931.103	11410
931.207	11048
931.311	10923
931.415	10930
931.519	10729
931.623	10698
