Data from test_V78500241_481.txt Node
Date: Fri Mar 25 15:13:12 CST 2022
User: usil
Spectrometer: V785-0024
Trigger mode: 0
Integration Time (sec): 4.000000E-1
Scans to average: 1
Nonlinearity correction enabled: false
Boxcar width: 0
Storing dark spectrum: false
XAxis mode: Wavelengths
Number of Pixels in Spectrum: 1024
>>>>>Begin Spectral Data<<<<<
801.071	27622
801.214	27477
801.356	27313
801.499	27074
801.641	27032
801.783	27017
801.926	27146
802.068	27024
802.211	26921
802.353	26804
802.496	26651
802.638	26644
802.78	26800
802.923	26651
803.065	26446
803.208	26530
803.35	26552
803.492	26678
803.635	26788
803.777	26765
803.919	26788
804.061	27017
804.204	26792
804.346	26735
804.488	26777
804.63	26811
804.773	26640
804.915	26796
805.057	26910
805.199	26743
805.341	26918
805.483	26876
805.626	26880
805.768	26716
805.91	26899
806.052	26906
806.194	26971
806.336	27108
806.478	26887
806.62	26891
806.762	26986
806.904	27154
807.046	27370
807.188	27355
807.33	27370
807.472	27477
807.614	27370
807.756	27233
807.898	27100
808.04	27294
808.182	27039
808.324	27093
808.465	27146
808.607	27245
808.749	27412
808.891	27511
809.033	27816
809.174	27660
809.316	27466
809.458	27431
809.6	27397
809.741	27671
809.883	27587
810.025	27671
810.166	27743
810.308	27690
810.45	27766
810.591	27755
810.733	27473
810.875	27515
811.016	27370
811.158	27287
811.299	27641
811.441	27705
811.582	27599
811.724	27576
811.865	27534
812.007	27496
812.148	27454
812.29	27603
812.431	27694
812.573	27949
812.714	27907
812.855	28029
812.997	28078
813.138	28261
813.279	28131
813.421	28128
813.562	27975
813.703	27739
813.845	27732
813.986	27458
814.127	27203
814.268	27142
814.41	27131
814.551	27131
814.692	27165
814.833	27093
814.974	27062
815.115	27146
815.256	27009
815.397	27058
815.539	27001
815.68	26975
815.821	26925
815.962	27005
816.103	26929
816.244	26739
816.385	26769
816.526	26712
816.666	26606
816.807	26343
816.948	26590
817.089	26480
817.23	26400
817.371	26404
817.512	26484
817.653	26560
817.793	26431
817.934	26370
818.075	26469
818.216	26503
818.356	26385
818.497	26499
818.638	26214
818.778	26351
818.919	26309
819.06	26381
819.2	26347
819.341	26453
819.481	26575
819.622	26705
819.762	26902
819.903	26678
820.043	26617
820.184	26541
820.324	26655
820.465	26743
820.605	26518
820.746	26530
820.886	26343
821.026	26465
821.167	26549
821.307	26518
821.447	26552
821.588	26366
821.728	26324
821.868	26096
822.008	25974
822.149	26092
822.289	25947
822.429	25689
822.569	25628
822.709	25556
822.849	25403
822.99	25464
823.13	25525
823.27	25384
823.41	25301
823.55	25164
823.69	25377
823.83	25392
823.97	25312
824.11	25069
824.25	24992
824.389	25164
824.529	25122
824.669	25187
824.809	25202
824.949	25110
825.089	25274
825.228	25080
825.368	25129
825.508	25012
825.648	25076
825.787	25012
825.927	25103
826.067	24848
826.206	25110
826.346	24909
826.485	25061
826.625	24935
826.765	25095
826.904	24954
827.044	24779
827.183	24703
827.323	24639
827.462	24741
827.601	24589
827.741	24783
827.88	24593
828.02	24414
828.159	24700
828.298	24688
828.437	24703
828.577	24582
828.716	24833
828.855	24517
828.994	24323
829.134	24528
829.273	24513
829.412	24346
829.551	24289
829.69	24426
829.829	24350
829.968	24620
830.107	24479
830.246	24429
830.385	24410
830.524	24350
830.663	24148
830.802	24152
830.941	23954
831.08	23969
831.219	24110
831.357	24110
831.496	24327
831.635	23946
831.774	23973
831.913	23794
832.051	23680
832.19	23695
832.329	23870
832.467	23752
832.606	23566
832.744	23611
832.883	23657
833.022	23718
833.16	23687
833.299	23745
833.437	23771
833.576	23798
833.714	23638
833.852	23863
833.991	23714
834.129	23745
834.267	23847
834.406	23840
834.544	23809
834.682	23703
834.821	23756
834.959	23908
835.097	23691
835.235	23866
835.373	23752
835.511	23771
835.65	23691
835.788	23619
835.926	23535
836.064	23493
836.202	23421
836.34	23665
836.478	23653
836.615	23592
836.753	23486
836.891	23630
837.029	23589
837.167	23547
837.305	23478
837.443	23368
837.58	23391
837.718	23478
837.856	23463
837.993	23387
838.131	23349
838.269	23395
838.406	23349
838.544	23189
838.681	23094
838.819	23056
838.956	22873
839.094	23018
839.231	22911
839.369	23071
839.506	23364
839.643	23288
839.781	22957
839.918	22976
840.055	22972
840.193	22843
840.33	23018
840.467	23022
840.604	22885
840.742	23197
840.879	22755
841.016	22763
841.153	22752
841.29	22953
841.427	22869
841.564	22805
841.701	22801
841.838	22793
841.975	22915
842.112	22729
842.249	22675
842.385	22622
842.522	22938
842.659	22698
842.796	22645
842.933	22641
843.069	22561
843.206	22451
843.343	22592
843.479	22546
843.616	22656
843.752	22348
843.889	22424
844.025	22447
844.162	22325
844.298	22489
844.435	22386
844.571	22223
844.708	22390
844.844	22432
844.98	22565
845.117	22523
845.253	22337
845.389	22249
845.525	22226
845.661	22287
845.798	22093
845.934	22135
846.07	22051
846.206	22143
846.342	22162
846.478	22006
846.614	21884
846.75	21937
846.886	21850
847.022	21899
847.158	21892
847.294	21930
847.429	21717
847.565	21876
847.701	22090
847.837	21561
847.972	21545
848.108	21736
848.244	21629
848.379	21515
848.515	21355
848.65	21370
848.786	21477
848.921	21583
849.057	21656
849.192	21504
849.328	21492
849.463	21416
849.598	21359
849.734	21313
849.869	21279
850.004	21173
850.14	21222
850.275	21154
850.41	21096
850.545	21142
850.68	21161
850.815	21161
850.95	21260
851.085	21382
851.22	21249
851.355	21112
851.49	21165
851.625	21138
851.76	21207
851.895	21138
852.03	21104
852.165	21131
852.299	21340
852.434	21264
852.569	21203
852.703	21176
852.838	21230
852.973	21332
853.107	21199
853.242	21176
853.376	21150
853.511	20921
853.645	20986
853.78	21123
853.914	21001
854.048	20994
854.183	20994
854.317	21100
854.451	21321
854.585	20986
854.72	21127
854.854	21154
854.988	20986
855.122	21039
855.256	20857
855.39	21074
855.524	21093
855.658	21032
855.792	20902
855.926	21024
856.06	21066
856.194	21047
856.327	21005
856.461	20952
856.595	21039
856.729	20918
856.862	21207
856.996	20994
857.13	21123
857.263	21207
857.397	21169
857.53	21020
857.664	21055
857.797	21135
857.931	21089
858.064	21089
858.197	21165
858.331	20887
858.464	20899
858.597	20906
858.731	20910
858.864	20967
858.997	21001
859.13	20975
859.263	21028
859.396	21104
859.529	20948
859.662	20956
859.795	20982
859.928	20982
860.061	21214
860.194	21150
860.327	21024
860.46	21005
860.592	21138
860.725	21199
860.858	21085
860.99	21058
861.123	20963
861.256	20933
861.388	21024
861.521	21778
861.653	20880
861.786	20811
861.918	20902
862.05	20921
862.183	20998
862.315	20918
862.447	21058
862.58	20937
862.712	20754
862.844	20716
862.976	20815
863.108	20838
863.24	21218
863.372	20667
863.504	20609
863.636	20590
863.768	20746
863.9	20754
864.032	20663
864.164	20640
864.296	20686
864.428	20876
864.559	20712
864.691	20773
864.823	20746
864.954	20712
865.086	20754
865.217	20609
865.349	20469
865.48	20648
865.612	20693
865.743	20857
865.875	20587
866.006	20636
866.137	20579
866.269	20560
866.4	20655
866.531	20636
866.662	20621
866.793	20560
866.924	20640
867.055	20530
867.186	20568
867.317	20617
867.448	20545
867.579	20434
867.71	20526
867.841	20499
867.972	20632
868.103	20545
868.233	20499
868.364	20530
868.495	20674
868.625	20788
868.756	20891
868.886	20807
869.017	20807
869.147	20944
869.278	20941
869.408	20921
869.539	20887
869.669	20864
869.799	20914
869.929	20872
870.06	20876
870.19	21074
870.32	21157
870.45	21112
870.58	21298
870.71	21291
870.84	21370
870.97	21108
871.1	21176
871.23	21370
871.36	21500
871.489	21287
871.619	21393
871.749	21382
871.879	21435
872.008	21435
872.138	21268
872.267	21431
872.397	21294
872.526	21233
872.656	21192
872.785	21157
872.915	21336
873.044	21424
873.173	21393
873.303	21481
873.432	21382
873.561	21443
873.69	21488
873.819	21355
873.948	21412
874.077	21359
874.206	21443
874.335	21408
874.464	21526
874.593	21679
874.722	21728
874.851	21633
874.979	21603
875.108	21545
875.237	21583
875.365	21545
875.494	21603
875.623	21667
875.751	21641
875.88	21694
876.008	21812
876.136	21831
876.265	21869
876.393	22188
876.521	22082
876.65	22246
876.778	22032
876.906	22010
877.034	21861
877.162	22093
877.29	21922
877.418	22051
877.546	22044
877.674	21911
877.802	22063
877.93	22082
878.058	21994
878.185	21869
878.313	21907
878.441	21979
878.568	21774
878.696	21975
878.824	22013
878.951	22010
879.079	22143
879.206	22329
879.333	22143
879.461	22021
879.588	22131
879.715	22295
879.842	22367
879.97	21964
880.097	21876
880.224	21717
880.351	21812
880.478	21934
880.605	21793
880.732	21823
880.859	22040
880.986	21823
881.112	21945
881.239	21728
881.366	21603
881.493	21462
881.619	21298
881.746	21523
881.872	21420
881.999	21336
882.125	21321
882.252	21496
882.378	21507
882.505	21515
882.631	21135
882.757	21154
882.883	21146
883.01	21131
883.136	21058
883.262	20948
883.388	20960
883.514	21150
883.64	21169
883.766	21066
883.892	20975
884.018	20937
884.143	21085
884.269	21032
884.395	20864
884.52	20621
884.646	20788
884.772	20678
884.897	20651
885.023	20807
885.148	20853
885.274	20933
885.399	20811
885.524	20823
885.65	20823
885.775	20842
885.9	20781
886.025	20849
886.15	20788
886.275	20727
886.4	20663
886.525	20697
886.65	20720
886.775	20838
886.9	20800
887.025	20986
887.149	20689
887.274	20533
887.399	20522
887.523	20484
887.648	20454
887.773	20278
887.897	20613
888.021	20518
888.146	20575
888.27	20571
888.395	20609
888.519	20724
888.643	20438
888.767	20613
888.891	20419
889.015	20442
889.139	20499
889.263	20271
889.387	20427
889.511	20575
889.635	20514
889.759	20210
889.883	20313
890.006	20336
890.13	20366
890.254	20313
890.377	20199
890.501	20138
890.624	19940
890.748	20229
890.871	19993
890.995	19940
891.118	19947
891.241	19849
891.364	19807
891.488	20039
891.611	20001
891.734	19925
891.857	19974
891.98	19936
892.103	19974
892.226	19883
892.349	19940
892.471	19719
892.594	19860
892.717	19803
892.839	19757
892.962	19769
893.085	19932
893.207	19769
893.33	19620
893.452	19662
893.575	19913
893.697	19845
893.819	19928
893.941	19997
894.064	20039
894.186	19772
894.308	19738
894.43	19780
894.552	19826
894.674	19864
894.796	19696
894.918	19917
895.04	19746
895.161	19833
895.283	19849
895.405	19677
895.526	19761
895.648	19784
895.769	19868
895.891	19746
896.012	19826
896.134	19925
896.255	19799
896.376	19731
896.498	19788
896.619	19822
896.74	19925
896.861	19902
896.982	20187
897.103	20271
897.224	20115
897.345	20062
897.466	19986
897.587	20100
897.708	20172
897.828	20092
897.949	19970
898.07	19959
898.19	19909
898.311	20149
898.431	19989
898.552	20031
898.672	20115
898.792	20107
898.913	19989
899.033	19940
899.153	19833
899.273	19761
899.393	19750
899.513	19852
899.633	19791
899.753	19769
899.873	19719
899.993	19784
900.113	19708
900.232	19753
900.352	19708
900.472	19616
900.591	19499
900.711	19635
900.83	19556
900.95	19708
901.069	19677
901.189	19544
901.308	19308
901.427	19027
901.546	19270
901.665	19179
901.784	19137
901.904	18863
902.023	18916
902.141	18783
902.26	18779
902.379	18795
902.498	18700
902.617	18555
902.735	18795
902.854	18669
902.973	18585
903.091	18384
903.21	18292
903.328	18262
903.446	18304
903.565	18148
903.683	18228
903.801	18072
903.919	18098
904.038	18045
904.156	17874
904.274	17999
904.392	18034
904.51	17859
904.627	17878
904.745	17893
904.863	18015
904.981	17718
905.098	17577
905.216	17570
905.334	17630
905.451	17535
905.569	17600
905.686	17562
905.803	17573
905.921	17436
906.038	17497
906.155	17402
906.272	17258
906.389	17265
906.506	17132
906.623	17048
906.74	17132
906.857	16965
906.974	17056
907.091	17200
907.208	17258
907.324	17064
907.441	17041
907.557	16904
907.674	16824
907.79	16809
907.907	16790
908.023	16862
908.139	16793
908.256	16869
908.372	16763
908.488	16721
908.604	16584
908.72	16615
908.836	16516
908.952	16538
909.068	16752
909.184	16599
909.3	16596
909.415	16740
909.531	16542
909.647	16440
909.762	16242
909.878	16246
909.993	16352
910.108	16150
910.224	16207
910.339	16230
910.454	16162
910.57	16063
910.685	15987
910.8	16306
910.915	16196
911.03	16051
911.145	15842
911.259	15911
911.374	15907
911.489	15800
911.604	15797
911.718	15720
911.833	15690
911.947	15568
912.062	15500
912.176	15580
912.291	15538
912.405	15637
912.519	15793
912.633	15785
912.748	15591
912.862	15633
912.976	15530
913.09	15287
913.204	15386
913.318	15450
913.431	15534
913.545	15420
913.659	15564
913.772	15397
913.886	15287
914	15222
914.113	15249
914.226	15431
914.34	15176
914.453	15116
914.566	15291
914.68	15055
914.793	15112
914.906	14937
915.019	14952
915.132	14857
915.245	14834
915.358	14864
915.47	14830
915.583	14826
915.696	14921
915.809	15028
915.921	14963
916.034	14883
916.146	14712
916.259	14689
916.371	14731
916.483	14777
916.595	14746
916.708	14727
916.82	14689
916.932	14617
917.044	14716
917.156	14606
917.268	14594
917.38	14556
917.491	14454
917.603	14469
917.715	14526
917.826	14583
917.938	14408
918.049	14492
918.161	14507
918.272	14644
918.384	14621
918.495	14427
918.606	14358
918.717	14218
918.828	14366
918.939	14434
919.05	14248
919.161	14256
919.272	14027
919.383	14202
919.494	14317
919.604	14492
919.715	14259
919.826	14221
919.936	14214
920.047	14298
920.157	14229
920.267	14423
920.378	14282
920.488	14199
920.598	14476
920.708	14518
920.818	14469
920.928	14389
921.038	14511
921.148	14488
921.258	14259
921.368	14096
921.477	14020
921.587	13940
921.697	13852
921.806	13959
921.916	13944
922.025	13791
922.134	13575
922.244	13578
922.353	13632
922.462	13582
922.571	13491
922.68	13293
922.789	13274
922.898	13263
923.007	13225
923.116	13377
923.224	13354
923.333	13278
923.442	13164
923.55	13187
923.659	13141
923.767	13190
923.876	13110
923.984	13137
924.092	13023
924.201	13053
924.309	13080
924.417	13061
924.525	12958
924.633	12958
924.741	13959
924.849	12738
924.956	12867
925.064	12814
925.172	12700
925.279	12806
925.387	12722
925.494	12703
925.602	12871
925.709	12757
925.816	12544
925.924	12662
926.031	12768
926.138	12658
926.245	12681
926.352	12563
926.459	12593
926.566	12741
926.673	12585
926.779	12540
926.886	12502
926.993	12388
927.099	12342
927.206	12270
927.312	12254
927.419	12384
927.525	12342
927.631	12308
927.737	12209
927.843	12163
927.95	11988
928.056	12171
928.162	12205
928.267	12106
928.373	12593
928.479	12178
928.585	11996
928.69	12026
928.796	12114
928.901	12030
929.007	11927
929.112	12045
929.218	11927
929.323	11874
929.428	11843
929.533	11973
929.638	11764
929.743	11767
929.848	11809
929.953	11775
930.058	11596
930.163	11520
930.267	11581
930.372	11627
930.477	11471
930.581	11741
930.685	11623
930.79	11459
930.894	11535
930.998	11448
931.103	11512
931.207	11220
931.311	11204
931.415	11079
931.519	10771
931.623	10877
