Data from test_V78500241_763.txt Node
Date: Fri Mar 25 15:15:10 CST 2022
User: usil
Spectrometer: V785-0024
Trigger mode: 0
Integration Time (sec): 4.000000E-1
Scans to average: 1
Nonlinearity correction enabled: false
Boxcar width: 0
Storing dark spectrum: false
XAxis mode: Wavelengths
Number of Pixels in Spectrum: 1024
>>>>>Begin Spectral Data<<<<<
801.071	27823
801.214	27838
801.356	27583
801.499	27576
801.641	27644
801.783	27370
801.926	27583
802.068	27500
802.211	27408
802.353	27427
802.496	27150
802.638	27184
802.78	27161
802.923	27093
803.065	27116
803.208	27058
803.35	27188
803.492	27310
803.635	27233
803.777	27245
803.919	27431
804.061	27587
804.204	27340
804.346	27100
804.488	27233
804.63	27310
804.773	27298
804.915	27329
805.057	27363
805.199	27283
805.341	27389
805.483	27496
805.626	27481
805.768	27184
805.91	27370
806.052	27526
806.194	27439
806.336	27580
806.478	27515
806.62	27408
806.762	27500
806.904	27755
807.046	27930
807.188	27774
807.33	27827
807.472	27861
807.614	27835
807.756	27937
807.898	27770
808.04	27747
808.182	27686
808.324	27823
808.465	27778
808.607	27968
808.749	28109
808.891	28101
809.033	28226
809.174	28181
809.316	28124
809.458	28067
809.6	28120
809.741	28154
809.883	28242
810.025	28360
810.166	28417
810.308	28413
810.45	28443
810.591	28322
810.733	28173
810.875	28101
811.016	28048
811.158	27953
811.299	28135
811.441	28272
811.582	28325
811.724	27987
811.865	28120
812.007	27960
812.148	27907
812.29	28162
812.431	28379
812.573	28485
812.714	28584
812.855	28717
812.997	28763
813.138	28847
813.279	28816
813.421	28809
813.562	28611
813.703	28569
813.845	28485
813.986	28139
814.127	27998
814.268	27781
814.41	27835
814.551	27690
814.692	28013
814.833	27732
814.974	27804
815.115	27698
815.256	27686
815.397	27778
815.539	27686
815.68	27667
815.821	27469
815.962	27671
816.103	27515
816.244	27351
816.385	27325
816.526	27424
816.666	27150
816.807	27066
816.948	27135
817.089	27340
817.23	27131
817.371	27123
817.512	27199
817.653	27047
817.793	27066
817.934	27119
818.075	27188
818.216	27131
818.356	27074
818.497	27047
818.638	26754
818.778	26807
818.919	26823
819.06	26800
819.2	27074
819.341	27119
819.481	27146
819.622	27169
819.762	27405
819.903	27302
820.043	27260
820.184	27192
820.324	27260
820.465	27283
820.605	27287
820.746	27108
820.886	26990
821.026	27256
821.167	27020
821.307	27275
821.447	27165
821.588	27093
821.728	26785
821.868	26663
822.008	26663
822.149	26492
822.289	26473
822.429	26427
822.569	26305
822.709	26278
822.849	26172
822.99	26187
823.13	25955
823.27	25928
823.41	25894
823.55	25928
823.69	25841
823.83	25818
823.97	25788
824.11	25681
824.25	25624
824.389	25757
824.529	25704
824.669	25845
824.809	25845
824.949	25727
825.089	25906
825.228	25826
825.368	25628
825.508	25635
825.648	25537
825.787	25666
825.927	25491
826.067	25567
826.206	25609
826.346	25628
826.485	25811
826.625	25666
826.765	25635
826.904	25582
827.044	25381
827.183	25301
827.323	25297
827.462	25240
827.601	25247
827.741	25346
827.88	25434
828.02	25209
828.159	25278
828.298	25297
828.437	25483
828.577	25225
828.716	25422
828.855	25297
828.994	25141
829.134	25114
829.273	25114
829.412	25053
829.551	25015
829.69	24920
829.829	25034
829.968	25076
830.107	25099
830.246	24901
830.385	25065
830.524	24973
830.663	24776
830.802	24825
830.941	24582
831.08	24604
831.219	24570
831.357	24757
831.496	24821
831.635	24604
831.774	24585
831.913	24547
832.051	24517
832.19	24372
832.329	24448
832.467	24315
832.606	24220
832.744	24315
832.883	24289
833.022	24289
833.16	24273
833.299	24319
833.437	24308
833.576	24353
833.714	24403
833.852	24380
833.991	24433
834.129	24330
834.267	24422
834.406	24429
834.544	24452
834.682	24292
834.821	24330
834.959	24498
835.097	24353
835.235	24399
835.373	24372
835.511	24167
835.65	24201
835.788	24315
835.926	24064
836.064	23984
836.202	24030
836.34	24152
836.478	24125
836.615	24201
836.753	24076
836.891	24205
837.029	24110
837.167	24095
837.305	23996
837.443	24007
837.58	23984
837.718	24171
837.856	23961
837.993	23874
838.131	24079
838.269	23908
838.406	23977
838.544	23859
838.681	23657
838.819	23676
838.956	23383
839.094	23440
839.231	23455
839.369	23589
839.506	23817
839.643	23684
839.781	23577
839.918	23440
840.055	23497
840.193	23417
840.33	23334
840.467	23345
840.604	23463
840.742	23665
840.879	23315
841.016	23250
841.153	23341
841.29	23474
841.427	23474
841.564	23383
841.701	23402
841.838	23349
841.975	23246
842.112	23250
842.249	23246
842.385	23170
842.522	23345
842.659	23204
842.796	23124
842.933	23071
843.069	23159
843.206	23128
843.343	23128
843.479	23200
843.616	23140
843.752	23033
843.889	22968
844.025	23014
844.162	22984
844.298	23067
844.435	22980
844.571	22889
844.708	22938
844.844	23143
844.98	23067
845.117	23033
845.253	22927
845.389	22748
845.525	22839
845.661	22835
845.798	22519
845.934	22656
846.07	22561
846.206	22622
846.342	22793
846.478	22615
846.614	22451
846.75	22371
846.886	22402
847.022	22424
847.158	22390
847.294	22432
847.429	22421
847.565	22516
847.701	22573
847.837	22177
847.972	22162
848.108	22253
848.244	22185
848.379	22040
848.515	21960
848.65	22017
848.786	22139
848.921	22021
849.057	22021
849.192	22055
849.328	22109
849.463	22013
849.598	22013
849.734	21789
849.869	21690
850.004	21652
850.14	21857
850.275	21698
850.41	21724
850.545	21667
850.68	21709
850.815	21778
850.95	21739
851.085	21812
851.22	21808
851.355	21781
851.49	21770
851.625	21694
851.76	21625
851.895	21675
852.03	21652
852.165	21732
852.299	21778
852.434	21808
852.569	21804
852.703	21728
852.838	21846
852.973	21846
853.107	21842
853.242	21648
853.376	21709
853.511	21523
853.645	21458
853.78	21667
853.914	21603
854.048	21466
854.183	21469
854.317	21663
854.451	21724
854.585	21561
854.72	21542
854.854	21538
854.988	21500
855.122	21492
855.256	21473
855.39	21485
855.524	21618
855.658	21572
855.792	21671
855.926	21698
856.06	21663
856.194	21576
856.327	21488
856.461	21519
856.595	21485
856.729	21553
856.862	21618
856.996	21625
857.13	21663
857.263	21694
857.397	21686
857.53	21515
857.664	21583
857.797	21553
857.931	21625
858.064	21542
858.197	21637
858.331	21538
858.464	21633
858.597	21401
858.731	21507
858.864	21408
858.997	21485
859.13	21591
859.263	21477
859.396	21618
859.529	21591
859.662	21462
859.795	21458
859.928	21572
860.061	21762
860.194	21739
860.327	21614
860.46	21660
860.592	21842
860.725	21751
860.858	21557
860.99	21564
861.123	21488
861.256	21568
861.388	21462
861.521	22219
861.653	21447
861.786	21378
861.918	21348
862.05	21439
862.183	21473
862.315	21435
862.447	21557
862.58	21534
862.712	21226
862.844	21241
862.976	21222
863.108	21279
863.24	21629
863.372	21188
863.504	21119
863.636	21188
863.768	21317
863.9	21260
864.032	21173
864.164	21169
864.296	21283
864.428	21389
864.559	21268
864.691	21325
864.823	21214
864.954	21230
865.086	21275
865.217	21195
865.349	21100
865.48	21112
865.612	21127
865.743	21393
865.875	21199
866.006	21028
866.137	21085
866.269	21176
866.4	21127
866.531	21123
866.662	21009
866.793	21123
866.924	21123
867.055	21100
867.186	21127
867.317	21131
867.448	20899
867.579	21154
867.71	21001
867.841	21058
867.972	21123
868.103	20941
868.233	21074
868.364	21001
868.495	21192
868.625	21329
868.756	21447
868.886	21211
869.017	21317
869.147	21454
869.278	21397
869.408	21329
869.539	21264
869.669	21431
869.799	21500
869.929	21393
870.06	21504
870.19	21622
870.32	21629
870.45	21736
870.58	21770
870.71	21774
870.84	21800
870.97	21690
871.1	21766
871.23	21941
871.36	21937
871.489	21880
871.619	21884
871.749	21937
871.879	21934
872.008	22048
872.138	21842
872.267	22002
872.397	21648
872.526	21739
872.656	21720
872.785	21724
872.915	21960
873.044	22063
873.173	21930
873.303	21991
873.432	21915
873.561	21975
873.69	21975
873.819	21956
873.948	22067
874.077	22010
874.206	21865
874.335	21956
874.464	22063
874.593	22082
874.722	22166
874.851	22185
874.979	22295
875.108	22181
875.237	22086
875.365	22017
875.494	22082
875.623	22318
875.751	22048
875.88	22207
876.008	22322
876.136	22348
876.265	22672
876.393	22592
876.521	22599
876.65	22729
876.778	22584
876.906	22371
877.034	22580
877.162	22424
877.29	22493
877.418	22512
877.546	22508
877.674	22466
877.802	22497
877.93	22508
878.058	22386
878.185	22459
878.313	22379
878.441	22569
878.568	22246
878.696	22398
878.824	22519
878.951	22569
879.079	22626
879.206	22683
879.333	22596
879.461	22493
879.588	22634
879.715	22721
879.842	22721
879.97	22656
880.097	22421
880.224	22276
880.351	22272
880.478	22325
880.605	22150
880.732	22299
880.859	22481
880.986	22371
881.112	22432
881.239	22177
881.366	22154
881.493	22021
881.619	21987
881.746	21850
881.872	21926
881.999	21846
882.125	21785
882.252	21926
882.378	21838
882.505	21972
882.631	21766
882.757	21652
882.883	21720
883.01	21534
883.136	21679
883.262	21458
883.388	21462
883.514	21606
883.64	21591
883.766	21530
883.892	21370
884.018	21367
884.143	21523
884.269	21686
884.395	21313
884.52	21176
884.646	21294
884.772	21256
884.897	21169
885.023	21176
885.148	21302
885.274	21351
885.399	21310
885.524	21085
885.65	21233
885.775	21306
885.9	21169
886.025	21222
886.15	21275
886.275	21131
886.4	21100
886.525	21173
886.65	21199
886.775	21028
886.9	21226
887.025	21458
887.149	21226
887.274	21096
887.399	21024
887.523	21017
887.648	20990
887.773	20960
887.897	21096
888.021	20963
888.146	21009
888.27	21074
888.395	21017
888.519	21017
888.643	20937
888.767	21066
888.891	20880
889.015	20785
889.139	21017
889.263	20708
889.387	20883
889.511	21013
889.635	20864
889.759	20743
889.883	20777
890.006	20750
890.13	20830
890.254	20785
890.377	20564
890.501	20621
890.624	20549
890.748	20632
890.871	20442
890.995	20362
891.118	20328
891.241	20294
891.364	20389
891.488	20526
891.611	20404
891.734	20366
891.857	20438
891.98	20347
892.103	20461
892.226	20351
892.349	20415
892.471	20164
892.594	20275
892.717	20271
892.839	20248
892.962	20355
893.085	20180
893.207	20298
893.33	20225
893.452	20180
893.575	20278
893.697	20221
893.819	20438
893.941	20328
894.064	20465
894.186	20210
894.308	20164
894.43	20317
894.552	20324
894.674	20355
894.796	20195
894.918	20275
895.04	20164
895.161	20298
895.283	20282
895.405	20233
895.526	20275
895.648	20111
895.769	20225
895.891	20214
896.012	20374
896.134	20328
896.255	20393
896.376	20309
896.498	20366
896.619	20339
896.74	20278
896.861	20362
896.982	20575
897.103	20750
897.224	20541
897.345	20351
897.466	20400
897.587	20526
897.708	20609
897.828	20415
897.949	20415
898.07	20358
898.19	20370
898.311	20336
898.431	20404
898.552	20423
898.672	20556
898.792	20609
898.913	20495
899.033	20309
899.153	20233
899.273	20214
899.393	20275
899.513	20248
899.633	20115
899.753	20313
899.873	20248
899.993	20183
900.113	20164
900.232	20183
900.352	20081
900.472	20031
900.591	20016
900.711	19974
900.83	19936
900.95	20088
901.069	20126
901.189	19909
901.308	19647
901.427	19514
901.546	19582
901.665	19582
901.784	19681
901.904	19369
902.023	19460
902.141	19225
902.26	19080
902.379	19156
902.498	19027
902.617	19091
902.735	19244
902.854	19122
902.973	19080
903.091	18878
903.21	18821
903.328	18665
903.446	18654
903.565	18608
903.683	18631
903.801	18456
903.919	18441
904.038	18494
904.156	18369
904.274	18410
904.392	18334
904.51	18197
904.627	18205
904.745	18380
904.863	18437
904.981	18095
905.098	18015
905.216	17935
905.334	18079
905.451	18106
905.569	17942
905.686	18114
905.803	18068
905.921	17866
906.038	17901
906.155	17901
906.272	17764
906.389	17745
906.506	17585
906.623	17516
906.74	17615
906.857	17490
906.974	17455
907.091	17570
907.208	17611
907.324	17581
907.441	17379
907.557	17250
907.674	17258
907.79	17151
907.907	17128
908.023	17227
908.139	17220
908.256	17170
908.372	17109
908.488	17067
908.604	16987
908.72	16965
908.836	17067
908.952	16911
909.068	17014
909.184	17048
909.3	16942
909.415	16949
909.531	16938
909.647	16611
909.762	16672
909.878	16630
909.993	16774
910.108	16660
910.224	16691
910.339	16626
910.454	16580
910.57	16459
910.685	16344
910.8	16748
910.915	16649
911.03	16485
911.145	16325
911.259	16398
911.374	16371
911.489	16207
911.604	16116
911.718	16048
911.833	16040
911.947	15949
912.062	15903
912.176	16032
912.291	16063
912.405	15907
912.519	16219
912.633	16207
912.748	16078
912.862	15960
912.976	15857
913.09	15755
913.204	15880
913.318	15759
913.431	15880
913.545	15785
913.659	15930
913.772	15663
913.886	15663
914	15652
914.113	15705
914.226	15720
914.34	15675
914.453	15492
914.566	15545
914.68	15481
914.793	15485
914.906	15477
915.019	15245
915.132	15272
915.245	15154
915.358	15214
915.47	15302
915.583	15176
915.696	15260
915.809	15298
915.921	15275
916.034	15093
916.146	15135
916.259	15058
916.371	15252
916.483	15077
916.595	14979
916.708	15146
916.82	15085
916.932	14971
917.044	15017
917.156	14982
917.268	14979
917.38	14937
917.491	14819
917.603	14807
917.715	14887
917.826	14914
917.938	14804
918.049	14670
918.161	14796
918.272	15005
918.384	14895
918.495	14807
918.606	14727
918.717	14476
918.828	14712
918.939	14644
919.05	14507
919.161	14644
919.272	14381
919.383	14469
919.494	14678
919.604	14762
919.715	14583
919.826	14499
919.936	14518
920.047	14621
920.157	14610
920.267	14765
920.378	14587
920.488	14587
920.598	14777
920.708	14765
920.818	14705
920.928	14731
921.038	14948
921.148	14853
921.258	14610
921.368	14488
921.477	14370
921.587	14362
921.697	14107
921.806	14336
921.916	14210
922.025	14046
922.134	13944
922.244	13894
922.353	14046
922.462	13894
922.571	13852
922.68	13647
922.789	13639
922.898	13499
923.007	13518
923.116	13696
923.224	13571
923.333	13639
923.442	13472
923.55	13403
923.659	13480
923.767	13476
923.876	13335
923.984	13510
924.092	13346
924.201	13400
924.309	13297
924.417	13426
924.525	13324
924.633	13209
924.741	13955
924.849	13091
924.956	13187
925.064	13042
925.172	12939
925.279	13038
925.387	13084
925.494	13015
925.602	13110
925.709	13122
925.816	13050
925.924	12966
926.031	13050
926.138	12970
926.245	13015
926.352	12993
926.459	13027
926.566	13065
926.673	12890
926.779	12734
926.886	12715
926.993	12601
927.099	12547
927.206	12566
927.312	12559
927.419	12627
927.525	12563
927.631	12662
927.737	12494
927.843	12437
927.95	12372
928.056	12391
928.162	12376
928.267	12479
928.373	13114
928.479	12452
928.585	12357
928.69	12277
928.796	12403
928.901	12323
929.007	12015
929.112	12209
929.218	12277
929.323	12129
929.428	12140
929.533	12258
929.638	11996
929.743	12079
929.848	12205
929.953	12060
930.058	11969
930.163	11843
930.267	11847
930.372	11935
930.477	11748
930.581	12007
930.685	11897
930.79	11745
930.894	11737
930.998	11630
931.103	11832
931.207	11417
931.311	11368
931.415	11429
931.519	11117
931.623	11143
