Data from test_V78500241_2332.txt Node
Date: Fri Mar 25 15:26:05 CST 2022
User: usil
Spectrometer: V785-0024
Trigger mode: 0
Integration Time (sec): 4.000000E-1
Scans to average: 1
Nonlinearity correction enabled: false
Boxcar width: 0
Storing dark spectrum: false
XAxis mode: Wavelengths
Number of Pixels in Spectrum: 1024
>>>>>Begin Spectral Data<<<<<
801.071	27443
801.214	27386
801.356	27146
801.499	27093
801.641	26933
801.783	26906
801.926	26906
802.068	26933
802.211	26944
802.353	26853
802.496	26530
802.638	26583
802.78	26590
802.923	26651
803.065	26434
803.208	26423
803.35	26575
803.492	26663
803.635	26651
803.777	26648
803.919	26769
804.061	26979
804.204	26830
804.346	26754
804.488	26621
804.63	26762
804.773	26750
804.915	26746
805.057	26853
805.199	26651
805.341	26785
805.483	27020
805.626	26758
805.768	26640
805.91	26925
806.052	26804
806.194	26861
806.336	26838
806.478	26800
806.62	26906
806.762	26910
806.904	27127
807.046	27283
807.188	27283
807.33	27344
807.472	27336
807.614	27336
807.756	27298
807.898	27055
808.04	27157
808.182	26990
808.324	27157
808.465	27275
808.607	27233
808.749	27481
808.891	27576
809.033	27561
809.174	27557
809.316	27351
809.458	27393
809.6	27416
809.741	27515
809.883	27561
810.025	27785
810.166	27804
810.308	27709
810.45	27743
810.591	27583
810.733	27504
810.875	27348
811.016	27268
811.158	27176
811.299	27427
811.441	27553
811.582	27587
811.724	27557
811.865	27420
812.007	27397
812.148	27344
812.29	27408
812.431	27603
812.573	27713
812.714	27857
812.855	27922
812.997	28150
813.138	28131
813.279	27968
813.421	27983
813.562	27937
813.703	27686
813.845	27641
813.986	27481
814.127	27180
814.268	27184
814.41	27154
814.551	27055
814.692	27055
814.833	27024
814.974	26960
815.115	27058
815.256	26933
815.397	26925
815.539	27112
815.68	26956
815.821	26781
815.962	27009
816.103	26838
816.244	26845
816.385	26621
816.526	26670
816.666	26499
816.807	26461
816.948	26560
817.089	26518
817.23	26423
817.371	26328
817.512	26351
817.653	26267
817.793	26393
817.934	26328
818.075	26476
818.216	26381
818.356	26305
818.497	26221
818.638	26008
818.778	26027
818.919	26122
819.06	26115
819.2	26259
819.341	26313
819.481	26358
819.622	26590
819.762	26750
819.903	26442
820.043	26473
820.184	26442
820.324	26453
820.465	26579
820.605	26499
820.746	26549
820.886	26271
821.026	26503
821.167	26362
821.307	26434
821.447	26214
821.588	26317
821.728	26199
821.868	26046
822.008	26005
822.149	25902
822.289	25746
822.429	25658
822.569	25491
822.709	25518
822.849	25354
822.99	25502
823.13	25274
823.27	25183
823.41	25069
823.55	24962
823.69	25118
823.83	25118
823.97	25103
824.11	24996
824.25	24947
824.389	24920
824.529	25004
824.669	25004
824.809	25042
824.949	25023
825.089	25038
825.228	24962
825.368	24779
825.508	24726
825.648	24973
825.787	24844
825.927	24852
826.067	24837
826.206	24806
826.346	24703
826.485	24840
826.625	24798
826.765	24943
826.904	24844
827.044	24582
827.183	24559
827.323	24521
827.462	24639
827.601	24604
827.741	24490
827.88	24437
828.02	24559
828.159	24551
828.298	24540
828.437	24414
828.577	24467
828.716	24665
828.855	24353
828.994	24300
829.134	24304
829.273	24281
829.412	24232
829.551	24209
829.69	24220
829.829	24136
829.968	24414
830.107	24292
830.246	24315
830.385	24220
830.524	24098
830.663	24102
830.802	23992
830.941	23817
831.08	23836
831.219	23912
831.357	23939
831.496	24068
831.635	23843
831.774	23767
831.913	23710
832.051	23634
832.19	23573
832.329	23589
832.467	23543
832.606	23528
832.744	23429
832.883	23478
833.022	23455
833.16	23459
833.299	23592
833.437	23509
833.576	23748
833.714	23512
833.852	23630
833.991	23630
834.129	23726
834.267	23710
834.406	23672
834.544	23653
834.682	23493
834.821	23668
834.959	23745
835.097	23573
835.235	23767
835.373	23570
835.511	23535
835.65	23467
835.788	23512
835.926	23326
836.064	23208
836.202	23265
836.34	23337
836.478	23497
836.615	23440
836.753	23414
836.891	23497
837.029	23311
837.167	23395
837.305	23269
837.443	23246
837.58	23231
837.718	23376
837.856	23337
837.993	23280
838.131	23200
838.269	23132
838.406	23239
838.544	23010
838.681	22801
838.819	22991
838.956	22748
839.094	22710
839.231	22873
839.369	22896
839.506	23136
839.643	22946
839.781	22793
839.918	22713
840.055	22687
840.193	22691
840.33	22679
840.467	22645
840.604	22607
840.742	22900
840.879	22512
841.016	22466
841.153	22615
841.29	22733
841.427	22565
841.564	22786
841.701	22725
841.838	22535
841.975	22478
842.112	22588
842.249	22447
842.385	22462
842.522	22679
842.659	22352
842.796	22382
842.933	22447
843.069	22314
843.206	22363
843.343	22504
843.479	22451
843.616	22421
843.752	22238
843.889	22181
844.025	22360
844.162	22097
844.298	22211
844.435	22086
844.571	21987
844.708	22177
844.844	22257
844.98	22417
845.117	22356
845.253	22280
845.389	21983
845.525	22044
845.661	22078
845.798	21991
845.934	21956
846.07	21850
846.206	21994
846.342	22036
846.478	21884
846.614	21648
846.75	21545
846.886	21622
847.022	21759
847.158	21804
847.294	21644
847.429	21717
847.565	21679
847.701	21911
847.837	21393
847.972	21348
848.108	21447
848.244	21492
848.379	21260
848.515	21249
848.65	21222
848.786	21157
848.921	21245
849.057	21443
849.192	21382
849.328	21313
849.463	21241
849.598	21279
849.734	21116
849.869	21108
850.004	20963
850.14	21001
850.275	20998
850.41	20990
850.545	21055
850.68	21142
850.815	20994
850.95	21009
851.085	21161
851.22	21123
851.355	21051
851.49	20937
851.625	20975
851.76	20944
851.895	20883
852.03	20876
852.165	21001
852.299	20895
852.434	20990
852.569	21169
852.703	21062
852.838	21020
852.973	21176
853.107	21138
853.242	20979
853.376	20982
853.511	20796
853.645	20727
853.78	21036
853.914	20872
854.048	20716
854.183	20701
854.317	20883
854.451	21005
854.585	20891
854.72	20823
854.854	20785
854.988	20880
855.122	20834
855.256	20651
855.39	20746
855.524	20815
855.658	20876
855.792	20724
855.926	20883
856.06	20944
856.194	20876
856.327	20788
856.461	20910
856.595	20807
856.729	20937
856.862	20864
856.996	20902
857.13	20921
857.263	20948
857.397	20941
857.53	20826
857.664	20902
857.797	20861
857.931	20937
858.064	20785
858.197	20906
858.331	20750
858.464	20689
858.597	20739
858.731	20758
858.864	20826
858.997	20887
859.13	20750
859.263	20788
859.396	20895
859.529	20887
859.662	20663
859.795	20815
859.928	20746
860.061	21020
860.194	20994
860.327	20868
860.46	20914
860.592	20899
860.725	20956
860.858	21009
860.99	20963
861.123	20720
861.256	20876
861.388	20994
861.521	21386
861.653	20621
861.786	20644
861.918	20552
862.05	20735
862.183	20667
862.315	20796
862.447	20864
862.58	20773
862.712	20682
862.844	20518
862.976	20693
863.108	20606
863.24	21043
863.372	20617
863.504	20552
863.636	20579
863.768	20564
863.9	20545
864.032	20549
864.164	20560
864.296	20613
864.428	20697
864.559	20674
864.691	20678
864.823	20503
864.954	20427
865.086	20511
865.217	20457
865.349	20396
865.48	20480
865.612	20415
865.743	20545
865.875	20495
866.006	20385
866.137	20400
866.269	20393
866.4	20492
866.531	20385
866.662	20347
866.793	20366
866.924	20309
867.055	20473
867.186	20457
867.317	20328
867.448	20309
867.579	20488
867.71	20240
867.841	20434
867.972	20248
868.103	20400
868.233	20377
868.364	20533
868.495	20438
868.625	20594
868.756	20754
868.886	20541
869.017	20644
869.147	20632
869.278	20868
869.408	20739
869.539	20724
869.669	20644
869.799	20670
869.929	20804
870.06	20838
870.19	20975
870.32	20967
870.45	21051
870.58	20990
870.71	21089
870.84	21199
870.97	21043
871.1	20910
871.23	21218
871.36	21142
871.489	21180
871.619	21188
871.749	21226
871.879	21378
872.008	21268
872.138	21218
872.267	21260
872.397	21150
872.526	21055
872.656	21070
872.785	21085
872.915	21233
873.044	21367
873.173	21298
873.303	21317
873.432	21207
873.561	21317
873.69	21408
873.819	21378
873.948	21321
874.077	21199
874.206	21127
874.335	21302
874.464	21370
874.593	21420
874.722	21469
874.851	21412
874.979	21439
875.108	21538
875.237	21454
875.365	21340
875.494	21561
875.623	21526
875.751	21435
875.88	21561
876.008	21561
876.136	21622
876.265	21876
876.393	21949
876.521	21972
876.65	21968
876.778	21979
876.906	21816
877.034	21945
877.162	21827
877.29	21778
877.418	21846
877.546	21895
877.674	21895
877.802	21736
877.93	21774
878.058	21846
878.185	21835
878.313	21812
878.441	21766
878.568	21564
878.696	21724
878.824	21835
878.951	22006
879.079	22040
879.206	22150
879.333	22055
879.461	21857
879.588	21831
879.715	22006
879.842	22074
879.97	21854
880.097	21656
880.224	21663
880.351	21667
880.478	21690
880.605	21583
880.732	21755
880.859	21892
880.986	21690
881.112	21637
881.239	21530
881.366	21439
881.493	21389
881.619	21275
881.746	21233
881.872	21336
881.999	21245
882.125	21237
882.252	21260
882.378	21249
882.505	21340
882.631	21127
882.757	20948
882.883	21081
883.01	20887
883.136	20952
883.262	20857
883.388	20777
883.514	20876
883.64	20941
883.766	20781
883.892	20701
884.018	20743
884.143	20895
884.269	21017
884.395	20720
884.52	20556
884.646	20663
884.772	20454
884.897	20507
885.023	20682
885.148	20682
885.274	20758
885.399	20667
885.524	20663
885.65	20590
885.775	20667
885.9	20575
886.025	20640
886.15	20613
886.275	20575
886.4	20450
886.525	20568
886.65	20419
886.775	20393
886.9	20712
887.025	20849
887.149	20568
887.274	20385
887.399	20290
887.523	20324
887.648	20347
887.773	20305
887.897	20427
888.021	20366
888.146	20218
888.27	20446
888.395	20415
888.519	20339
888.643	20374
888.767	20286
888.891	20286
889.015	20263
889.139	20229
889.263	20134
889.387	20320
889.511	20347
889.635	20332
889.759	20115
889.883	20180
890.006	20081
890.13	20256
890.254	20100
890.377	20096
890.501	19936
890.624	19955
890.748	19963
890.871	19830
890.995	19734
891.118	19738
891.241	19727
891.364	19795
891.488	19868
891.611	19685
891.734	19818
891.857	19700
891.98	19685
892.103	19818
892.226	19776
892.349	19712
892.471	19590
892.594	19635
892.717	19723
892.839	19731
892.962	19628
893.085	19723
893.207	19620
893.33	19514
893.452	19632
893.575	19632
893.697	19651
893.819	19875
893.941	19811
894.064	19811
894.186	19544
894.308	19556
894.43	19689
894.552	19837
894.674	19769
894.796	19506
894.918	19616
895.04	19662
895.161	19670
895.283	19681
895.405	19696
895.526	19677
895.648	19567
895.769	19556
895.891	19685
896.012	19776
896.134	19715
896.255	19620
896.376	19700
896.498	19639
896.619	19704
896.74	19712
896.861	19700
896.982	20043
897.103	20172
897.224	20081
897.345	19875
897.466	19750
897.587	19860
897.708	20027
897.828	19845
897.949	19963
898.07	19753
898.19	19666
898.311	19913
898.431	19803
898.552	19871
898.672	19947
898.792	20008
898.913	19845
899.033	19826
899.153	19696
899.273	19544
899.393	19708
899.513	19651
899.633	19700
899.753	19605
899.873	19544
899.993	19807
900.113	19578
900.232	19643
900.352	19559
900.472	19468
900.591	19388
900.711	19525
900.83	19373
900.95	19453
901.069	19521
901.189	19346
901.308	19194
901.427	19103
901.546	19000
901.665	19008
901.784	19023
901.904	18897
902.023	18863
902.141	18673
902.26	18551
902.379	18711
902.498	18650
902.617	18547
902.735	18574
902.854	18547
902.973	18475
903.091	18262
903.21	18174
903.328	18232
903.446	18133
903.565	18049
903.683	18121
903.801	17923
903.919	18015
904.038	18038
904.156	17859
904.274	17847
904.392	17790
904.51	17684
904.627	17813
904.745	17798
904.863	17923
904.981	17547
905.098	17436
905.216	17516
905.334	17577
905.451	17493
905.569	17440
905.686	17478
905.803	17501
905.921	17296
906.038	17356
906.155	17315
906.272	17280
906.389	17174
906.506	16987
906.623	16987
906.74	17003
906.857	16881
906.974	16869
907.091	17022
907.208	17090
907.324	17029
907.441	16957
907.557	16748
907.674	16820
907.79	16767
907.907	16752
908.023	16771
908.139	16702
908.256	16615
908.372	16679
908.488	16634
908.604	16394
908.72	16443
908.836	16561
908.952	16398
909.068	16432
909.184	16592
909.3	16531
909.415	16443
909.531	16447
909.647	16234
909.762	16181
909.878	16169
909.993	16246
910.108	16097
910.224	16192
910.339	16139
910.454	16051
910.57	15979
910.685	15876
910.8	16131
910.915	16147
911.03	15968
911.145	15762
911.259	15736
911.374	15705
911.489	15698
911.604	15717
911.718	15492
911.833	15469
911.947	15298
912.062	15310
912.176	15519
912.291	15576
912.405	15492
912.519	15618
912.633	15599
912.748	15538
912.862	15321
912.976	15264
913.09	15275
913.204	15237
913.318	15287
913.431	15378
913.545	15416
913.659	15454
913.772	15329
913.886	15211
914	15203
914.113	15203
914.226	15241
914.34	15214
914.453	14967
914.566	15184
914.68	14982
914.793	14948
914.906	14823
915.019	14731
915.132	14590
915.245	14762
915.358	14731
915.47	14746
915.583	14724
915.696	14712
915.809	14811
915.921	14902
916.034	14716
916.146	14617
916.259	14587
916.371	14731
916.483	14758
916.595	14621
916.708	14549
916.82	14617
916.932	14530
917.044	14598
917.156	14484
917.268	14423
917.38	14480
917.491	14427
917.603	14412
917.715	14461
917.826	14438
917.938	14400
918.049	14332
918.161	14377
918.272	14503
918.384	14419
918.495	14412
918.606	14199
918.717	14149
918.828	14237
918.939	14195
919.05	14164
919.161	14168
919.272	13959
919.383	14031
919.494	14248
919.604	14419
919.715	14130
919.826	14058
919.936	14161
920.047	14286
920.157	14233
920.267	14244
920.378	14130
920.488	14031
920.598	14256
920.708	14423
920.818	14256
920.928	14240
921.038	14404
921.148	14339
921.258	14240
921.368	14035
921.477	13860
921.587	13860
921.697	13852
921.806	13989
921.916	13852
922.025	13601
922.134	13548
922.244	13460
922.353	13529
922.462	13464
922.571	13400
922.68	13187
922.789	13202
922.898	13240
923.007	13141
923.116	13206
923.224	13194
923.333	13171
923.442	13084
923.55	13042
923.659	13046
923.767	13099
923.876	12954
923.984	13042
924.092	12985
924.201	12856
924.309	12954
924.417	12996
924.525	12905
924.633	12928
924.741	13852
924.849	12631
924.956	12867
925.064	12662
925.172	12631
925.279	12627
925.387	12681
925.494	12688
925.602	12726
925.709	12585
925.816	12540
925.924	12635
926.031	12650
926.138	12593
926.245	12642
926.352	12506
926.459	12627
926.566	12612
926.673	12494
926.779	12395
926.886	12254
926.993	12194
927.099	12235
927.206	12194
927.312	12045
927.419	12277
927.525	12175
927.631	12277
927.737	12045
927.843	12007
927.95	11931
928.056	11920
928.162	12091
928.267	12121
928.373	12753
928.479	12091
928.585	11874
928.69	11965
928.796	12095
928.901	11828
929.007	11783
929.112	11958
929.218	11843
929.323	11741
929.428	11764
929.533	11927
929.638	11710
929.743	11668
929.848	11752
929.953	11748
930.058	11684
930.163	11433
930.267	11448
930.372	11604
930.477	11474
930.581	11627
930.685	11493
930.79	11395
930.894	11429
930.998	11292
931.103	11486
931.207	11140
931.311	11048
931.415	10953
931.519	10786
931.623	10763
