Data from test_V78500241_1590.txt Node
Date: Fri Mar 25 15:20:55 CST 2022
User: usil
Spectrometer: V785-0024
Trigger mode: 0
Integration Time (sec): 4.000000E-1
Scans to average: 1
Nonlinearity correction enabled: false
Boxcar width: 0
Storing dark spectrum: false
XAxis mode: Wavelengths
Number of Pixels in Spectrum: 1024
>>>>>Begin Spectral Data<<<<<
801.071	27975
801.214	27926
801.356	27698
801.499	27580
801.641	27504
801.783	27572
801.926	27515
802.068	27496
802.211	27488
802.353	27447
802.496	27218
802.638	27310
802.78	27211
802.923	27085
803.065	27142
803.208	26956
803.35	27131
803.492	27325
803.635	27359
803.777	27283
803.919	27427
804.061	27720
804.204	27374
804.346	27408
804.488	27340
804.63	27279
804.773	27146
804.915	27435
805.057	27538
805.199	27401
805.341	27332
805.483	27660
805.626	27576
805.768	27386
805.91	27500
806.052	27488
806.194	27496
806.336	27770
806.478	27739
806.62	27511
806.762	27538
806.904	27789
807.046	28105
807.188	27918
807.33	27914
807.472	28010
807.614	27903
807.756	27998
807.898	27888
808.04	27793
808.182	27831
808.324	27812
808.465	27838
808.607	28025
808.749	28128
808.891	28131
809.033	28291
809.174	28188
809.316	28268
809.458	28162
809.6	28223
809.741	28280
809.883	28337
810.025	28485
810.166	28360
810.308	28504
810.45	28371
810.591	28276
810.733	28223
810.875	28090
811.016	27975
811.158	28128
811.299	28185
811.441	28200
811.582	28405
811.724	28329
811.865	28048
812.007	28188
812.148	28169
812.29	28265
812.431	28421
812.573	28573
812.714	28546
812.855	28561
812.997	28729
813.138	28816
813.279	28755
813.421	28740
813.562	28771
813.703	28557
813.845	28485
813.986	28166
814.127	27994
814.268	27865
814.41	27918
814.551	27895
814.692	27941
814.833	27739
814.974	27918
815.115	27869
815.256	27804
815.397	27701
815.539	27675
815.68	27793
815.821	27553
815.962	27701
816.103	27694
816.244	27587
816.385	27458
816.526	27401
816.666	27351
816.807	27180
816.948	27226
817.089	27184
817.23	27146
817.371	27176
817.512	27199
817.653	27112
817.793	27074
817.934	27096
818.075	27249
818.216	27146
818.356	27066
818.497	27032
818.638	26929
818.778	26910
818.919	26864
819.06	26994
819.2	27116
819.341	27203
819.481	27123
819.622	27272
819.762	27378
819.903	27355
820.043	27313
820.184	27310
820.324	27344
820.465	27359
820.605	27252
820.746	27256
820.886	27161
821.026	27207
821.167	27142
821.307	27287
821.447	27226
821.588	27081
821.728	26956
821.868	26739
822.008	26587
822.149	26575
822.289	26651
822.429	26408
822.569	26267
822.709	26237
822.849	26016
822.99	26191
823.13	26058
823.27	26138
823.41	25963
823.55	25822
823.69	25959
823.83	25902
823.97	25944
824.11	25822
824.25	25586
824.389	25708
824.529	25841
824.669	25822
824.809	25936
824.949	25890
825.089	25887
825.228	25883
825.368	25544
825.508	25746
825.648	25647
825.787	25647
825.927	25708
826.067	25613
826.206	25521
826.346	25609
826.485	25552
826.625	25544
826.765	25715
826.904	25666
827.044	25343
827.183	25540
827.323	25468
827.462	25453
827.601	25483
827.741	25285
827.88	25289
828.02	25282
828.159	25274
828.298	25194
828.437	25354
828.577	25202
828.716	25426
828.855	25217
828.994	25126
829.134	24973
829.273	25137
829.412	25069
829.551	24989
829.69	25152
829.829	25084
829.968	25065
830.107	25133
830.246	25057
830.385	25034
830.524	24977
830.663	24795
830.802	24776
830.941	24673
831.08	24665
831.219	24604
831.357	24631
831.496	24913
831.635	24741
831.774	24692
831.913	24544
832.051	24608
832.19	24273
832.329	24429
832.467	24414
832.606	24277
832.744	24296
832.883	24311
833.022	24289
833.16	24365
833.299	24338
833.437	24426
833.576	24528
833.714	24369
833.852	24384
833.991	24372
834.129	24509
834.267	24418
834.406	24369
834.544	24494
834.682	24429
834.821	24232
834.959	24601
835.097	24342
835.235	24319
835.373	24361
835.511	24448
835.65	24251
835.788	24247
835.926	24114
836.064	24011
836.202	23999
836.34	24289
836.478	24201
836.615	24182
836.753	24285
836.891	24426
837.029	24194
837.167	24201
837.305	24038
837.443	24117
837.58	24110
837.718	24083
837.856	24125
837.993	24022
838.131	23988
838.269	23843
838.406	23942
838.544	23999
838.681	23707
838.819	23627
838.956	23558
839.094	23558
839.231	23539
839.369	23794
839.506	23969
839.643	23794
839.781	23554
839.918	23474
840.055	23505
840.193	23581
840.33	23341
840.467	23509
840.604	23577
840.742	23653
840.879	23433
841.016	23398
841.153	23258
841.29	23619
841.427	23425
841.564	23452
841.701	23474
841.838	23368
841.975	23292
842.112	23356
842.249	23227
842.385	23223
842.522	23379
842.659	23299
842.796	23227
842.933	23094
843.069	23113
843.206	23216
843.343	23239
843.479	23166
843.616	23174
843.752	23090
843.889	23067
844.025	23018
844.162	23003
844.298	23113
844.435	22877
844.571	22953
844.708	23159
844.844	23105
844.98	23044
845.117	23162
845.253	22957
845.389	22748
845.525	22915
845.661	22805
845.798	22683
845.934	22725
846.07	22679
846.206	22744
846.342	22744
846.478	22592
846.614	22527
846.75	22348
846.886	22405
847.022	22462
847.158	22550
847.294	22424
847.429	22432
847.565	22405
847.701	22706
847.837	22109
847.972	22074
848.108	22356
848.244	22139
848.379	22017
848.515	21998
848.65	21949
848.786	21964
848.921	21915
849.057	22207
849.192	22143
849.328	22090
849.463	21987
849.598	22029
849.734	21915
849.869	21911
850.004	21827
850.14	21747
850.275	21789
850.41	21743
850.545	21713
850.68	21785
850.815	21762
850.95	21766
851.085	21979
851.22	21899
851.355	21854
851.49	21724
851.625	21762
851.76	21682
851.895	21720
852.03	21759
852.165	21770
852.299	21888
852.434	21873
852.569	21895
852.703	21724
852.838	21876
852.973	21899
853.107	21846
853.242	21686
853.376	21660
853.511	21500
853.645	21599
853.78	21743
853.914	21622
854.048	21500
854.183	21538
854.317	21709
854.451	21732
854.585	21595
854.72	21557
854.854	21698
854.988	21580
855.122	21629
855.256	21580
855.39	21473
855.524	21591
855.658	21720
855.792	21549
855.926	21648
856.06	21576
856.194	21751
856.327	21515
856.461	21557
856.595	21496
856.729	21671
856.862	21629
856.996	21519
857.13	21698
857.263	21728
857.397	21675
857.53	21637
857.664	21690
857.797	21637
857.931	21736
858.064	21652
858.197	21720
858.331	21538
858.464	21603
858.597	21420
858.731	21542
858.864	21553
858.997	21618
859.13	21515
859.263	21595
859.396	21686
859.529	21542
859.662	21500
859.795	21591
859.928	21599
860.061	21766
860.194	21751
860.327	21747
860.46	21739
860.592	21797
860.725	21797
860.858	21781
860.99	21618
861.123	21428
861.256	21572
861.388	21553
861.521	22352
861.653	21386
861.786	21386
861.918	21469
862.05	21488
862.183	21408
862.315	21587
862.447	21660
862.58	21435
862.712	21306
862.844	21283
862.976	21469
863.108	21355
863.24	21690
863.372	21211
863.504	21363
863.636	21268
863.768	21462
863.9	21447
864.032	21226
864.164	21355
864.296	21256
864.428	21340
864.559	21389
864.691	21439
864.823	21287
864.954	21302
865.086	21283
865.217	21207
865.349	21218
865.48	21298
865.612	21161
865.743	21340
865.875	21211
866.006	21226
866.137	21226
866.269	21195
866.4	21256
866.531	21058
866.662	21036
866.793	21116
866.924	21146
867.055	21024
867.186	21032
867.317	21180
867.448	21055
867.579	20979
867.71	20990
867.841	20956
867.972	21119
868.103	21085
868.233	21096
868.364	21161
868.495	21214
868.625	21321
868.756	21561
868.886	21325
869.017	21416
869.147	21492
869.278	21378
869.408	21401
869.539	21386
869.669	21447
869.799	21507
869.929	21534
870.06	21534
870.19	21599
870.32	21591
870.45	21709
870.58	21861
870.71	21800
870.84	21819
870.97	21850
871.1	21728
871.23	21892
871.36	22040
871.489	21930
871.619	21926
871.749	21979
871.879	22059
872.008	22116
872.138	21975
872.267	21998
872.397	21781
872.526	21842
872.656	21850
872.785	21724
872.915	21983
873.044	22032
873.173	21922
873.303	21987
873.432	22044
873.561	22109
873.69	22067
873.819	21922
873.948	21876
874.077	21865
874.206	21922
874.335	21975
874.464	22143
874.593	22341
874.722	22162
874.851	22242
874.979	22219
875.108	22230
875.237	22150
875.365	22211
875.494	22063
875.623	22360
875.751	22147
875.88	22306
876.008	22421
876.136	22436
876.265	22592
876.393	22733
876.521	22607
876.65	22675
876.778	22542
876.906	22637
877.034	22436
877.162	22603
877.29	22489
877.418	22603
877.546	22535
877.674	22588
877.802	22538
877.93	22523
878.058	22497
878.185	22428
878.313	22565
878.441	22637
878.568	22303
878.696	22565
878.824	22584
878.951	22599
879.079	22577
879.206	22687
879.333	22713
879.461	22527
879.588	22592
879.715	22630
879.842	22850
879.97	22615
880.097	22489
880.224	22405
880.351	22443
880.478	22246
880.605	22348
880.732	22310
880.859	22664
880.986	22432
881.112	22329
881.239	22207
881.366	22120
881.493	21983
881.619	22017
881.746	22010
881.872	21983
881.999	21918
882.125	21888
882.252	21972
882.378	21903
882.505	22055
882.631	21816
882.757	21720
882.883	21789
883.01	21705
883.136	21549
883.262	21405
883.388	21485
883.514	21561
883.64	21705
883.766	21637
883.892	21466
884.018	21359
884.143	21488
884.269	21576
884.395	21313
884.52	21367
884.646	21268
884.772	21241
884.897	21127
885.023	21321
885.148	21325
885.274	21439
885.399	21386
885.524	21340
885.65	21287
885.775	21203
885.9	21214
886.025	21485
886.15	21443
886.275	21294
886.4	21173
886.525	21214
886.65	21310
886.775	21165
886.9	21298
887.025	21428
887.149	21249
887.274	21112
887.399	21127
887.523	21074
887.648	20960
887.773	20918
887.897	21154
888.021	21077
888.146	21077
888.27	21127
888.395	21142
888.519	21089
888.643	21058
888.767	21032
888.891	20998
889.015	20857
889.139	20864
889.263	20807
889.387	20952
889.511	20963
889.635	20914
889.759	20887
889.883	20804
890.006	20842
890.13	20937
890.254	20769
890.377	20773
890.501	20655
890.624	20442
890.748	20689
890.871	20404
890.995	20431
891.118	20366
891.241	20381
891.364	20446
891.488	20461
891.611	20370
891.734	20522
891.857	20431
891.98	20339
892.103	20465
892.226	20332
892.349	20317
892.471	20256
892.594	20263
892.717	20377
892.839	20317
892.962	20298
893.085	20324
893.207	20415
893.33	20214
893.452	20043
893.575	20389
893.697	20336
893.819	20339
893.941	20514
894.064	20518
894.186	20237
894.308	20256
894.43	20355
894.552	20488
894.674	20339
894.796	20267
894.918	20259
895.04	20240
895.161	20408
895.283	20225
895.405	20145
895.526	20309
895.648	20275
895.769	20393
895.891	20427
896.012	20358
896.134	20404
896.255	20210
896.376	20275
896.498	20126
896.619	20336
896.74	20309
896.861	20313
896.982	20625
897.103	20705
897.224	20617
897.345	20583
897.466	20355
897.587	20571
897.708	20583
897.828	20583
897.949	20465
898.07	20294
898.19	20385
898.311	20629
898.431	20457
898.552	20629
898.672	20514
898.792	20537
898.913	20503
899.033	20366
899.153	20320
899.273	20149
899.393	20259
899.513	20328
899.633	20267
899.753	20278
899.873	20233
899.993	20210
900.113	20195
900.232	20214
900.352	20199
900.472	19963
900.591	19890
900.711	20176
900.83	19940
900.95	20100
901.069	20157
901.189	19951
901.308	19704
901.427	19571
901.546	19537
901.665	19662
901.784	19609
901.904	19449
902.023	19457
902.141	19217
902.26	19198
902.379	19179
902.498	19259
902.617	19023
902.735	19110
902.854	19129
902.973	19004
903.091	18810
903.21	18749
903.328	18730
903.446	18753
903.565	18585
903.683	18513
903.801	18544
903.919	18540
904.038	18494
904.156	18418
904.274	18441
904.392	18311
904.51	18281
904.627	18319
904.745	18273
904.863	18486
904.981	18155
905.098	18091
905.216	18034
905.334	18030
905.451	18148
905.569	17969
905.686	18102
905.803	18110
905.921	17866
906.038	17912
906.155	17756
906.272	17707
906.389	17764
906.506	17600
906.623	17619
906.74	17581
906.857	17467
906.974	17459
907.091	17646
907.208	17764
907.324	17524
907.441	17592
907.557	17277
907.674	17345
907.79	17288
907.907	17235
908.023	17337
908.139	17337
908.256	17155
908.372	17223
908.488	17181
908.604	16972
908.72	16923
908.836	17022
908.952	17041
909.068	16976
909.184	17105
909.3	17029
909.415	17052
909.531	16976
909.647	16649
909.762	16744
909.878	16668
909.993	16645
910.108	16649
910.224	16607
910.339	16664
910.454	16577
910.57	16489
910.685	16516
910.8	16767
910.915	16622
911.03	16542
911.145	16440
911.259	16356
911.374	16204
911.489	16173
911.604	16291
911.718	15998
911.833	15975
911.947	15915
912.062	15793
912.176	15918
912.291	16021
912.405	15975
912.519	16238
912.633	16090
912.748	16029
912.862	15953
912.976	15831
913.09	15739
913.204	15812
913.318	15819
913.431	16071
913.545	15956
913.659	15915
913.772	15751
913.886	15656
914	15732
914.113	15660
914.226	15797
914.34	15614
914.453	15538
914.566	15705
914.68	15496
914.793	15488
914.906	15325
915.019	15298
915.132	15230
915.245	15233
915.358	15283
915.47	15192
915.583	15272
915.696	15226
915.809	15310
915.921	15405
916.034	15157
916.146	15233
916.259	15123
916.371	15146
916.483	15165
916.595	15077
916.708	15081
916.82	15066
916.932	15097
917.044	15013
917.156	14948
917.268	14887
917.38	14883
917.491	14819
917.603	14948
917.715	15058
917.826	14944
917.938	14834
918.049	14663
918.161	14864
918.272	14895
918.384	14971
918.495	14864
918.606	14769
918.717	14693
918.828	14644
918.939	14697
919.05	14541
919.161	14720
919.272	14480
919.383	14488
919.494	14625
919.604	14800
919.715	14610
919.826	14590
919.936	14617
920.047	14625
920.157	14533
920.267	14845
920.378	14682
920.488	14518
920.598	14807
920.708	14830
920.818	14754
920.928	14781
921.038	14853
921.148	14895
921.258	14526
921.368	14408
921.477	14271
921.587	14298
921.697	14195
921.806	14362
921.916	14084
922.025	14020
922.134	14024
922.244	13868
922.353	13978
922.462	13776
922.571	13818
922.68	13613
922.789	13613
922.898	13734
923.007	13525
923.116	13529
923.224	13571
923.333	13575
923.442	13525
923.55	13464
923.659	13533
923.767	13594
923.876	13430
923.984	13521
924.092	13377
924.201	13358
924.309	13331
924.417	13346
924.525	13293
924.633	13293
924.741	14199
924.849	13145
924.956	13247
925.064	13145
925.172	13057
925.279	12993
925.387	13008
925.494	13057
925.602	13175
925.709	13168
925.816	13015
925.924	13050
926.031	13061
926.138	12871
926.245	13038
926.352	12916
926.459	13012
926.566	13057
926.673	12939
926.779	12787
926.886	12715
926.993	12696
927.099	12646
927.206	12521
927.312	12623
927.419	12650
927.525	12540
927.631	12597
927.737	12513
927.843	12479
927.95	12239
928.056	12395
928.162	12433
928.267	12475
928.373	13057
928.479	12429
928.585	12262
928.69	12353
928.796	12471
928.901	12315
929.007	12140
929.112	12258
929.218	12273
929.323	12270
929.428	12091
929.533	12213
929.638	12110
929.743	12091
929.848	12125
929.953	12091
930.058	12076
930.163	11870
930.267	11817
930.372	11996
930.477	11878
930.581	12038
930.685	11847
930.79	11722
930.894	11817
930.998	11722
931.103	11912
931.207	11433
931.311	11360
931.415	11216
931.519	11079
931.623	11033
