Data from test_V78500241_391.txt Node
Date: Fri Mar 25 15:12:34 CST 2022
User: usil
Spectrometer: V785-0024
Trigger mode: 0
Integration Time (sec): 4.000000E-1
Scans to average: 1
Nonlinearity correction enabled: false
Boxcar width: 0
Storing dark spectrum: false
XAxis mode: Wavelengths
Number of Pixels in Spectrum: 1024
>>>>>Begin Spectral Data<<<<<
801.071	27051
801.214	26902
801.356	26800
801.499	26651
801.641	26518
801.783	26503
801.926	26492
802.068	26545
802.211	26377
802.353	26511
802.496	26320
802.638	26244
802.78	26282
802.923	26218
803.065	26107
803.208	26210
803.35	26191
803.492	26305
803.635	26301
803.777	26305
803.919	26453
804.061	26712
804.204	26408
804.346	26157
804.488	26294
804.63	26427
804.773	26202
804.915	26298
805.057	26423
805.199	26343
805.341	26415
805.483	26419
805.626	26423
805.768	26351
805.91	26351
806.052	26431
806.194	26351
806.336	26602
806.478	26396
806.62	26545
806.762	26560
806.904	26625
807.046	26940
807.188	26777
807.33	26899
807.472	26937
807.614	26670
807.756	26807
807.898	26769
808.04	26659
808.182	26488
808.324	26670
808.465	26743
808.607	26861
808.749	26986
808.891	27112
809.033	27218
809.174	27131
809.316	27047
809.458	27070
809.6	26979
809.741	27089
809.883	27302
810.025	27180
810.166	27298
810.308	27287
810.45	27272
810.591	27188
810.733	27089
810.875	26769
811.016	26838
811.158	26872
811.299	27024
811.441	27017
811.582	27150
811.724	26853
811.865	26880
812.007	26853
812.148	26918
812.29	27104
812.431	27131
812.573	27321
812.714	27477
812.855	27580
812.997	27641
813.138	27842
813.279	27690
813.421	27587
813.562	27473
813.703	27530
813.845	27272
813.986	26925
814.127	26845
814.268	26590
814.41	26655
814.551	26640
814.692	26906
814.833	26606
814.974	26701
815.115	26769
815.256	26442
815.397	26594
815.539	26560
815.68	26469
815.821	26457
815.962	26461
816.103	26457
816.244	26221
816.385	26157
816.526	26313
816.666	26027
816.807	25955
816.948	26008
817.089	26008
817.23	26180
817.371	25932
817.512	26077
817.653	26012
817.793	25837
817.934	25997
818.075	25887
818.216	26058
818.356	25906
818.497	25803
818.638	25674
818.778	25803
818.919	25993
819.06	25723
819.2	25818
819.341	25947
819.481	26027
819.622	26058
819.762	26214
819.903	26096
820.043	26107
820.184	26168
820.324	26027
820.465	25986
820.605	26050
820.746	25951
820.886	25986
821.026	25932
821.167	25989
821.307	26088
821.447	25921
821.588	25852
821.728	25700
821.868	25491
822.008	25449
822.149	25510
822.289	25369
822.429	25107
822.569	25095
822.709	24958
822.849	25046
822.99	24928
823.13	24970
823.27	24829
823.41	24620
823.55	24722
823.69	24738
823.83	24722
823.97	24604
824.11	24475
824.25	24513
824.389	24426
824.529	24551
824.669	24544
824.809	24639
824.949	24684
825.089	24627
825.228	24563
825.368	24391
825.508	24361
825.648	24475
825.787	24380
825.927	24391
826.067	24505
826.206	24391
826.346	24479
826.485	24376
826.625	24445
826.765	24540
826.904	24566
827.044	24155
827.183	24167
827.323	23999
827.462	24209
827.601	24194
827.741	24216
827.88	24205
828.02	24018
828.159	24174
828.298	24239
828.437	24079
828.577	24102
828.716	24323
828.855	24022
828.994	23855
829.134	23878
829.273	23843
829.412	23745
829.551	23783
829.69	23878
829.829	23878
829.968	23908
830.107	23904
830.246	23916
830.385	23794
830.524	23756
830.663	23615
830.802	23558
830.941	23493
831.08	23486
831.219	23490
831.357	23581
831.496	23718
831.635	23497
831.774	23524
831.913	23349
832.051	23364
832.19	23307
832.329	23288
832.467	23071
832.606	23204
832.744	23140
832.883	23235
833.022	23105
833.16	23189
833.299	23132
833.437	23178
833.576	23223
833.714	23277
833.852	23258
833.991	23421
834.129	23296
834.267	23307
834.406	23273
834.544	23193
834.682	23193
834.821	23067
834.959	23585
835.097	23113
835.235	23216
835.373	23166
835.511	23273
835.65	23083
835.788	23181
835.926	23006
836.064	22900
836.202	22987
836.34	23113
836.478	23220
836.615	22980
836.753	23147
836.891	23109
837.029	23132
837.167	23052
837.305	23006
837.443	23029
837.58	22965
837.718	22942
837.856	22965
837.993	22904
838.131	22957
838.269	22774
838.406	22691
838.544	22698
838.681	22565
838.819	22615
838.956	22470
839.094	22428
839.231	22512
839.369	22592
839.506	22755
839.643	22550
839.781	22417
839.918	22462
840.055	22356
840.193	22367
840.33	22451
840.467	22322
840.604	22371
840.742	22653
840.879	22306
841.016	22173
841.153	22223
841.29	22478
841.427	22363
841.564	22424
841.701	22360
841.838	22234
841.975	22299
842.112	22226
842.249	22211
842.385	22101
842.522	22337
842.659	22109
842.796	22082
842.933	22128
843.069	22032
843.206	22112
843.343	22139
843.479	22010
843.616	22078
843.752	21869
843.889	21861
844.025	21979
844.162	21861
844.298	21998
844.435	21857
844.571	21884
844.708	21949
844.844	22067
844.98	22192
845.117	21926
845.253	21819
845.389	21759
845.525	21831
845.661	21660
845.798	21656
845.934	21717
846.07	21599
846.206	21603
846.342	21766
846.478	21515
846.614	21439
846.75	21310
846.886	21336
847.022	21507
847.158	21332
847.294	21374
847.429	21351
847.565	21359
847.701	21625
847.837	21100
847.972	21077
848.108	21226
848.244	21089
848.379	21112
848.515	21001
848.65	20941
848.786	21066
848.921	20986
849.057	21096
849.192	21039
849.328	20815
849.463	21001
849.598	20933
849.734	20838
849.869	20872
850.004	20754
850.14	20986
850.275	20731
850.41	20648
850.545	20705
850.68	20613
850.815	20788
850.95	20716
851.085	20902
851.22	20872
851.355	20606
851.49	20769
851.625	20667
851.76	20712
851.895	20583
852.03	20583
852.165	20743
852.299	20693
852.434	20788
852.569	20777
852.703	20746
852.838	20773
852.973	20807
853.107	20853
853.242	20590
853.376	20465
853.511	20450
853.645	20503
853.78	20739
853.914	20575
854.048	20568
854.183	20545
854.317	20457
854.451	20716
854.585	20454
854.72	20537
854.854	20541
854.988	20450
855.122	20541
855.256	20480
855.39	20480
855.524	20701
855.658	20480
855.792	20648
855.926	20571
856.06	20598
856.194	20636
856.327	20564
856.461	20503
856.595	20427
856.729	20533
856.862	20568
856.996	20549
857.13	20579
857.263	20625
857.397	20689
857.53	20564
857.664	20609
857.797	20560
857.931	20678
858.064	20617
858.197	20735
858.331	20488
858.464	20503
858.597	20476
858.731	20537
858.864	20522
858.997	20457
859.13	20465
859.263	20568
859.396	20621
859.529	20518
859.662	20480
859.795	20492
859.928	20655
860.061	20651
860.194	20785
860.327	20613
860.46	20579
860.592	20609
860.725	20735
860.858	20720
860.99	20583
861.123	20423
861.256	20457
861.388	20579
861.521	21138
861.653	20381
861.786	20347
861.918	20427
862.05	20530
862.183	20556
862.315	20552
862.447	20518
862.58	20434
862.712	20362
862.844	20202
862.976	20362
863.108	20381
863.24	20724
863.372	20263
863.504	20275
863.636	20309
863.768	20347
863.9	20233
864.032	20191
864.164	20187
864.296	20423
864.428	20271
864.559	20294
864.691	20412
864.823	20271
864.954	20328
865.086	20206
865.217	20343
865.349	20126
865.48	20149
865.612	20256
865.743	20290
865.875	20161
866.006	20237
866.137	20199
866.269	20084
866.4	20157
866.531	20043
866.662	20058
866.793	20115
866.924	20138
867.055	20111
867.186	20153
867.317	20153
867.448	20016
867.579	20035
867.71	20054
867.841	19963
867.972	20081
868.103	20054
868.233	20221
868.364	20077
868.495	20263
868.625	20366
868.756	20377
868.886	20199
869.017	20431
869.147	20434
869.278	20499
869.408	20415
869.539	20446
869.669	20454
869.799	20450
869.929	20514
870.06	20389
870.19	20552
870.32	20621
870.45	20648
870.58	20777
870.71	20895
870.84	20838
870.97	20697
871.1	20648
871.23	20967
871.36	20971
871.489	20845
871.619	20876
871.749	20963
871.879	21074
872.008	20960
872.138	20967
872.267	20948
872.397	20727
872.526	20811
872.656	20777
872.785	20788
872.915	21005
873.044	21043
873.173	20921
873.303	21017
873.432	21009
873.561	21131
873.69	20944
873.819	21055
873.948	21093
874.077	20982
874.206	20948
874.335	20899
874.464	21047
874.593	21241
874.722	21112
874.851	21291
874.979	21085
875.108	21211
875.237	21336
875.365	21169
875.494	21226
875.623	21260
875.751	21218
875.88	21226
876.008	21272
876.136	21462
876.265	21694
876.393	21637
876.521	21675
876.65	21675
876.778	21694
876.906	21534
877.034	21488
877.162	21591
877.29	21564
877.418	21644
877.546	21637
877.674	21660
877.802	21496
877.93	21564
878.058	21519
878.185	21393
878.313	21481
878.441	21633
878.568	21481
878.696	21435
878.824	21481
878.951	21580
879.079	21682
879.206	21774
879.333	21736
879.461	21568
879.588	21698
879.715	21781
879.842	21854
879.97	21587
880.097	21340
880.224	21382
880.351	21363
880.478	21367
880.605	21332
880.732	21325
880.859	21477
880.986	21439
881.112	21272
881.239	21306
881.366	21222
881.493	20948
881.619	21009
881.746	21077
881.872	20933
881.999	20883
882.125	20906
882.252	21070
882.378	20975
882.505	21009
882.631	20857
882.757	20735
882.883	20857
883.01	20762
883.136	20514
883.262	20522
883.388	20609
883.514	20716
883.64	20663
883.766	20648
883.892	20488
884.018	20537
884.143	20670
884.269	20735
884.395	20492
884.52	20381
884.646	20358
884.772	20248
884.897	20153
885.023	20343
885.148	20431
885.274	20552
885.399	20522
885.524	20282
885.65	20267
885.775	20412
885.9	20332
886.025	20438
886.15	20389
886.275	20351
886.4	20301
886.525	20157
886.65	20290
886.775	20145
886.9	20381
887.025	20461
887.149	20267
887.274	20142
887.399	20103
887.523	20039
887.648	19997
887.773	20157
887.897	20092
888.021	20153
888.146	20084
888.27	20183
888.395	20138
888.519	20096
888.643	20054
888.767	20206
888.891	20008
889.015	19917
889.139	20043
889.263	19772
889.387	20115
889.511	20065
889.635	20069
889.759	19902
889.883	19883
890.006	19993
890.13	19993
890.254	19818
890.377	19849
890.501	19696
890.624	19712
890.748	19715
890.871	19689
890.995	19453
891.118	19460
891.241	19506
891.364	19499
891.488	19624
891.611	19510
891.734	19563
891.857	19460
891.98	19559
892.103	19556
892.226	19491
892.349	19468
892.471	19377
892.594	19369
892.717	19472
892.839	19358
892.962	19540
893.085	19499
893.207	19510
893.33	19346
893.452	19422
893.575	19453
893.697	19369
893.819	19495
893.941	19544
894.064	19578
894.186	19270
894.308	19331
894.43	19480
894.552	19548
894.674	19430
894.796	19335
894.918	19331
895.04	19350
895.161	19464
895.283	19514
895.405	19369
895.526	19434
895.648	19411
895.769	19483
895.891	19480
896.012	19521
896.134	19411
896.255	19434
896.376	19426
896.498	19403
896.619	19445
896.74	19480
896.861	19464
896.982	19719
897.103	19989
897.224	19651
897.345	19620
897.466	19559
897.587	19578
897.708	19723
897.828	19594
897.949	19613
898.07	19468
898.19	19495
898.311	19738
898.431	19677
898.552	19635
898.672	19719
898.792	19750
898.913	19540
899.033	19563
899.153	19480
899.273	19240
899.393	19320
899.513	19487
899.633	19529
899.753	19457
899.873	19327
899.993	19419
900.113	19381
900.232	19434
900.352	19304
900.472	19244
900.591	19183
900.711	19164
900.83	19091
900.95	19251
901.069	19251
901.189	19034
901.308	18825
901.427	18768
901.546	18715
901.665	18684
901.784	18795
901.904	18627
902.023	18620
902.141	18388
902.26	18342
902.379	18437
902.498	18277
902.617	18357
902.735	18289
902.854	18273
902.973	18197
903.091	18034
903.21	17939
903.328	17866
903.446	17866
903.565	17775
903.683	17802
903.801	17726
903.919	17623
904.038	17737
904.156	17653
904.274	17615
904.392	17573
904.51	17463
904.627	17512
904.745	17558
904.863	17497
904.981	17356
905.098	17220
905.216	17136
905.334	17318
905.451	17326
905.569	17204
905.686	17288
905.803	17216
905.921	16987
906.038	17235
906.155	17048
906.272	17003
906.389	16938
906.506	16877
906.623	16820
906.74	16831
906.857	16793
906.974	16767
907.091	16847
907.208	16881
907.324	16809
907.441	16637
907.557	16474
907.674	16546
907.79	16474
907.907	16561
908.023	16618
908.139	16618
908.256	16523
908.372	16367
908.488	16478
908.604	16352
908.72	16135
908.836	16181
908.952	16261
909.068	16291
909.184	16242
909.3	16284
909.415	16268
909.531	16265
909.647	16044
909.762	15994
909.878	15960
909.993	15956
910.108	15953
910.224	15987
910.339	15838
910.454	15827
910.57	15793
910.685	15694
910.8	15956
910.915	15899
911.03	15679
911.145	15679
911.259	15572
911.374	15606
911.489	15454
911.604	15504
911.718	15268
911.833	15310
911.947	15188
912.062	15085
912.176	15294
912.291	15260
912.405	15230
912.519	15397
912.633	15564
912.748	15336
912.862	15287
912.976	15176
913.09	15009
913.204	15039
913.318	15066
913.431	15344
913.545	15161
913.659	15313
913.772	15036
913.886	14963
914	14933
914.113	14910
914.226	14960
914.34	15013
914.453	14754
914.566	14853
914.68	14857
914.793	14743
914.906	14590
915.019	14579
915.132	14480
915.245	14571
915.358	14678
915.47	14587
915.583	14530
915.696	14571
915.809	14693
915.921	14811
916.034	14465
916.146	14503
916.259	14404
916.371	14545
916.483	14511
916.595	14415
916.708	14457
916.82	14431
916.932	14393
917.044	14298
917.156	14408
917.268	14248
917.38	14202
917.491	14252
917.603	14206
917.715	14278
917.826	14328
917.938	14221
918.049	14130
918.161	14149
918.272	14294
918.384	14259
918.495	14126
918.606	14065
918.717	13826
918.828	14024
918.939	14031
919.05	13894
919.161	13936
919.272	13769
919.383	13883
919.494	14088
919.604	14134
919.715	13993
919.826	13826
919.936	13944
920.047	14142
920.157	13944
920.267	14187
920.378	13917
920.488	14001
920.598	14168
920.708	14282
920.818	14157
920.928	14149
921.038	14305
921.148	14263
921.258	14005
921.368	13875
921.477	13803
921.587	13693
921.697	13643
921.806	13765
921.916	13586
922.025	13506
922.134	13434
922.244	13350
922.353	13400
922.462	13278
922.571	13217
922.68	12928
922.789	12993
922.898	13069
923.007	12913
923.116	13084
923.224	13034
923.333	13065
923.442	12928
923.55	12840
923.659	12882
923.767	12973
923.876	12859
923.984	12886
924.092	12795
924.201	12840
924.309	12730
924.417	12791
924.525	12681
924.633	12741
924.741	13510
924.849	12486
924.956	12631
925.064	12509
925.172	12407
925.279	12456
925.387	12426
925.494	12395
925.602	12578
925.709	12509
925.816	12399
925.924	12456
926.031	12445
926.138	12464
926.245	12445
926.352	12258
926.459	12464
926.566	12551
926.673	12376
926.779	12243
926.886	12209
926.993	12121
927.099	12083
927.206	11992
927.312	12007
927.419	12041
927.525	12038
927.631	12171
927.737	11893
927.843	11901
927.95	11855
928.056	11927
928.162	11813
928.267	11988
928.373	12544
928.479	11901
928.585	11767
928.69	11870
928.796	11885
928.901	11809
929.007	11718
929.112	11718
929.218	11836
929.323	11634
929.428	11646
929.533	11775
929.638	11585
929.743	11600
929.848	11581
929.953	11600
930.058	11429
930.163	11360
930.267	11391
930.372	11417
930.477	11258
930.581	11505
930.685	11341
930.79	11185
930.894	11193
930.998	11143
931.103	11315
931.207	11033
931.311	10805
931.415	10793
931.519	10603
931.623	10577
