Data from test_V78500241_2647.txt Node
Date: Fri Mar 25 15:28:17 CST 2022
User: usil
Spectrometer: V785-0024
Trigger mode: 0
Integration Time (sec): 4.000000E-1
Scans to average: 1
Nonlinearity correction enabled: false
Boxcar width: 0
Storing dark spectrum: false
XAxis mode: Wavelengths
Number of Pixels in Spectrum: 1024
>>>>>Begin Spectral Data<<<<<
801.071	27154
801.214	27176
801.356	26868
801.499	26785
801.641	26625
801.783	26708
801.926	26765
802.068	26659
802.211	26552
802.353	26663
802.496	26408
802.638	26377
802.78	26324
802.923	26366
803.065	26096
803.208	26233
803.35	26324
803.492	26476
803.635	26332
803.777	26457
803.919	26476
804.061	26735
804.204	26492
804.346	26522
804.488	26377
804.63	26408
804.773	26389
804.915	26503
805.057	26423
805.199	26438
805.341	26590
805.483	26590
805.626	26613
805.768	26541
805.91	26545
806.052	26659
806.194	26389
806.336	26823
806.478	26533
806.62	26636
806.762	26807
806.904	26830
807.046	27074
807.188	26902
807.33	26979
807.472	27051
807.614	26830
807.756	27036
807.898	26861
808.04	26686
808.182	26689
808.324	26765
808.465	26940
808.607	26880
808.749	27001
808.891	27138
809.033	27458
809.174	27192
809.316	27154
809.458	27013
809.6	27070
809.741	27211
809.883	27222
810.025	27359
810.166	27306
810.308	27466
810.45	27348
810.591	27287
810.733	27169
810.875	27199
811.016	27039
811.158	27051
811.299	27211
811.441	27367
811.582	27275
811.724	27184
811.865	26986
812.007	27142
812.148	27081
812.29	26910
812.431	27245
812.573	27389
812.714	27507
812.855	27545
812.997	27671
813.138	27766
813.279	27888
813.421	27622
813.562	27591
813.703	27332
813.845	27112
813.986	26994
814.127	26952
814.268	26773
814.41	26819
814.551	26735
814.692	26785
814.833	26678
814.974	26689
815.115	26773
815.256	26670
815.397	26629
815.539	26648
815.68	26682
815.821	26385
815.962	26617
816.103	26495
816.244	26343
816.385	26317
816.526	26453
816.666	26111
816.807	26035
816.948	26214
817.089	26092
817.23	26058
817.371	25970
817.512	26012
817.653	25989
817.793	25951
817.934	25887
818.075	26054
818.216	26005
818.356	25852
818.497	25833
818.638	25811
818.778	25822
818.919	25674
819.06	25818
819.2	25982
819.341	26035
819.481	26024
819.622	26161
819.762	26507
819.903	26214
820.043	26374
820.184	26062
820.324	26096
820.465	26240
820.605	26122
820.746	26149
820.886	25925
821.026	26206
821.167	26027
821.307	26081
821.447	25928
821.588	25993
821.728	25871
821.868	25594
822.008	25377
822.149	25426
822.289	25506
822.429	25282
822.569	25247
822.709	25103
822.849	24966
822.99	25057
823.13	25065
823.27	24977
823.41	24882
823.55	24658
823.69	24958
823.83	24939
823.97	24840
824.11	24642
824.25	24646
824.389	24639
824.529	24555
824.669	24620
824.809	24817
824.949	24802
825.089	24837
825.228	24669
825.368	24498
825.508	24429
825.648	24467
825.787	24532
825.927	24551
826.067	24319
826.206	24566
826.346	24616
826.485	24505
826.625	24532
826.765	24631
826.904	24612
827.044	24228
827.183	24384
827.323	24308
827.462	24220
827.601	24407
827.741	24426
827.88	24228
828.02	24254
828.159	24289
828.298	24270
828.437	24350
828.577	24163
828.716	24327
828.855	24174
828.994	23977
829.134	23878
829.273	24018
829.412	23942
829.551	23847
829.69	23824
829.829	23954
829.968	23965
830.107	23870
830.246	23866
830.385	23893
830.524	23878
830.663	23908
830.802	23733
830.941	23611
831.08	23509
831.219	23710
831.357	23592
831.496	23805
831.635	23516
831.774	23493
831.913	23406
832.051	23474
832.19	23258
832.329	23334
832.467	23185
832.606	23250
832.744	23216
832.883	23185
833.022	23189
833.16	23307
833.299	23193
833.437	23391
833.576	23280
833.714	23433
833.852	23181
833.991	23402
834.129	23349
834.267	23299
834.406	23326
834.544	23372
834.682	23326
834.821	23288
834.959	23463
835.097	23284
835.235	23337
835.373	23318
835.511	23296
835.65	23242
835.788	23174
835.926	23181
836.064	23071
836.202	22991
836.34	23223
836.478	23181
836.615	23083
836.753	23162
836.891	23200
837.029	23208
837.167	23136
837.305	23044
837.443	22953
837.58	23060
837.718	23003
837.856	22972
837.993	22980
838.131	23083
838.269	22717
838.406	22873
838.544	22839
838.681	22820
838.819	22588
838.956	22550
839.094	22470
839.231	22546
839.369	22599
839.506	22835
839.643	22706
839.781	22523
839.918	22390
840.055	22584
840.193	22508
840.33	22363
840.467	22504
840.604	22440
840.742	22645
840.879	22185
841.016	22318
841.153	22386
841.29	22527
841.427	22402
841.564	22516
841.701	22329
841.838	22322
841.975	22268
842.112	22386
842.249	22398
842.385	22188
842.522	22504
842.659	22223
842.796	22226
842.933	22150
843.069	22147
843.206	22150
843.343	22226
843.479	22143
843.616	22196
843.752	22070
843.889	21892
844.025	21998
844.162	21899
844.298	22078
844.435	22021
844.571	21915
844.708	21956
844.844	22048
844.98	22101
845.117	22055
845.253	21819
845.389	21842
845.525	21865
845.661	21842
845.798	21823
845.934	21713
846.07	21663
846.206	21671
846.342	21922
846.478	21641
846.614	21523
846.75	21351
846.886	21557
847.022	21568
847.158	21431
847.294	21466
847.429	21553
847.565	21378
847.701	21652
847.837	21173
847.972	21070
848.108	21188
848.244	21222
848.379	21032
848.515	21009
848.65	20887
848.786	20986
848.921	21043
849.057	21032
849.192	21127
849.328	21116
849.463	21013
849.598	20849
849.734	20967
849.869	20788
850.004	20792
850.14	20781
850.275	20849
850.41	20724
850.545	20606
850.68	20800
850.815	20785
850.95	20659
851.085	21039
851.22	20830
851.355	20731
851.49	20777
851.625	20724
851.76	20716
851.895	20617
852.03	20743
852.165	20731
852.299	20811
852.434	20990
852.569	20731
852.703	20781
852.838	20845
852.973	20975
853.107	20838
853.242	20731
853.376	20621
853.511	20495
853.645	20636
853.78	20731
853.914	20636
854.048	20564
854.183	20663
854.317	20636
854.451	20754
854.585	20644
854.72	20511
854.854	20716
854.988	20568
855.122	20598
855.256	20541
855.39	20537
855.524	20708
855.658	20613
855.792	20689
855.926	20609
856.06	20640
856.194	20663
856.327	20632
856.461	20484
856.595	20590
856.729	20587
856.862	20686
856.996	20632
857.13	20720
857.263	20750
857.397	20697
857.53	20629
857.664	20697
857.797	20606
857.931	20625
858.064	20530
858.197	20712
858.331	20629
858.464	20560
858.597	20503
858.731	20564
858.864	20495
858.997	20545
859.13	20587
859.263	20663
859.396	20705
859.529	20568
859.662	20461
859.795	20568
859.928	20511
860.061	20823
860.194	20788
860.327	20689
860.46	20568
860.592	20667
860.725	20830
860.858	20750
860.99	20598
861.123	20590
861.256	20575
861.388	20545
861.521	21245
861.653	20507
861.786	20305
861.918	20389
862.05	20484
862.183	20434
862.315	20602
862.447	20697
862.58	20640
862.712	20358
862.844	20305
862.976	20507
863.108	20457
863.24	20777
863.372	20240
863.504	20328
863.636	20313
863.768	20225
863.9	20286
864.032	20221
864.164	20199
864.296	20362
864.428	20313
864.559	20324
864.691	20476
864.823	20328
864.954	20400
865.086	20138
865.217	20195
865.349	20138
865.48	20294
865.612	20286
865.743	20328
865.875	20168
866.006	20145
866.137	20339
866.269	20221
866.4	20126
866.531	20206
866.662	20043
866.793	20069
866.924	20111
867.055	20180
867.186	20176
867.317	20043
867.448	20012
867.579	20195
867.71	20161
867.841	20001
867.972	20275
868.103	20119
868.233	20111
868.364	20130
868.495	20183
868.625	20355
868.756	20514
868.886	20301
869.017	20400
869.147	20522
869.278	20575
869.408	20393
869.539	20408
869.669	20427
869.799	20446
869.929	20423
870.06	20495
870.19	20682
870.32	20640
870.45	20804
870.58	20746
870.71	20800
870.84	20899
870.97	20769
871.1	20891
871.23	20925
871.36	21112
871.489	20857
871.619	21009
871.749	21005
871.879	20963
872.008	21116
872.138	21001
872.267	21001
872.397	20986
872.526	20842
872.656	20826
872.785	20838
872.915	21017
873.044	21119
873.173	21127
873.303	21070
873.432	21116
873.561	21161
873.69	20990
873.819	21028
873.948	21116
874.077	20883
874.206	21039
874.335	20986
874.464	21112
874.593	21233
874.722	21233
874.851	21310
874.979	21348
875.108	21226
875.237	21344
875.365	21188
875.494	21332
875.623	21363
875.751	21256
875.88	21416
876.008	21386
876.136	21378
876.265	21686
876.393	21759
876.521	21736
876.65	21713
876.778	21644
876.906	21595
877.034	21606
877.162	21610
877.29	21622
877.418	21614
877.546	21644
877.674	21614
877.802	21564
877.93	21618
878.058	21583
878.185	21561
878.313	21473
878.441	21545
878.568	21450
878.696	21408
878.824	21686
878.951	21724
879.079	21812
879.206	21926
879.333	21713
879.461	21583
879.588	21743
879.715	21766
879.842	21937
879.97	21705
880.097	21412
880.224	21523
880.351	21530
880.478	21557
880.605	21382
880.732	21466
880.859	21614
880.986	21325
881.112	21557
881.239	21344
881.366	21272
881.493	21169
881.619	20998
881.746	20979
881.872	21051
881.999	21005
882.125	20971
882.252	21131
882.378	21009
882.505	21214
882.631	20861
882.757	20648
882.883	20941
883.01	20800
883.136	20720
883.262	20541
883.388	20533
883.514	20735
883.64	20686
883.766	20674
883.892	20533
884.018	20545
884.143	20693
884.269	20750
884.395	20454
884.52	20355
884.646	20404
884.772	20415
884.897	20286
885.023	20446
885.148	20450
885.274	20648
885.399	20564
885.524	20412
885.65	20415
885.775	20469
885.9	20400
886.025	20484
886.15	20503
886.275	20309
886.4	20267
886.525	20377
886.65	20317
886.775	20263
886.9	20408
887.025	20590
887.149	20355
887.274	20313
887.399	20161
887.523	20145
887.648	20065
887.773	20062
887.897	20149
888.021	20176
888.146	19963
888.27	20176
888.395	20233
888.519	20149
888.643	20248
888.767	20221
888.891	20119
889.015	19940
889.139	20111
889.263	19921
889.387	20145
889.511	20168
889.635	20035
889.759	19989
889.883	19970
890.006	19936
890.13	20142
890.254	19909
890.377	19879
890.501	19696
890.624	19753
890.748	19731
890.871	19590
890.995	19468
891.118	19491
891.241	19548
891.364	19738
891.488	19601
891.611	19559
891.734	19609
891.857	19613
891.98	19540
892.103	19609
892.226	19620
892.349	19540
892.471	19293
892.594	19525
892.717	19544
892.839	19567
892.962	19578
893.085	19377
893.207	19495
893.33	19350
893.452	19373
893.575	19537
893.697	19491
893.819	19693
893.941	19628
894.064	19540
894.186	19343
894.308	19445
894.43	19575
894.552	19510
894.674	19445
894.796	19491
894.918	19346
895.04	19396
895.161	19620
895.283	19495
895.405	19301
895.526	19529
895.648	19430
895.769	19578
895.891	19518
896.012	19487
896.134	19445
896.255	19430
896.376	19457
896.498	19590
896.619	19491
896.74	19468
896.861	19628
896.982	19906
897.103	19906
897.224	19746
897.345	19715
897.466	19628
897.587	19696
897.708	19982
897.828	19734
897.949	19586
898.07	19586
898.19	19658
898.311	19746
898.431	19632
898.552	19700
898.672	19818
898.792	19799
898.913	19578
899.033	19586
899.153	19411
899.273	19468
899.393	19521
899.513	19533
899.633	19388
899.753	19483
899.873	19384
899.993	19499
900.113	19464
900.232	19460
900.352	19358
900.472	19236
900.591	19168
900.711	19297
900.83	19133
900.95	19373
901.069	19358
901.189	19114
901.308	18905
901.427	18734
901.546	18753
901.665	18814
901.784	18939
901.904	18734
902.023	18627
902.141	18479
902.26	18266
902.379	18410
902.498	18384
902.617	18384
902.735	18346
902.854	18311
902.973	18323
903.091	18034
903.21	18034
903.328	18098
903.446	17908
903.565	17927
903.683	17973
903.801	17646
903.919	17836
904.038	17752
904.156	17657
904.274	17741
904.392	17668
904.51	17687
904.627	17490
904.745	17695
904.863	17653
904.981	17406
905.098	17356
905.216	17318
905.334	17273
905.451	17212
905.569	17303
905.686	17280
905.803	17189
905.921	17147
906.038	17189
906.155	17083
906.272	16930
906.389	17067
906.506	16831
906.623	16839
906.74	16835
906.857	16706
906.974	16790
907.091	16889
907.208	16930
907.324	16797
907.441	16702
907.557	16546
907.674	16588
907.79	16535
907.907	16516
908.023	16497
908.139	16535
908.256	16558
908.372	16474
908.488	16478
908.604	16386
908.72	16226
908.836	16337
908.952	16188
909.068	16291
909.184	16348
909.3	16238
909.415	16261
909.531	16276
909.647	16074
909.762	16055
909.878	16021
909.993	15968
910.108	15934
910.224	15918
910.339	15876
910.454	15907
910.57	15800
910.685	15759
910.8	16093
910.915	15960
911.03	15846
911.145	15641
911.259	15633
911.374	15644
911.489	15549
911.604	15466
911.718	15313
911.833	15340
911.947	15279
912.062	15321
912.176	15283
912.291	15428
912.405	15507
912.519	15595
912.633	15576
912.748	15386
912.862	15431
912.976	15188
913.09	15058
913.204	15093
913.318	15157
913.431	15291
913.545	15188
913.659	15279
913.772	15245
913.886	14998
914	14963
914.113	15104
914.226	15085
914.34	15058
914.453	14971
914.566	14902
914.68	14887
914.793	14823
914.906	14708
915.019	14625
915.132	14450
915.245	14636
915.358	14571
915.47	14590
915.583	14617
915.696	14708
915.809	14655
915.921	14686
916.034	14575
916.146	14446
916.259	14522
916.371	14655
916.483	14560
916.595	14408
916.708	14514
916.82	14423
916.932	14374
917.044	14404
917.156	14427
917.268	14248
917.38	14339
917.491	14305
917.603	14233
917.715	14332
917.826	14362
917.938	14153
918.049	14202
918.161	14229
918.272	14347
918.384	14305
918.495	14267
918.606	14065
918.717	13909
918.828	14107
918.939	14046
919.05	13970
919.161	13951
919.272	13761
919.383	13894
919.494	14035
919.604	14153
919.715	13947
919.826	13906
919.936	13925
920.047	14142
920.157	13959
920.267	14183
920.378	14081
920.488	13955
920.598	14301
920.708	14347
920.818	14100
920.928	14096
921.038	14298
921.148	14282
921.258	14005
921.368	13845
921.477	13780
921.587	13746
921.697	13636
921.806	13856
921.916	13552
922.025	13464
922.134	13449
922.244	13339
922.353	13472
922.462	13327
922.571	13251
922.68	13046
922.789	13164
922.898	13027
923.007	13053
923.116	13080
923.224	13099
923.333	12958
923.442	12939
923.55	12859
923.659	12954
923.767	12993
923.876	12783
923.984	12913
924.092	12798
924.201	12741
924.309	12878
924.417	12757
924.525	12650
924.633	12719
924.741	13658
924.849	12509
924.956	12757
925.064	12532
925.172	12490
925.279	12376
925.387	12456
925.494	12479
925.602	12555
925.709	12601
925.816	12471
925.924	12490
926.031	12521
926.138	12498
926.245	12475
926.352	12300
926.459	12452
926.566	12555
926.673	12452
926.779	12308
926.886	12254
926.993	12022
927.099	12076
927.206	12114
927.312	12049
927.419	12152
927.525	12098
927.631	12125
927.737	11965
927.843	11969
927.95	11851
928.056	11920
928.162	11965
928.267	11923
928.373	12475
928.479	11939
928.585	11741
928.69	11882
928.796	11950
928.901	11790
929.007	11562
929.112	11813
929.218	11710
929.323	11710
929.428	11638
929.533	11783
929.638	11608
929.743	11573
929.848	11684
929.953	11585
930.058	11455
930.163	11330
930.267	11345
930.372	11448
930.477	11296
930.581	11501
930.685	11398
930.79	11204
930.894	11254
930.998	11174
931.103	11303
931.207	11117
931.311	10961
931.415	10809
931.519	10660
931.623	10538
