Data from test_V78500241_2923.txt Node
Date: Fri Mar 25 15:30:12 CST 2022
User: usil
Spectrometer: V785-0024
Trigger mode: 0
Integration Time (sec): 4.000000E-1
Scans to average: 1
Nonlinearity correction enabled: false
Boxcar width: 0
Storing dark spectrum: false
XAxis mode: Wavelengths
Number of Pixels in Spectrum: 1024
>>>>>Begin Spectral Data<<<<<
801.071	27294
801.214	27264
801.356	27093
801.499	26895
801.641	26918
801.783	26872
801.926	26811
802.068	26921
802.211	26682
802.353	26606
802.496	26594
802.638	26556
802.78	26400
802.923	26282
803.065	26320
803.208	26298
803.35	26495
803.492	26571
803.635	26568
803.777	26511
803.919	26807
804.061	26948
804.204	26743
804.346	26530
804.488	26571
804.63	26590
804.773	26476
804.915	26640
805.057	26705
805.199	26446
805.341	26571
805.483	26758
805.626	26705
805.768	26606
805.91	26739
806.052	26819
806.194	26564
806.336	26910
806.478	26785
806.62	26552
806.762	26914
806.904	26868
807.046	27420
807.188	27184
807.33	27245
807.472	27176
807.614	27066
807.756	27096
807.898	26910
808.04	26956
808.182	26891
808.324	27028
808.465	27005
808.607	27192
808.749	27176
808.891	27416
809.033	27523
809.174	27656
809.316	27340
809.458	27393
809.6	27294
809.741	27412
809.883	27424
810.025	27652
810.166	27580
810.308	27644
810.45	27553
810.591	27572
810.733	27249
810.875	27469
811.016	27165
811.158	27389
811.299	27340
811.441	27473
811.582	27545
811.724	27249
811.865	27222
812.007	27336
812.148	27348
812.29	27340
812.431	27462
812.573	27534
812.714	27679
812.855	27873
812.997	27804
813.138	28040
813.279	27960
813.421	27854
813.562	27728
813.703	27663
813.845	27553
813.986	27336
814.127	27161
814.268	27043
814.41	26994
814.551	26880
814.692	26944
814.833	26895
814.974	26971
815.115	27001
815.256	26883
815.397	26792
815.539	26819
815.68	26796
815.821	26670
815.962	26796
816.103	26606
816.244	26674
816.385	26431
816.526	26507
816.666	26313
816.807	26195
816.948	26240
817.089	26339
817.23	26431
817.371	26183
817.512	26202
817.653	26210
817.793	26157
817.934	26225
818.075	26206
818.216	26275
818.356	26294
818.497	26149
818.638	25947
818.778	25966
818.919	25986
819.06	26100
819.2	25947
819.341	26199
819.481	26237
819.622	26320
819.762	26663
819.903	26621
820.043	26465
820.184	26305
820.324	26218
820.465	26473
820.605	26400
820.746	26263
820.886	26252
821.026	26199
821.167	26343
821.307	26427
821.447	26122
821.588	26054
821.728	25966
821.868	25849
822.008	25727
822.149	25556
822.289	25776
822.429	25434
822.569	25377
822.709	25384
822.849	25202
822.99	25152
823.13	25221
823.27	25110
823.41	25023
823.55	24779
823.69	24943
823.83	25008
823.97	24966
824.11	24753
824.25	24791
824.389	24859
824.529	24875
824.669	24814
824.809	24890
824.949	24806
825.089	24867
825.228	24856
825.368	24597
825.508	24703
825.648	24791
825.787	24753
825.927	24703
826.067	24635
826.206	24692
826.346	24696
826.485	24833
826.625	24684
826.765	24764
826.904	24795
827.044	24559
827.183	24517
827.323	24460
827.462	24608
827.601	24353
827.741	24563
827.88	24350
828.02	24243
828.159	24213
828.298	24311
828.437	24460
828.577	24308
828.716	24483
828.855	24258
828.994	24049
829.134	24095
829.273	24182
829.412	24049
829.551	24015
829.69	24015
829.829	24136
829.968	24129
830.107	24087
830.246	24194
830.385	24068
830.524	23912
830.663	23984
830.802	23783
830.941	23703
831.08	23592
831.219	23828
831.357	23741
831.496	23863
831.635	23764
831.774	23596
831.913	23539
832.051	23486
832.19	23353
832.329	23433
832.467	23421
832.606	23353
832.744	23311
832.883	23360
833.022	23296
833.16	23448
833.299	23429
833.437	23383
833.576	23433
833.714	23429
833.852	23535
833.991	23478
834.129	23414
834.267	23512
834.406	23524
834.544	23421
834.682	23414
834.821	23406
834.959	23653
835.097	23356
835.235	23531
835.373	23410
835.511	23391
835.65	23208
835.788	23166
835.926	23220
836.064	22991
836.202	23124
836.34	23204
836.478	23296
836.615	23330
836.753	23307
836.891	23273
837.029	23113
837.167	23265
837.305	23140
837.443	23124
837.58	23090
837.718	23136
837.856	23064
837.993	23083
838.131	23098
838.269	23083
838.406	22972
838.544	22801
838.681	22771
838.819	22759
838.956	22630
839.094	22618
839.231	22599
839.369	22702
839.506	22946
839.643	22679
839.781	22607
839.918	22474
840.055	22500
840.193	22497
840.33	22485
840.467	22516
840.604	22466
840.742	22771
840.879	22424
841.016	22508
841.153	22310
841.29	22561
841.427	22580
841.564	22516
841.701	22405
841.838	22379
841.975	22447
842.112	22451
842.249	22329
842.385	22234
842.522	22523
842.659	22413
842.796	22242
842.933	22272
843.069	22257
843.206	22234
843.343	22268
843.479	22276
843.616	22280
843.752	21972
843.889	22101
844.025	22192
844.162	22021
844.298	22181
844.435	22017
844.571	21884
844.708	22036
844.844	22173
844.98	22150
845.117	22097
845.253	21850
845.389	21994
845.525	21915
845.661	21850
845.798	21930
845.934	21770
846.07	21705
846.206	21793
846.342	21835
846.478	21759
846.614	21599
846.75	21458
846.886	21504
847.022	21622
847.158	21572
847.294	21561
847.429	21576
847.565	21450
847.701	21766
847.837	21256
847.972	21180
848.108	21332
848.244	21321
848.379	21070
848.515	21195
848.65	21013
848.786	21119
848.921	21135
849.057	21222
849.192	21203
849.328	21272
849.463	20986
849.598	20956
849.734	21020
849.869	20887
850.004	20906
850.14	20921
850.275	20880
850.41	20823
850.545	20826
850.68	20853
850.815	20857
850.95	20807
851.085	21043
851.22	21001
851.355	20929
851.49	20838
851.625	20864
851.76	20967
851.895	20857
852.03	20705
852.165	20826
852.299	20918
852.434	21005
852.569	20826
852.703	20811
852.838	20883
852.973	20994
853.107	20994
853.242	20754
853.376	20712
853.511	20518
853.645	20613
853.78	20716
853.914	20636
854.048	20575
854.183	20754
854.317	20678
854.451	20941
854.585	20594
854.72	20594
854.854	20727
854.988	20625
855.122	20716
855.256	20568
855.39	20575
855.524	20800
855.658	20682
855.792	20678
855.926	20724
856.06	20583
856.194	20788
856.327	20629
856.461	20701
856.595	20629
856.729	20568
856.862	20727
856.996	20697
857.13	20750
857.263	20823
857.397	20834
857.53	20701
857.664	20754
857.797	20663
857.931	20727
858.064	20648
858.197	20750
858.331	20731
858.464	20606
858.597	20507
858.731	20678
858.864	20689
858.997	20598
859.13	20830
859.263	20648
859.396	20750
859.529	20754
859.662	20746
859.795	20632
859.928	20689
860.061	20891
860.194	20857
860.327	20769
860.46	20754
860.592	20811
860.725	20861
860.858	20785
860.99	20613
861.123	20651
861.256	20575
861.388	20583
861.521	21367
861.653	20644
861.786	20446
861.918	20522
862.05	20579
862.183	20636
862.315	20617
862.447	20667
862.58	20590
862.712	20442
862.844	20278
862.976	20484
863.108	20336
863.24	20883
863.372	20385
863.504	20404
863.636	20377
863.768	20415
863.9	20366
864.032	20339
864.164	20336
864.296	20408
864.428	20469
864.559	20377
864.691	20499
864.823	20396
864.954	20396
865.086	20275
865.217	20358
865.349	20256
865.48	20187
865.612	20317
865.743	20488
865.875	20252
866.006	20221
866.137	20252
866.269	20419
866.4	20286
866.531	20164
866.662	20240
866.793	20199
866.924	20244
867.055	20282
867.186	20301
867.317	20157
867.448	20161
867.579	20278
867.71	20172
867.841	20218
867.972	20336
868.103	20263
868.233	20301
868.364	20180
868.495	20313
868.625	20530
868.756	20583
868.886	20385
869.017	20377
869.147	20587
869.278	20617
869.408	20476
869.539	20476
869.669	20560
869.799	20434
869.929	20609
870.06	20579
870.19	20785
870.32	20777
870.45	20899
870.58	20902
870.71	20960
870.84	21013
870.97	20971
871.1	20883
871.23	21123
871.36	21005
871.489	20914
871.619	21051
871.749	21032
871.879	21233
872.008	21192
872.138	20990
872.267	21028
872.397	21074
872.526	20830
872.656	20944
872.785	20975
872.915	21211
873.044	21169
873.173	21058
873.303	21192
873.432	21203
873.561	21214
873.69	21161
873.819	21070
873.948	21173
874.077	21222
874.206	21013
874.335	21066
874.464	21249
874.593	21477
874.722	21321
874.851	21431
874.979	21485
875.108	21378
875.237	21359
875.365	21165
875.494	21344
875.623	21462
875.751	21310
875.88	21393
876.008	21557
876.136	21485
876.265	21667
876.393	21903
876.521	21804
876.65	21755
876.778	21618
876.906	21644
877.034	21671
877.162	21660
877.29	21587
877.418	21816
877.546	21610
877.674	21812
877.802	21614
877.93	21759
878.058	21690
878.185	21606
878.313	21713
878.441	21679
878.568	21538
878.696	21663
878.824	21568
878.951	21755
879.079	21869
879.206	21842
879.333	21793
879.461	21808
879.588	21895
879.715	21876
879.842	22067
879.97	21709
880.097	21431
880.224	21572
880.351	21534
880.478	21603
880.605	21549
880.732	21595
880.859	21785
880.986	21523
881.112	21515
881.239	21500
881.366	21272
881.493	21184
881.619	21116
881.746	21165
881.872	21116
881.999	21081
882.125	21047
882.252	21081
882.378	20998
882.505	21283
882.631	20944
882.757	20933
882.883	20902
883.01	20800
883.136	20739
883.262	20720
883.388	20575
883.514	20788
883.64	20902
883.766	20716
883.892	20701
884.018	20621
884.143	20819
884.269	20880
884.395	20602
884.52	20469
884.646	20480
884.772	20408
884.897	20336
885.023	20526
885.148	20575
885.274	20575
885.399	20598
885.524	20530
885.65	20343
885.775	20476
885.9	20362
886.025	20488
886.15	20473
886.275	20317
886.4	20370
886.525	20495
886.65	20278
886.775	20347
886.9	20556
887.025	20682
887.149	20587
887.274	20210
887.399	20202
887.523	20282
887.648	20214
887.773	20233
887.897	20267
888.021	20366
888.146	20210
888.27	20362
888.395	20469
888.519	20202
888.643	20233
888.767	20275
888.891	20111
889.015	20062
889.139	20149
889.263	19963
889.387	20206
889.511	20069
889.635	20145
889.759	19982
889.883	19986
890.006	20096
890.13	20153
890.254	19955
890.377	19944
890.501	19769
890.624	19727
890.748	19803
890.871	19780
890.995	19635
891.118	19487
891.241	19700
891.364	19750
891.488	19818
891.611	19582
891.734	19647
891.857	19670
891.98	19567
892.103	19628
892.226	19632
892.349	19434
892.471	19510
892.594	19533
892.717	19540
892.839	19567
892.962	19689
893.085	19620
893.207	19495
893.33	19449
893.452	19396
893.575	19575
893.697	19567
893.819	19674
893.941	19658
894.064	19666
894.186	19548
894.308	19304
894.43	19487
894.552	19666
894.674	19727
894.796	19304
894.918	19586
895.04	19464
895.161	19655
895.283	19548
895.405	19491
895.526	19666
895.648	19449
895.769	19586
895.891	19537
896.012	19594
896.134	19635
896.255	19563
896.376	19480
896.498	19578
896.619	19624
896.74	19506
896.861	19514
896.982	19917
897.103	20046
897.224	19860
897.345	19791
897.466	19662
897.587	19807
897.708	19765
897.828	19689
897.949	19776
898.07	19689
898.19	19719
898.311	19795
898.431	19742
898.552	19731
898.672	19753
898.792	19944
898.913	19738
899.033	19658
899.153	19689
899.273	19434
899.393	19590
899.513	19533
899.633	19597
899.753	19628
899.873	19628
899.993	19567
900.113	19518
900.232	19556
900.352	19472
900.472	19441
900.591	19331
900.711	19301
900.83	19221
900.95	19430
901.069	19419
901.189	19228
901.308	19023
901.427	18913
901.546	18920
901.665	18928
901.784	18993
901.904	18779
902.023	18681
902.141	18547
902.26	18456
902.379	18551
902.498	18429
902.617	18418
902.735	18464
902.854	18414
902.973	18308
903.091	18186
903.21	18125
903.328	18159
903.446	17980
903.565	17878
903.683	17874
903.801	17828
903.919	17794
904.038	17870
904.156	17802
904.274	17771
904.392	17665
904.51	17680
904.627	17699
904.745	17623
904.863	17748
904.981	17535
905.098	17383
905.216	17463
905.334	17311
905.451	17315
905.569	17467
905.686	17406
905.803	17277
905.921	17204
906.038	17261
906.155	17200
906.272	16999
906.389	17090
906.506	16972
906.623	16972
906.74	16839
906.857	16645
906.974	16805
907.091	16957
907.208	17060
907.324	16987
907.441	16786
907.557	16736
907.674	16599
907.79	16561
907.907	16573
908.023	16664
908.139	16580
908.256	16607
908.372	16481
908.488	16516
908.604	16386
908.72	16261
908.836	16451
908.952	16276
909.068	16333
909.184	16409
909.3	16348
909.415	16421
909.531	16417
909.647	16032
909.762	16143
909.878	15998
909.993	16013
910.108	16013
910.224	16025
910.339	16109
910.454	15918
910.57	15895
910.685	15816
910.8	16128
910.915	15934
911.03	15907
911.145	15717
911.259	15656
911.374	15679
911.489	15549
911.604	15507
911.718	15439
911.833	15477
911.947	15332
912.062	15363
912.176	15485
912.291	15420
912.405	15492
912.519	15663
912.633	15648
912.748	15462
912.862	15351
912.976	15169
913.09	15089
913.204	15199
913.318	15165
913.431	15256
913.545	15252
913.659	15336
913.772	15146
913.886	15104
914	14975
914.113	15135
914.226	15245
914.34	15127
914.453	14975
914.566	14975
914.68	14963
914.793	14899
914.906	14693
915.019	14636
915.132	14583
915.245	14518
915.358	14701
915.47	14697
915.583	14670
915.696	14727
915.809	14727
915.921	14731
916.034	14560
916.146	14537
916.259	14556
916.371	14693
916.483	14701
916.595	14465
916.708	14476
916.82	14495
916.932	14396
917.044	14465
917.156	14438
917.268	14278
917.38	14408
917.491	14221
917.603	14313
917.715	14374
917.826	14469
917.938	14298
918.049	14244
918.161	14256
918.272	14442
918.384	14339
918.495	14332
918.606	14206
918.717	14107
918.828	14134
918.939	14130
919.05	14005
919.161	13993
919.272	13887
919.383	13883
919.494	14107
919.604	14248
919.715	14145
919.826	13997
919.936	14050
920.047	14130
920.157	14035
920.267	14290
920.378	14187
920.488	13940
920.598	14214
920.708	14313
920.818	14202
920.928	14263
921.038	14374
921.148	14343
921.258	14012
921.368	13913
921.477	13944
921.587	13864
921.697	13704
921.806	13784
921.916	13563
922.025	13582
922.134	13434
922.244	13449
922.353	13453
922.462	13354
922.571	13324
922.68	13251
922.789	13160
922.898	13091
923.007	13023
923.116	13171
923.224	13122
923.333	13099
923.442	12962
923.55	12932
923.659	12977
923.767	13023
923.876	12943
923.984	12935
924.092	12924
924.201	12875
924.309	12924
924.417	12935
924.525	12722
924.633	12825
924.741	13700
924.849	12559
924.956	12753
925.064	12601
925.172	12452
925.279	12532
925.387	12525
925.494	12608
925.602	12650
925.709	12631
925.816	12486
925.924	12483
926.031	12555
926.138	12654
926.245	12574
926.352	12334
926.459	12509
926.566	12452
926.673	12418
926.779	12342
926.886	12262
926.993	12201
927.099	12216
927.206	12167
927.312	11958
927.419	12266
927.525	12110
927.631	12125
927.737	12049
927.843	12045
927.95	11821
928.056	11961
928.162	11965
928.267	12045
928.373	12673
928.479	11965
928.585	11878
928.69	11885
928.796	11977
928.901	11824
929.007	11653
929.112	11771
929.218	11847
929.323	11767
929.428	11691
929.533	11767
929.638	11570
929.743	11707
929.848	11596
929.953	11585
930.058	11638
930.163	11353
930.267	11471
930.372	11585
930.477	11318
930.581	11592
930.685	11417
930.79	11284
930.894	11395
930.998	11299
931.103	11406
931.207	11102
931.311	10854
931.415	10908
931.519	10683
931.623	10653
