Data from test_V78500241_1994.txt Node
Date: Fri Mar 25 15:23:44 CST 2022
User: usil
Spectrometer: V785-0024
Trigger mode: 0
Integration Time (sec): 4.000000E-1
Scans to average: 1
Nonlinearity correction enabled: false
Boxcar width: 0
Storing dark spectrum: false
XAxis mode: Wavelengths
Number of Pixels in Spectrum: 1024
>>>>>Begin Spectral Data<<<<<
801.071	27876
801.214	27705
801.356	27618
801.499	27549
801.641	27488
801.783	27344
801.926	27538
802.068	27515
802.211	27279
802.353	27317
802.496	27184
802.638	27043
802.78	26963
802.923	26864
803.065	26967
803.208	27089
803.35	27074
803.492	27226
803.635	27199
803.777	27199
803.919	27176
804.061	27572
804.204	27367
804.346	27237
804.488	27173
804.63	27226
804.773	27207
804.915	27249
805.057	27306
805.199	27298
805.341	27424
805.483	27374
805.626	27416
805.768	27241
805.91	27427
806.052	27504
806.194	27310
806.336	27549
806.478	27321
806.62	27374
806.762	27614
806.904	27698
807.046	27907
807.188	27812
807.33	27941
807.472	27880
807.614	27739
807.756	27751
807.898	27804
808.04	27557
808.182	27561
808.324	27614
808.465	27793
808.607	27911
808.749	27998
808.891	28120
809.033	28112
809.174	27956
809.316	28032
809.458	27941
809.6	27934
809.741	28185
809.883	28101
810.025	28401
810.166	28280
810.308	28257
810.45	28329
810.591	28268
810.733	28059
810.875	27953
811.016	27914
811.158	27800
811.299	27937
811.441	28120
811.582	28158
811.724	27968
811.865	28063
812.007	27945
812.148	27899
812.29	28013
812.431	28135
812.573	28367
812.714	28398
812.855	28500
812.997	28637
813.138	28687
813.279	28599
813.421	28691
813.562	28588
813.703	28185
813.845	28215
813.986	27789
814.127	27812
814.268	27842
814.41	27713
814.551	27629
814.692	27709
814.833	27724
814.974	27633
815.115	27656
815.256	27736
815.397	27644
815.539	27576
815.68	27576
815.821	27496
815.962	27473
816.103	27424
816.244	27336
816.385	27264
816.526	27351
816.666	27036
816.807	27058
816.948	27142
817.089	27169
817.23	27104
817.371	26925
817.512	26899
817.653	26937
817.793	26960
817.934	26960
818.075	27024
818.216	26963
818.356	27005
818.497	26925
818.638	26788
818.778	26891
818.919	26670
819.06	26845
819.2	26940
819.341	26971
819.481	26979
819.622	27058
819.762	27237
819.903	27302
820.043	27161
820.184	27104
820.324	27077
820.465	27207
820.605	27032
820.746	27142
820.886	26880
821.026	27104
821.167	27112
821.307	27020
821.447	26979
821.588	27028
821.728	26697
821.868	26651
822.008	26682
822.149	26526
822.289	26518
822.429	26126
822.569	26153
822.709	26317
822.849	26020
822.99	26153
823.13	25982
823.27	25928
823.41	25818
823.55	25609
823.69	25860
823.83	25791
823.97	25700
824.11	25578
824.25	25525
824.389	25693
824.529	25616
824.669	25609
824.809	25719
824.949	25696
825.089	25715
825.228	25738
825.368	25483
825.508	25419
825.648	25426
825.787	25487
825.927	25457
826.067	25457
826.206	25430
826.346	25457
826.485	25601
826.625	25457
826.765	25495
826.904	25635
827.044	25285
827.183	25194
827.323	25213
827.462	25148
827.601	25236
827.741	25213
827.88	25209
828.02	24977
828.159	25160
828.298	25247
828.437	25289
828.577	25221
828.716	25449
828.855	25213
828.994	24867
829.134	24909
829.273	25107
829.412	24852
829.551	24787
829.69	24856
829.829	24939
829.968	25050
830.107	25019
830.246	24913
830.385	24837
830.524	24722
830.663	24745
830.802	24597
830.941	24555
831.08	24494
831.219	24722
831.357	24612
831.496	24806
831.635	24353
831.774	24479
831.913	24403
832.051	24266
832.19	24327
832.329	24334
832.467	24194
832.606	24216
832.744	24106
832.883	24289
833.022	24140
833.16	24171
833.299	24254
833.437	24197
833.576	24315
833.714	24129
833.852	24296
833.991	24323
834.129	24353
834.267	24384
834.406	24243
834.544	24300
834.682	24296
834.821	24251
834.959	24471
835.097	24209
835.235	24365
835.373	24243
835.511	24258
835.65	24098
835.788	24311
835.926	24038
836.064	23908
836.202	23809
836.34	24140
836.478	24232
836.615	24247
836.753	24095
836.891	24186
837.029	24235
837.167	24041
837.305	24015
837.443	23992
837.58	23878
837.718	23942
837.856	23992
837.993	23836
838.131	23904
838.269	23779
838.406	23874
838.544	23760
838.681	23539
838.819	23516
838.956	23486
839.094	23368
839.231	23455
839.369	23482
839.506	23851
839.643	23596
839.781	23455
839.918	23307
840.055	23531
840.193	23383
840.33	23303
840.467	23220
840.604	23356
840.742	23592
840.879	23193
841.016	23132
841.153	23277
841.29	23486
841.427	23269
841.564	23478
841.701	23406
841.838	23318
841.975	23242
842.112	23254
842.249	23147
842.385	22987
842.522	23227
842.659	23140
842.796	23056
842.933	23056
843.069	23022
843.206	22949
843.343	23185
843.479	23162
843.616	23136
843.752	22752
843.889	22900
844.025	22889
844.162	22835
844.298	23010
844.435	22820
844.571	22835
844.708	22968
844.844	23029
844.98	23064
845.117	23052
845.253	22740
845.389	22774
845.525	22721
845.661	22759
845.798	22592
845.934	22698
846.07	22474
846.206	22710
846.342	22862
846.478	22504
846.614	22405
846.75	22268
846.886	22489
847.022	22375
847.158	22394
847.294	22325
847.429	22398
847.565	22253
847.701	22577
847.837	21994
847.972	21941
848.108	22074
848.244	22185
848.379	21991
848.515	21926
848.65	21945
848.786	21880
848.921	22002
849.057	22040
849.192	22017
849.328	21930
849.463	21857
849.598	21812
849.734	21823
849.869	21804
850.004	21530
850.14	21778
850.275	21724
850.41	21732
850.545	21724
850.68	21743
850.815	21701
850.95	21797
851.085	21907
851.22	21785
851.355	21789
851.49	21542
851.625	21701
851.76	21663
851.895	21694
852.03	21671
852.165	21625
852.299	21816
852.434	21785
852.569	21762
852.703	21869
852.838	21819
852.973	21884
853.107	21892
853.242	21660
853.376	21583
853.511	21431
853.645	21389
853.78	21549
853.914	21545
854.048	21526
854.183	21500
854.317	21557
854.451	21698
854.585	21587
854.72	21496
854.854	21618
854.988	21447
855.122	21557
855.256	21428
855.39	21530
855.524	21580
855.658	21671
855.792	21545
855.926	21663
856.06	21553
856.194	21603
856.327	21435
856.461	21397
856.595	21542
856.729	21553
856.862	21679
856.996	21553
857.13	21481
857.263	21698
857.397	21656
857.53	21408
857.664	21603
857.797	21553
857.931	21599
858.064	21526
858.197	21717
858.331	21500
858.464	21485
858.597	21481
858.731	21454
858.864	21469
858.997	21561
859.13	21485
859.263	21500
859.396	21641
859.529	21504
859.662	21378
859.795	21542
859.928	21595
860.061	21682
860.194	21713
860.327	21660
860.46	21545
860.592	21698
860.725	21663
860.858	21660
860.99	21629
861.123	21443
861.256	21481
861.388	21485
861.521	22299
861.653	21408
861.786	21249
861.918	21348
862.05	21325
862.183	21416
862.315	21454
862.447	21530
862.58	21462
862.712	21340
862.844	21150
862.976	21393
863.108	21416
863.24	21739
863.372	21264
863.504	21199
863.636	21199
863.768	21287
863.9	21302
864.032	21245
864.164	21123
864.296	21252
864.428	21279
864.559	21329
864.691	21252
864.823	21203
864.954	21218
865.086	21218
865.217	21116
865.349	21024
865.48	21161
865.612	20998
865.743	21214
865.875	21070
866.006	20982
866.137	21150
866.269	21218
866.4	21180
866.531	21135
866.662	20956
866.793	21066
866.924	21009
867.055	21047
867.186	21142
867.317	21100
867.448	21024
867.579	21089
867.71	20906
867.841	21036
867.972	21070
868.103	21017
868.233	21066
868.364	21066
868.495	21058
868.625	21264
868.756	21329
868.886	21237
869.017	21260
869.147	21355
869.278	21481
869.408	21283
869.539	21355
869.669	21283
869.799	21416
869.929	21431
870.06	21344
870.19	21595
870.32	21587
870.45	21526
870.58	21724
870.71	21739
870.84	21770
870.97	21713
871.1	21774
871.23	21838
871.36	21762
871.489	21842
871.619	21899
871.749	21922
871.879	21987
872.008	22070
872.138	21789
872.267	21827
872.397	21690
872.526	21663
872.656	21747
872.785	21789
872.915	21869
873.044	22078
873.173	21979
873.303	21926
873.432	22029
873.561	21998
873.69	21956
873.819	21975
873.948	22082
874.077	21903
874.206	21930
874.335	21934
874.464	22044
874.593	22162
874.722	22063
874.851	22086
874.979	22147
875.108	22128
875.237	22147
875.365	22063
875.494	22128
875.623	22200
875.751	22093
875.88	22101
876.008	22207
876.136	22348
876.265	22504
876.393	22729
876.521	22523
876.65	22615
876.778	22508
876.906	22527
877.034	22512
877.162	22626
877.29	22462
877.418	22508
877.546	22531
877.674	22470
877.802	22405
877.93	22428
878.058	22447
878.185	22333
878.313	22379
878.441	22363
878.568	22318
878.696	22462
878.824	22470
878.951	22531
879.079	22752
879.206	22721
879.333	22664
879.461	22497
879.588	22634
879.715	22607
879.842	22645
879.97	22573
880.097	22249
880.224	22344
880.351	22299
880.478	22363
880.605	22318
880.732	22322
880.859	22531
880.986	22371
881.112	22230
881.239	22158
881.366	22116
881.493	21983
881.619	21819
881.746	21918
881.872	21903
881.999	21934
882.125	21994
882.252	21770
882.378	21953
882.505	21968
882.631	21728
882.757	21580
882.883	21652
883.01	21652
883.136	21591
883.262	21561
883.388	21393
883.514	21682
883.64	21561
883.766	21473
883.892	21348
884.018	21416
884.143	21447
884.269	21610
884.395	21264
884.52	21157
884.646	21203
884.772	21119
884.897	21154
885.023	21207
885.148	21268
885.274	21412
885.399	21367
885.524	21188
885.65	21310
885.775	21256
885.9	21260
886.025	21302
886.15	21203
886.275	21127
886.4	21070
886.525	21119
886.65	21199
886.775	21039
886.9	21218
887.025	21294
887.149	21188
887.274	20941
887.399	20948
887.523	20880
887.648	21020
887.773	20891
887.897	20990
888.021	21043
888.146	20967
888.27	21112
888.395	21074
888.519	20941
888.643	20864
888.767	21135
888.891	20834
889.015	20906
889.139	20842
889.263	20727
889.387	20918
889.511	21032
889.635	20906
889.759	20667
889.883	20716
890.006	20941
890.13	20773
890.254	20697
890.377	20689
890.501	20503
890.624	20393
890.748	20651
890.871	20442
890.995	20492
891.118	20252
891.241	20355
891.364	20214
891.488	20473
891.611	20339
891.734	20332
891.857	20347
891.98	20412
892.103	20396
892.226	20305
892.349	20244
892.471	20134
892.594	20317
892.717	20263
892.839	20096
892.962	20221
893.085	20290
893.207	20248
893.33	20130
893.452	20111
893.575	20244
893.697	20218
893.819	20438
893.941	20400
894.064	20374
894.186	20275
894.308	20229
894.43	20256
894.552	20355
894.674	20377
894.796	20115
894.918	20176
895.04	20157
895.161	20263
895.283	20332
895.405	20012
895.526	20278
895.648	20210
895.769	20320
895.891	20233
896.012	20225
896.134	20339
896.255	20317
896.376	20240
896.498	20256
896.619	20366
896.74	20305
896.861	20210
896.982	20549
897.103	20682
897.224	20492
897.345	20412
897.466	20442
897.587	20423
897.708	20568
897.828	20400
897.949	20358
898.07	20377
898.19	20431
898.311	20450
898.431	20286
898.552	20427
898.672	20564
898.792	20499
898.913	20488
899.033	20412
899.153	20278
899.273	20107
899.393	20103
899.513	20229
899.633	20145
899.753	20237
899.873	20119
899.993	20244
900.113	20142
900.232	20077
900.352	20122
900.472	19959
900.591	19959
900.711	20031
900.83	19974
900.95	20100
901.069	20096
901.189	19791
901.308	19651
901.427	19643
901.546	19476
901.665	19586
901.784	19510
901.904	19495
902.023	19350
902.141	19103
902.26	19057
902.379	19099
902.498	19179
902.617	19008
902.735	19122
902.854	19061
902.973	18932
903.091	18852
903.21	18665
903.328	18764
903.446	18616
903.565	18616
903.683	18593
903.801	18422
903.919	18536
904.038	18433
904.156	18376
904.274	18391
904.392	18285
904.51	18357
904.627	18155
904.745	18346
904.863	18384
904.981	18060
905.098	18019
905.216	18026
905.334	18068
905.451	17927
905.569	17973
905.686	18060
905.803	17916
905.921	17680
906.038	17843
906.155	17859
906.272	17695
906.389	17657
906.506	17493
906.623	17596
906.74	17512
906.857	17360
906.974	17509
907.091	17528
907.208	17627
907.324	17497
907.441	17436
907.557	17250
907.674	17132
907.79	17124
907.907	17166
908.023	17231
908.139	17246
908.256	17159
908.372	17098
908.488	17128
908.604	17060
908.72	16980
908.836	16934
908.952	16869
909.068	17003
909.184	17102
909.3	16896
909.415	16904
909.531	16908
909.647	16710
909.762	16694
909.878	16645
909.993	16698
910.108	16546
910.224	16679
910.339	16622
910.454	16462
910.57	16462
910.685	16352
910.8	16656
910.915	16672
911.03	16405
911.145	16398
911.259	16261
911.374	16287
911.489	16143
911.604	16021
911.718	15915
911.833	15945
911.947	15903
912.062	15873
912.176	15956
912.291	16055
912.405	15964
912.519	16074
912.633	16131
912.748	16093
912.862	15880
912.976	15850
913.09	15667
913.204	15751
913.318	15816
913.431	15865
913.545	15793
913.659	15880
913.772	15709
913.886	15682
914	15595
914.113	15694
914.226	15644
914.34	15648
914.453	15591
914.566	15606
914.68	15511
914.793	15393
914.906	15249
915.019	15233
915.132	15135
915.245	15093
915.358	15245
915.47	15245
915.583	15336
915.696	15207
915.809	15329
915.921	15348
916.034	15055
916.146	15089
916.259	15112
916.371	15146
916.483	15157
916.595	15070
916.708	14963
916.82	14994
916.932	14941
917.044	15047
917.156	14933
917.268	14861
917.38	14910
917.491	14872
917.603	14834
917.715	14864
917.826	14872
917.938	14735
918.049	14739
918.161	14781
918.272	14933
918.384	14811
918.495	14785
918.606	14636
918.717	14598
918.828	14651
918.939	14716
919.05	14537
919.161	14663
919.272	14434
919.383	14488
919.494	14651
919.604	14765
919.715	14632
919.826	14442
919.936	14564
920.047	14746
920.157	14590
920.267	14792
920.378	14670
920.488	14556
920.598	14743
920.708	14880
920.818	14746
920.928	14716
921.038	14918
921.148	14902
921.258	14541
921.368	14476
921.477	14381
921.587	14324
921.697	14278
921.806	14370
921.916	14263
922.025	14027
922.134	14058
922.244	13993
922.353	14008
922.462	13845
922.571	13750
922.68	13708
922.789	13571
922.898	13727
923.007	13559
923.116	13628
923.224	13609
923.333	13632
923.442	13472
923.55	13476
923.659	13521
923.767	13491
923.876	13441
923.984	13468
924.092	13415
924.201	13460
924.309	13316
924.417	13381
924.525	13232
924.633	13297
924.741	14016
924.849	13126
924.956	13255
925.064	13042
925.172	12947
925.279	13008
925.387	13099
925.494	13046
925.602	13244
925.709	13084
925.816	12970
925.924	12897
926.031	12996
926.138	12932
926.245	13004
926.352	12973
926.459	12985
926.566	12993
926.673	12901
926.779	12722
926.886	12738
926.993	12673
927.099	12582
927.206	12479
927.312	12433
927.419	12528
927.525	12585
927.631	12616
927.737	12426
927.843	12494
927.95	12308
928.056	12388
928.162	12372
928.267	12456
928.373	13065
928.479	12494
928.585	12216
928.69	12357
928.796	12452
928.901	12311
929.007	12102
929.112	12258
929.218	12205
929.323	12201
929.428	12091
929.533	12285
929.638	12026
929.743	12079
929.848	12148
929.953	12041
930.058	11996
930.163	11874
930.267	11863
930.372	11931
930.477	11805
930.581	11996
930.685	11813
930.79	11729
930.894	11756
930.998	11745
931.103	11813
931.207	11421
931.311	11368
931.415	11303
931.519	11083
931.623	11041
