Data from test_V78500241_2918.txt Node
Date: Fri Mar 25 15:30:10 CST 2022
User: usil
Spectrometer: V785-0024
Trigger mode: 0
Integration Time (sec): 4.000000E-1
Scans to average: 1
Nonlinearity correction enabled: false
Boxcar width: 0
Storing dark spectrum: false
XAxis mode: Wavelengths
Number of Pixels in Spectrum: 1024
>>>>>Begin Spectral Data<<<<<
801.071	27389
801.214	27241
801.356	27074
801.499	26956
801.641	26804
801.783	26693
801.926	26781
802.068	26811
802.211	26815
802.353	26739
802.496	26549
802.638	26613
802.78	26530
802.923	26358
803.065	26374
803.208	26374
803.35	26511
803.492	26537
803.635	26705
803.777	26469
803.919	26545
804.061	26937
804.204	26769
804.346	26590
804.488	26476
804.63	26560
804.773	26484
804.915	26621
805.057	26705
805.199	26682
805.341	26629
805.483	26701
805.626	26724
805.768	26689
805.91	26788
806.052	26678
806.194	26655
806.336	26925
806.478	26781
806.62	26739
806.762	26815
806.904	26921
807.046	27207
807.188	27093
807.33	27108
807.472	27093
807.614	27062
807.756	26975
807.898	27074
808.04	26887
808.182	26971
808.324	26914
808.465	27104
808.607	27386
808.749	27272
808.891	27420
809.033	27431
809.174	27207
809.316	27272
809.458	27287
809.6	27336
809.741	27504
809.883	27443
810.025	27770
810.166	27595
810.308	27534
810.45	27523
810.591	27648
810.733	27340
810.875	27317
811.016	27332
811.158	27332
811.299	27553
811.441	27587
811.582	27473
811.724	27260
811.865	27477
812.007	27192
812.148	27329
812.29	27370
812.431	27405
812.573	27679
812.714	27720
812.855	27850
812.997	27755
813.138	27930
813.279	28166
813.421	27865
813.562	27876
813.703	27667
813.845	27523
813.986	27142
814.127	27017
814.268	27051
814.41	27017
814.551	26899
814.692	27104
814.833	26975
814.974	26887
815.115	27108
815.256	26960
815.397	26849
815.539	26883
815.68	26697
815.821	26651
815.962	26693
816.103	26697
816.244	26686
816.385	26682
816.526	26541
816.666	26374
816.807	26290
816.948	26423
817.089	26313
817.23	26199
817.371	26324
817.512	26195
817.653	26328
817.793	26210
817.934	26332
818.075	26263
818.216	26309
818.356	26214
818.497	26138
818.638	26024
818.778	25993
818.919	25966
819.06	26008
819.2	26088
819.341	26221
819.481	26233
819.622	26412
819.762	26579
819.903	26571
820.043	26427
820.184	26366
820.324	26377
820.465	26484
820.605	26309
820.746	26278
820.886	26176
821.026	26317
821.167	26256
821.307	26396
821.447	26218
821.588	26221
821.728	25966
821.868	25887
822.008	25780
822.149	25742
822.289	25609
822.429	25537
822.569	25240
822.709	25529
822.849	25187
822.99	25228
823.13	25297
823.27	25225
823.41	24962
823.55	24989
823.69	25065
823.83	25099
823.97	24928
824.11	24719
824.25	24814
824.389	24924
824.529	24787
824.669	24928
824.809	25046
824.949	24840
825.089	24928
825.228	24894
825.368	24616
825.508	24681
825.648	24661
825.787	24684
825.927	24783
826.067	24604
826.206	24817
826.346	24772
826.485	24810
826.625	24722
826.765	24741
826.904	24627
827.044	24380
827.183	24403
827.323	24319
827.462	24559
827.601	24525
827.741	24353
827.88	24281
828.02	24228
828.159	24456
828.298	24483
828.437	24448
828.577	24357
828.716	24399
828.855	24201
828.994	24155
829.134	24117
829.273	24083
829.412	23942
829.551	23988
829.69	24011
829.829	24106
829.968	24136
830.107	24224
830.246	24079
830.385	24068
830.524	23973
830.663	23954
830.802	23779
830.941	23653
831.08	23672
831.219	23939
831.357	23817
831.496	23954
831.635	23695
831.774	23547
831.913	23531
832.051	23455
832.19	23448
832.329	23440
832.467	23471
832.606	23395
832.744	23353
832.883	23337
833.022	23284
833.16	23334
833.299	23417
833.437	23516
833.576	23372
833.714	23501
833.852	23535
833.991	23444
834.129	23448
834.267	23448
834.406	23444
834.544	23444
834.682	23452
834.821	23402
834.959	23543
835.097	23292
835.235	23410
835.373	23372
835.511	23376
835.65	23311
835.788	23277
835.926	23140
836.064	23124
836.202	23178
836.34	23296
836.478	23440
836.615	23345
836.753	23326
836.891	23235
837.029	23277
837.167	23223
837.305	23136
837.443	23155
837.58	23094
837.718	23147
837.856	23136
837.993	23109
838.131	23022
838.269	23048
838.406	23048
838.544	22938
838.681	22797
838.819	22816
838.956	22546
839.094	22630
839.231	22531
839.369	22786
839.506	22782
839.643	22831
839.781	22561
839.918	22459
840.055	22500
840.193	22470
840.33	22455
840.467	22462
840.604	22603
840.742	22771
840.879	22246
841.016	22485
841.153	22402
841.29	22478
841.427	22565
841.564	22512
841.701	22531
841.838	22523
841.975	22398
842.112	22394
842.249	22436
842.385	22329
842.522	22531
842.659	22265
842.796	22295
842.933	22169
843.069	22177
843.206	22188
843.343	22272
843.479	22246
843.616	22181
843.752	22021
843.889	22025
844.025	22162
844.162	22086
844.298	22112
844.435	22074
844.571	22059
844.708	22070
844.844	22261
844.98	22314
845.117	22162
845.253	22040
845.389	21953
845.525	21895
845.661	21854
845.798	21759
845.934	21797
846.07	21728
846.206	21724
846.342	22002
846.478	21679
846.614	21610
846.75	21420
846.886	21496
847.022	21629
847.158	21519
847.294	21568
847.429	21553
847.565	21450
847.701	21720
847.837	21203
847.972	21233
848.108	21313
848.244	21317
848.379	21085
848.515	21146
848.65	21066
848.786	21062
848.921	21062
849.057	21081
849.192	21256
849.328	21119
849.463	21062
849.598	21051
849.734	20952
849.869	20948
850.004	20861
850.14	20979
850.275	20834
850.41	20739
850.545	20857
850.68	20838
850.815	20906
850.95	20838
851.085	21036
851.22	20952
851.355	20891
851.49	20807
851.625	20883
851.76	20948
851.895	20830
852.03	20891
852.165	20876
852.299	21055
852.434	20937
852.569	20872
852.703	20826
852.838	20941
852.973	20952
853.107	21017
853.242	20788
853.376	20769
853.511	20575
853.645	20682
853.78	20796
853.914	20712
854.048	20686
854.183	20773
854.317	20674
854.451	20899
854.585	20765
854.72	20750
854.854	20842
854.988	20648
855.122	20769
855.256	20545
855.39	20686
855.524	20735
855.658	20796
855.792	20796
855.926	20712
856.06	20762
856.194	20872
856.327	20781
856.461	20590
856.595	20644
856.729	20674
856.862	20815
856.996	20842
857.13	20773
857.263	20769
857.397	20727
857.53	20750
857.664	20693
857.797	20788
857.931	20887
858.064	20773
858.197	20819
858.331	20636
858.464	20617
858.597	20727
858.731	20743
858.864	20670
858.997	20670
859.13	20674
859.263	20857
859.396	20868
859.529	20674
859.662	20708
859.795	20689
859.928	20773
860.061	20880
860.194	20849
860.327	20845
860.46	20720
860.592	20739
860.725	20944
860.858	20842
860.99	20788
861.123	20636
861.256	20617
861.388	20731
861.521	21329
861.653	20598
861.786	20415
861.918	20552
862.05	20549
862.183	20556
862.315	20785
862.447	20765
862.58	20598
862.712	20571
862.844	20328
862.976	20507
863.108	20454
863.24	20891
863.372	20286
863.504	20438
863.636	20476
863.768	20503
863.9	20450
864.032	20290
864.164	20389
864.296	20465
864.428	20469
864.559	20503
864.691	20507
864.823	20469
864.954	20434
865.086	20412
865.217	20446
865.349	20324
865.48	20294
865.612	20317
865.743	20484
865.875	20324
866.006	20221
866.137	20313
866.269	20301
866.4	20263
866.531	20263
866.662	20267
866.793	20244
866.924	20351
867.055	20355
867.186	20324
867.317	20248
867.448	20199
867.579	20149
867.71	20210
867.841	20317
867.972	20286
868.103	20317
868.233	20305
868.364	20221
868.495	20431
868.625	20488
868.756	20541
868.886	20476
869.017	20507
869.147	20621
869.278	20518
869.408	20617
869.539	20568
869.669	20560
869.799	20625
869.929	20720
870.06	20514
870.19	20842
870.32	20720
870.45	20864
870.58	20918
870.71	21020
870.84	21089
870.97	20979
871.1	20830
871.23	21085
871.36	21024
871.489	21104
871.619	21127
871.749	21085
871.879	21081
872.008	21146
872.138	21089
872.267	21173
872.397	21039
872.526	20944
872.656	20883
872.785	20853
872.915	21142
873.044	21275
873.173	21074
873.303	21241
873.432	21138
873.561	21043
873.69	21066
873.819	21211
873.948	21302
874.077	21230
874.206	21081
874.335	21142
874.464	21211
874.593	21424
874.722	21279
874.851	21393
874.979	21332
875.108	21526
875.237	21367
875.365	21382
875.494	21382
875.623	21382
875.751	21420
875.88	21420
876.008	21488
876.136	21515
876.265	21728
876.393	21819
876.521	21903
876.65	21895
876.778	21812
876.906	21774
877.034	21701
877.162	21713
877.29	21660
877.418	21667
877.546	21766
877.674	21660
877.802	21701
877.93	21633
878.058	21614
878.185	21591
878.313	21660
878.441	21766
878.568	21583
878.696	21679
878.824	21728
878.951	21865
879.079	21915
879.206	21972
879.333	21873
879.461	21709
879.588	21686
879.715	21797
879.842	21975
879.97	21701
880.097	21477
880.224	21599
880.351	21622
880.478	21500
880.605	21431
880.732	21435
880.859	21739
880.986	21538
881.112	21530
881.239	21458
881.366	21408
881.493	21146
881.619	21058
881.746	21112
881.872	21176
881.999	21085
882.125	20925
882.252	21070
882.378	21138
882.505	21272
882.631	20960
882.757	20823
882.883	20823
883.01	20937
883.136	20796
883.262	20708
883.388	20613
883.514	20735
883.64	20944
883.766	20655
883.892	20549
884.018	20560
884.143	20724
884.269	20971
884.395	20465
884.52	20454
884.646	20370
884.772	20457
884.897	20400
885.023	20503
885.148	20507
885.274	20670
885.399	20518
885.524	20400
885.65	20446
885.775	20503
885.9	20484
886.025	20556
886.15	20488
886.275	20343
886.4	20533
886.525	20461
886.65	20313
886.775	20412
886.9	20556
887.025	20636
887.149	20457
887.274	20271
887.399	20347
887.523	20267
887.648	20286
887.773	20142
887.897	20408
888.021	20214
888.146	20111
888.27	20343
888.395	20366
888.519	20168
888.643	20248
888.767	20206
888.891	20298
889.015	20111
889.139	20153
889.263	20046
889.387	20157
889.511	20324
889.635	20142
889.759	20012
889.883	20111
890.006	20050
890.13	19989
890.254	20027
890.377	19871
890.501	19849
890.624	19822
890.748	19822
890.871	19936
890.995	19628
891.118	19666
891.241	19635
891.364	19597
891.488	19811
891.611	19723
891.734	19628
891.857	19693
891.98	19719
892.103	19594
892.226	19628
892.349	19658
892.471	19373
892.594	19567
892.717	19582
892.839	19605
892.962	19567
893.085	19556
893.207	19563
893.33	19426
893.452	19388
893.575	19662
893.697	19514
893.819	19689
893.941	19662
894.064	19689
894.186	19502
894.308	19510
894.43	19628
894.552	19753
894.674	19704
894.796	19506
894.918	19540
895.04	19628
895.161	19552
895.283	19548
895.405	19537
895.526	19594
895.648	19567
895.769	19476
895.891	19559
896.012	19571
896.134	19506
896.255	19582
896.376	19480
896.498	19674
896.619	19578
896.74	19525
896.861	19635
896.982	19879
897.103	19982
897.224	19845
897.345	19807
897.466	19734
897.587	19803
897.708	19864
897.828	19788
897.949	19799
898.07	19609
898.19	19620
898.311	19921
898.431	19670
898.552	19746
898.672	19788
898.792	19803
898.913	19841
899.033	19616
899.153	19491
899.273	19544
899.393	19529
899.513	19613
899.633	19681
899.753	19552
899.873	19632
899.993	19624
900.113	19400
900.232	19506
900.352	19403
900.472	19449
900.591	19331
900.711	19289
900.83	19388
900.95	19320
901.069	19457
901.189	19232
901.308	19114
901.427	18981
901.546	18932
901.665	18909
901.784	18993
901.904	18825
902.023	18650
902.141	18445
902.26	18494
902.379	18582
902.498	18437
902.617	18433
902.735	18513
902.854	18426
902.973	18338
903.091	18125
903.21	18144
903.328	18178
903.446	18079
903.565	17969
903.683	17897
903.801	17904
903.919	17893
904.038	17855
904.156	17748
904.274	17889
904.392	17760
904.51	17627
904.627	17672
904.745	17661
904.863	17783
904.981	17414
905.098	17372
905.216	17341
905.334	17414
905.451	17391
905.569	17395
905.686	17387
905.803	17379
905.921	17254
906.038	17204
906.155	17242
906.272	16965
906.389	17090
906.506	16965
906.623	16980
906.74	16946
906.857	16805
906.974	16740
907.091	17003
907.208	16930
907.324	16908
907.441	16862
907.557	16637
907.674	16706
907.79	16683
907.907	16645
908.023	16615
908.139	16793
908.256	16603
908.372	16504
908.488	16565
908.604	16417
908.72	16360
908.836	16375
908.952	16344
909.068	16405
909.184	16455
909.3	16322
909.415	16398
909.531	16287
909.647	16143
909.762	16112
909.878	16010
909.993	16082
910.108	15960
910.224	15987
910.339	16051
910.454	15975
910.57	15835
910.685	15793
910.8	16124
910.915	16025
911.03	15846
911.145	15705
911.259	15675
911.374	15679
911.489	15614
911.604	15553
911.718	15454
911.833	15469
911.947	15348
912.062	15294
912.176	15500
912.291	15519
912.405	15485
912.519	15637
912.633	15587
912.748	15454
912.862	15329
912.976	15222
913.09	15161
913.204	15180
913.318	15275
913.431	15329
913.545	15351
913.659	15283
913.772	15119
913.886	15119
914	15089
914.113	15100
914.226	15180
914.34	14994
914.453	14967
914.566	15180
914.68	14960
914.793	14857
914.906	14716
915.019	14739
915.132	14655
915.245	14708
915.358	14769
915.47	14785
915.583	14632
915.696	14651
915.809	14754
915.921	14743
916.034	14625
916.146	14632
916.259	14568
916.371	14625
916.483	14644
916.595	14530
916.708	14511
916.82	14461
916.932	14488
917.044	14457
917.156	14404
917.268	14328
917.38	14412
917.491	14313
917.603	14362
917.715	14488
917.826	14389
917.938	14275
918.049	14183
918.161	14377
918.272	14377
918.384	14389
918.495	14313
918.606	14069
918.717	14145
918.828	14130
918.939	14138
919.05	14046
919.161	14058
919.272	13913
919.383	13890
919.494	14062
919.604	14298
919.715	14202
919.826	13947
919.936	14081
920.047	14237
920.157	14046
920.267	14263
920.378	14020
920.488	14077
920.598	14195
920.708	14259
920.818	14157
920.928	14218
921.038	14431
921.148	14347
921.258	14069
921.368	13936
921.477	13837
921.587	13849
921.697	13780
921.806	13906
921.916	13742
922.025	13502
922.134	13426
922.244	13441
922.353	13499
922.462	13388
922.571	13278
922.68	13282
922.789	13084
922.898	13145
923.007	13110
923.116	13114
923.224	13118
923.333	13110
923.442	13023
923.55	12943
923.659	12943
923.767	13076
923.876	12878
923.984	13023
924.092	12795
924.201	12905
924.309	12863
924.417	12806
924.525	12825
924.633	12844
924.741	13757
924.849	12604
924.956	12768
925.064	12604
925.172	12498
925.279	12460
925.387	12639
925.494	12551
925.602	12620
925.709	12574
925.816	12467
925.924	12471
926.031	12574
926.138	12506
926.245	12646
926.352	12388
926.459	12536
926.566	12506
926.673	12407
926.779	12342
926.886	12327
926.993	12178
927.099	12152
927.206	11973
927.312	12011
927.419	12167
927.525	12057
927.631	12148
927.737	12079
927.843	11908
927.95	11855
928.056	11969
928.162	11984
928.267	12015
928.373	12662
928.479	12091
928.585	11813
928.69	11927
928.796	12022
928.901	11946
929.007	11710
929.112	11802
929.218	11794
929.323	11737
929.428	11680
929.533	11798
929.638	11726
929.743	11630
929.848	11676
929.953	11672
930.058	11566
930.163	11414
930.267	11417
930.372	11623
930.477	11455
930.581	11516
930.685	11482
930.79	11334
930.894	11349
930.998	11269
931.103	11421
931.207	11052
931.311	10953
931.415	10915
931.519	10729
931.623	10714
