Data from test_V78500241_809.txt Node
Date: Fri Mar 25 15:15:29 CST 2022
User: usil
Spectrometer: V785-0024
Trigger mode: 0
Integration Time (sec): 4.000000E-1
Scans to average: 1
Nonlinearity correction enabled: false
Boxcar width: 0
Storing dark spectrum: false
XAxis mode: Wavelengths
Number of Pixels in Spectrum: 1024
>>>>>Begin Spectral Data<<<<<
801.071	28253
801.214	28249
801.356	27945
801.499	27842
801.641	27857
801.783	27827
801.926	27972
802.068	27884
802.211	27793
802.353	27873
802.496	27603
802.638	27469
802.78	27477
802.923	27500
803.065	27359
803.208	27515
803.35	27622
803.492	27504
803.635	27660
803.777	27523
803.919	27854
804.061	27987
804.204	27736
804.346	27682
804.488	27568
804.63	27762
804.773	27671
804.915	27701
805.057	27888
805.199	27751
805.341	27835
805.483	27736
805.626	27732
805.768	27762
805.91	27922
806.052	27854
806.194	27720
806.336	28055
806.478	28021
806.62	27903
806.762	27968
806.904	28040
807.046	28417
807.188	28135
807.33	28211
807.472	28405
807.614	28318
807.756	28394
807.898	28234
808.04	28078
808.182	28158
808.324	28166
808.465	28276
808.607	28436
808.749	28523
808.891	28565
809.033	28664
809.174	28561
809.316	28603
809.458	28569
809.6	28584
809.741	28683
809.883	28763
810.025	28763
810.166	28744
810.308	28797
810.45	28748
810.591	28824
810.733	28660
810.875	28588
811.016	28459
811.158	28436
811.299	28675
811.441	28721
811.582	28577
811.724	28462
811.865	28516
812.007	28500
812.148	28497
812.29	28630
812.431	28771
812.573	28850
812.714	29071
812.855	29170
812.997	29334
813.138	29212
813.279	29140
813.421	29181
813.562	29086
813.703	29018
813.845	28778
813.986	28542
814.127	28405
814.268	28333
814.41	28398
814.551	28261
814.692	28356
814.833	28272
814.974	28280
815.115	28325
815.256	28196
815.397	28150
815.539	28124
815.68	28177
815.821	28063
815.962	28131
816.103	28013
816.244	27975
816.385	28006
816.526	27930
816.666	27629
816.807	27591
816.948	27751
817.089	27785
817.23	27553
817.371	27481
817.512	27587
817.653	27454
817.793	27622
817.934	27561
818.075	27690
818.216	27504
818.356	27663
818.497	27515
818.638	27291
818.778	27397
818.919	27412
819.06	27370
819.2	27637
819.341	27610
819.481	27618
819.622	27656
819.762	27876
819.903	27797
820.043	27850
820.184	27728
820.324	27679
820.465	27698
820.605	27701
820.746	27732
820.886	27504
821.026	27720
821.167	27580
821.307	27614
821.447	27473
821.588	27488
821.728	27386
821.868	27218
822.008	27028
822.149	27051
822.289	26998
822.429	26743
822.569	26746
822.709	26655
822.849	26590
822.99	26579
823.13	26541
823.27	26362
823.41	26366
823.55	26244
823.69	26309
823.83	26461
823.97	26328
824.11	26256
824.25	26161
824.389	26267
824.529	26122
824.669	26244
824.809	26317
824.949	26305
825.089	26377
825.228	26221
825.368	26111
825.508	26168
825.648	26138
825.787	26050
825.927	26103
826.067	26016
826.206	26183
826.346	26161
826.485	26058
826.625	25917
826.765	26096
826.904	26153
827.044	25784
827.183	25750
827.323	25776
827.462	25890
827.601	25845
827.741	25902
827.88	25997
828.02	25708
828.159	25822
828.298	25795
828.437	25795
828.577	25674
828.716	25875
828.855	25639
828.994	25521
829.134	25537
829.273	25658
829.412	25582
829.551	25324
829.69	25449
829.829	25582
829.968	25594
830.107	25491
830.246	25479
830.385	25327
830.524	25225
830.663	25301
830.802	25187
830.941	25069
831.08	25038
831.219	25145
831.357	25244
831.496	25297
831.635	25221
831.774	25099
831.913	25194
832.051	24939
832.19	24882
832.329	24985
832.467	24802
832.606	24734
832.744	24894
832.883	24962
833.022	24848
833.16	24840
833.299	24814
833.437	24913
833.576	24985
833.714	24779
833.852	24913
833.991	24996
834.129	25012
834.267	24958
834.406	24875
834.544	24935
834.682	24920
834.821	24867
834.959	24943
835.097	24840
835.235	24913
835.373	24753
835.511	24772
835.65	24734
835.788	24635
835.926	24646
836.064	24304
836.202	24479
836.34	24696
836.478	24772
836.615	24650
836.753	24738
836.891	24673
837.029	24779
837.167	24707
837.305	24570
837.443	24646
837.58	24665
837.718	24669
837.856	24555
837.993	24388
838.131	24448
838.269	24357
838.406	24388
838.544	24285
838.681	24163
838.819	24182
838.956	24011
839.094	23980
839.231	24159
839.369	24239
839.506	24429
839.643	24228
839.781	24022
839.918	23939
840.055	24079
840.193	24022
840.33	23874
840.467	23863
840.604	23996
840.742	24144
840.879	23836
841.016	23889
841.153	23836
841.29	23863
841.427	23885
841.564	23954
841.701	23870
841.838	23836
841.975	23722
842.112	23680
842.249	23718
842.385	23748
842.522	23832
842.659	23790
842.796	23615
842.933	23627
843.069	23646
843.206	23562
843.343	23687
843.479	23745
843.616	23680
843.752	23589
843.889	23410
844.025	23649
844.162	23345
844.298	23524
844.435	23486
844.571	23360
844.708	23497
844.844	23634
844.98	23600
845.117	23520
845.253	23258
845.389	23330
845.525	23269
845.661	23398
845.798	23235
845.934	23197
846.07	23189
846.206	23166
846.342	23235
846.478	23197
846.614	22980
846.75	22896
846.886	22938
847.022	22957
847.158	22908
847.294	22767
847.429	22881
847.565	22847
847.701	23151
847.837	22706
847.972	22607
848.108	22641
848.244	22721
848.379	22550
848.515	22493
848.65	22485
848.786	22523
848.921	22360
849.057	22542
849.192	22554
849.328	22645
849.463	22440
849.598	22432
849.734	22459
849.869	22303
850.004	22226
850.14	22379
850.275	22253
850.41	22173
850.545	22230
850.68	22150
850.815	22379
850.95	22291
851.085	22474
851.22	22295
851.355	22348
851.49	22219
851.625	22287
851.76	22188
851.895	22074
852.03	22150
852.165	22169
852.299	22280
852.434	22310
852.569	22215
852.703	22112
852.838	22337
852.973	22424
853.107	22413
853.242	22154
853.376	22223
853.511	21979
853.645	22135
853.78	22204
853.914	22150
854.048	22048
854.183	22025
854.317	22048
854.451	22287
854.585	22131
854.72	22006
854.854	22128
854.988	22105
855.122	22074
855.256	22010
855.39	22013
855.524	21934
855.658	22101
855.792	22131
855.926	22082
856.06	22063
856.194	22097
856.327	22021
856.461	21934
856.595	22040
856.729	22010
856.862	22051
856.996	22162
857.13	22097
857.263	22158
857.397	22166
857.53	21975
857.664	22082
857.797	22185
857.931	22166
858.064	22090
858.197	22276
858.331	22010
858.464	21998
858.597	21915
858.731	21964
858.864	22048
858.997	22074
859.13	21979
859.263	22044
859.396	22112
859.529	22074
859.662	22097
859.795	21972
859.928	22135
860.061	22242
860.194	22230
860.327	22059
860.46	22006
860.592	22185
860.725	22299
860.858	22200
860.99	22128
861.123	21994
861.256	22059
861.388	22048
861.521	22847
861.653	21979
861.786	21873
861.918	21869
862.05	21934
862.183	21998
862.315	21994
862.447	22112
862.58	21835
862.712	21751
862.844	21713
862.976	21812
863.108	21766
863.24	22112
863.372	21732
863.504	21614
863.636	21709
863.768	21797
863.9	21625
864.032	21842
864.164	21793
864.296	21892
864.428	21865
864.559	21770
864.691	21915
864.823	21747
864.954	21732
865.086	21679
865.217	21648
865.349	21561
865.48	21637
865.612	21644
865.743	21705
865.875	21762
866.006	21686
866.137	21599
866.269	21663
866.4	21671
866.531	21587
866.662	21542
866.793	21622
866.924	21747
867.055	21637
867.186	21637
867.317	21504
867.448	21492
867.579	21568
867.71	21408
867.841	21363
867.972	21583
868.103	21637
868.233	21660
868.364	21557
868.495	21572
868.625	21686
868.756	21956
868.886	21774
869.017	21728
869.147	21960
869.278	21903
869.408	21660
869.539	21869
869.669	21956
869.799	21850
869.929	22044
870.06	21991
870.19	22021
870.32	22166
870.45	22188
870.58	22162
870.71	22268
870.84	22147
870.97	22169
871.1	22128
871.23	22314
871.36	22303
871.489	22303
871.619	22348
871.749	22443
871.879	22508
872.008	22592
872.138	22322
872.267	22432
872.397	22314
872.526	22291
872.656	22154
872.785	22268
872.915	22455
873.044	22436
873.173	22478
873.303	22497
873.432	22379
873.561	22531
873.69	22413
873.819	22436
873.948	22656
874.077	22325
874.206	22405
874.335	22421
874.464	22455
874.593	22607
874.722	22637
874.851	22557
874.979	22736
875.108	22656
875.237	22538
875.365	22634
875.494	22573
875.623	22645
875.751	22645
875.88	22565
876.008	22797
876.136	22847
876.265	22930
876.393	23162
876.521	23109
876.65	23075
876.778	22972
876.906	23003
877.034	22900
877.162	22949
877.29	22991
877.418	22930
877.546	23056
877.674	22980
877.802	22957
877.93	23044
878.058	22801
878.185	22854
878.313	22923
878.441	23060
878.568	22793
878.696	22873
878.824	22957
878.951	23079
879.079	23185
879.206	23136
879.333	23147
879.461	23052
879.588	23174
879.715	23121
879.842	23216
879.97	23102
880.097	22736
880.224	22755
880.351	22759
880.478	22771
880.605	22778
880.732	22740
880.859	22953
880.986	22847
881.112	22774
881.239	22542
881.366	22500
881.493	22459
881.619	22409
881.746	22394
881.872	22382
881.999	22341
882.125	22344
882.252	22500
882.378	22428
882.505	22413
882.631	22162
882.757	21998
882.883	22223
883.01	22025
883.136	22006
883.262	21911
883.388	21956
883.514	22025
883.64	22139
883.766	21918
883.892	21766
884.018	21857
884.143	21979
884.269	22082
884.395	21766
884.52	21705
884.646	21819
884.772	21553
884.897	21500
885.023	21679
885.148	21694
885.274	21907
885.399	21880
885.524	21713
885.65	21667
885.775	21614
885.9	21648
886.025	21671
886.15	21808
886.275	21660
886.4	21599
886.525	21701
886.65	21595
886.775	21625
886.9	21694
887.025	21899
887.149	21652
887.274	21488
887.399	21397
887.523	21439
887.648	21317
887.773	21256
887.897	21405
888.021	21462
888.146	21408
888.27	21500
888.395	21492
888.519	21386
888.643	21511
888.767	21485
888.891	21310
889.015	21195
889.139	21317
889.263	21272
889.387	21211
889.511	21542
889.635	21386
889.759	21157
889.883	21138
890.006	21306
890.13	21401
890.254	21169
890.377	21157
890.501	20960
890.624	20906
890.748	21013
890.871	20864
890.995	20701
891.118	20693
891.241	20758
891.364	20834
891.488	20899
891.611	20956
891.734	20823
891.857	20853
891.98	20811
892.103	20838
892.226	20819
892.349	20678
892.471	20640
892.594	20617
892.717	20792
892.839	20655
892.962	20743
893.085	20674
893.207	20697
893.33	20480
893.452	20640
893.575	20602
893.697	20560
893.819	20781
893.941	20785
894.064	20773
894.186	20590
894.308	20480
894.43	20746
894.552	20788
894.674	20750
894.796	20629
894.918	20640
895.04	20644
895.161	20819
895.283	20667
895.405	20686
895.526	20693
895.648	20629
895.769	20663
895.891	20575
896.012	20773
896.134	20750
896.255	20560
896.376	20625
896.498	20571
896.619	20701
896.74	20727
896.861	20731
896.982	21081
897.103	21017
897.224	20883
897.345	20872
897.466	20826
897.587	20864
897.708	20979
897.828	20982
897.949	20921
898.07	20609
898.19	20838
898.311	20914
898.431	20788
898.552	20899
898.672	20906
898.792	20925
898.913	20807
899.033	20701
899.153	20724
899.273	20518
899.393	20545
899.513	20678
899.633	20522
899.753	20651
899.873	20518
899.993	20571
900.113	20503
900.232	20530
900.352	20545
900.472	20332
900.591	20423
900.711	20438
900.83	20271
900.95	20503
901.069	20400
901.189	20229
901.308	20027
901.427	19951
901.546	20024
901.665	20058
901.784	20016
901.904	19845
902.023	19795
902.141	19518
902.26	19518
902.379	19537
902.498	19506
902.617	19362
902.735	19472
902.854	19415
902.973	19346
903.091	19099
903.21	19247
903.328	19202
903.446	19000
903.565	19053
903.683	19000
903.801	18897
903.919	18844
904.038	18844
904.156	18665
904.274	18677
904.392	18593
904.51	18623
904.627	18555
904.745	18783
904.863	18852
904.981	18445
905.098	18410
905.216	18372
905.334	18391
905.451	18350
905.569	18441
905.686	18426
905.803	18426
905.921	18163
906.038	18194
906.155	18174
906.272	18053
906.389	18068
906.506	17878
906.623	17847
906.74	17916
906.857	17882
906.974	17756
907.091	17988
907.208	18030
907.324	18015
907.441	17672
907.557	17684
907.674	17642
907.79	17577
907.907	17581
908.023	17558
908.139	17589
908.256	17520
908.372	17474
908.488	17516
908.604	17337
908.72	17318
908.836	17277
908.952	17406
909.068	17406
909.184	17345
909.3	17254
909.415	17288
909.531	17356
909.647	17071
909.762	17041
909.878	17022
909.993	16991
910.108	16957
910.224	16911
910.339	16968
910.454	16904
910.57	16816
910.685	16733
910.8	17048
910.915	17022
911.03	16824
911.145	16721
911.259	16569
911.374	16637
911.489	16611
911.604	16485
911.718	16329
911.833	16432
911.947	16257
912.062	16181
912.176	16242
912.291	16295
912.405	16246
912.519	16603
912.633	16459
912.748	16390
912.862	16367
912.976	16150
913.09	15979
913.204	16173
913.318	16223
913.431	16173
913.545	16196
913.659	16223
913.772	16059
913.886	16025
914	15972
914.113	16013
914.226	15972
914.34	16051
914.453	15804
914.566	16029
914.68	15854
914.793	15781
914.906	15660
915.019	15519
915.132	15557
915.245	15553
915.358	15492
915.47	15561
915.583	15572
915.696	15644
915.809	15671
915.921	15641
916.034	15439
916.146	15447
916.259	15397
916.371	15488
916.483	15431
916.595	15367
916.708	15401
916.82	15378
916.932	15340
917.044	15302
917.156	15203
917.268	15195
917.38	15252
917.491	15070
917.603	15119
917.715	15321
917.826	15306
917.938	15074
918.049	14986
918.161	15077
918.272	15256
918.384	15279
918.495	15180
918.606	14944
918.717	14845
918.828	14952
918.939	14941
919.05	14792
919.161	15001
919.272	14731
919.383	14777
919.494	14906
919.604	15138
919.715	14906
919.826	14891
919.936	14891
920.047	15013
920.157	14796
920.267	15077
920.378	14887
920.488	14880
920.598	14933
920.708	15135
920.818	15001
920.928	14982
921.038	15154
921.148	15135
921.258	14758
921.368	14727
921.477	14602
921.587	14636
921.697	14511
921.806	14598
921.916	14404
922.025	14286
922.134	14210
922.244	14195
922.353	14271
922.462	14214
922.571	14020
922.68	13955
922.789	13871
922.898	13955
923.007	13837
923.116	13955
923.224	13917
923.333	13936
923.442	13757
923.55	13643
923.659	13734
923.767	13704
923.876	13601
923.984	13750
924.092	13670
924.201	13658
924.309	13639
924.417	13639
924.525	13460
924.633	13525
924.741	14336
924.849	13365
924.956	13403
925.064	13396
925.172	13335
925.279	13278
925.387	13289
925.494	13289
925.602	13343
925.709	13259
925.816	13141
925.924	13263
926.031	13324
926.138	13236
926.245	13263
926.352	13107
926.459	13301
926.566	13259
926.673	13084
926.779	13046
926.886	13091
926.993	12939
927.099	12837
927.206	12829
927.312	12802
927.419	12935
927.525	12829
927.631	12779
927.737	12692
927.843	12578
927.95	12540
928.056	12642
928.162	12703
928.267	12738
928.373	13244
928.479	12650
928.585	12528
928.69	12654
928.796	12616
928.901	12460
929.007	12376
929.112	12559
929.218	12494
929.323	12361
929.428	12342
929.533	12570
929.638	12319
929.743	12270
929.848	12384
929.953	12285
930.058	12190
930.163	12083
930.267	11988
930.372	12163
930.477	12068
930.581	12277
930.685	12106
930.79	11931
930.894	11893
930.998	11863
931.103	11988
931.207	11695
931.311	11634
931.415	11551
931.519	11395
931.623	11296
