Data from test_V78500241_718.txt Node
Date: Fri Mar 25 15:14:51 CST 2022
User: usil
Spectrometer: V785-0024
Trigger mode: 0
Integration Time (sec): 4.000000E-1
Scans to average: 1
Nonlinearity correction enabled: false
Boxcar width: 0
Storing dark spectrum: false
XAxis mode: Wavelengths
Number of Pixels in Spectrum: 1024
>>>>>Begin Spectral Data<<<<<
801.071	27964
801.214	28040
801.356	27732
801.499	27660
801.641	27519
801.783	27652
801.926	27614
802.068	27656
802.211	27526
802.353	27462
802.496	27374
802.638	27291
802.78	27214
802.923	27150
803.065	27135
803.208	27214
803.35	27306
803.492	27382
803.635	27454
803.777	27344
803.919	27458
804.061	27739
804.204	27473
804.346	27420
804.488	27435
804.63	27386
804.773	27245
804.915	27603
805.057	27568
805.199	27420
805.341	27629
805.483	27629
805.626	27583
805.768	27359
805.91	27439
806.052	27606
806.194	27466
806.336	27789
806.478	27633
806.62	27580
806.762	27835
806.904	27937
807.046	28093
807.188	28128
807.33	27869
807.472	27987
807.614	27987
807.756	27895
807.898	27838
808.04	27857
808.182	27835
808.324	27861
808.465	28055
808.607	28082
808.749	28162
808.891	28329
809.033	28379
809.174	28295
809.316	28356
809.458	28375
809.6	28226
809.741	28519
809.883	28401
810.025	28557
810.166	28508
810.308	28504
810.45	28504
810.591	28455
810.733	28253
810.875	28226
811.016	28139
811.158	28128
811.299	28314
811.441	28386
811.582	28367
811.724	28139
811.865	28261
812.007	28169
812.148	28223
812.29	28162
812.431	28447
812.573	28569
812.714	28752
812.855	28866
812.997	28850
813.138	29003
813.279	29136
813.421	28740
813.562	28839
813.703	28607
813.845	28542
813.986	28173
814.127	28032
814.268	27892
814.41	27926
814.551	27888
814.692	28010
814.833	27865
814.974	27930
815.115	27934
815.256	27831
815.397	27869
815.539	27732
815.68	27766
815.821	27648
815.962	27751
816.103	27778
816.244	27580
816.385	27458
816.526	27481
816.666	27408
816.807	27275
816.948	27405
817.089	27367
817.23	27340
817.371	27310
817.512	27313
817.653	27268
817.793	27214
817.934	27321
818.075	27161
818.216	27287
818.356	27154
818.497	27055
818.638	26933
818.778	27058
818.919	26982
819.06	27192
819.2	27245
819.341	27237
819.481	27283
819.622	27481
819.762	27511
819.903	27599
820.043	27496
820.184	27359
820.324	27363
820.465	27401
820.605	27313
820.746	27359
820.886	27367
821.026	27310
821.167	27226
821.307	27291
821.447	27310
821.588	27119
821.728	26960
821.868	26963
822.008	26708
822.149	26762
822.289	26731
822.429	26659
822.569	26385
822.709	26423
822.849	26256
822.99	26187
823.13	26240
823.27	26187
823.41	26100
823.55	26077
823.69	25974
823.83	26176
823.97	25925
824.11	25902
824.25	25765
824.389	25845
824.529	25921
824.669	25913
824.809	25986
824.949	25947
825.089	25940
825.228	25986
825.368	25852
825.508	25788
825.648	25616
825.787	25757
825.927	25742
826.067	25689
826.206	25769
826.346	25864
826.485	25807
826.625	25799
826.765	25769
826.904	25689
827.044	25597
827.183	25624
827.323	25407
827.462	25544
827.601	25575
827.741	25620
827.88	25559
828.02	25320
828.159	25457
828.298	25430
828.437	25495
828.577	25388
828.716	25544
828.855	25324
828.994	25270
829.134	25221
829.273	25266
829.412	25221
829.551	25110
829.69	25190
829.829	25259
829.968	25335
830.107	25209
830.246	25183
830.385	25053
830.524	25110
830.663	25061
830.802	24909
830.941	24825
831.08	24726
831.219	24802
831.357	24852
831.496	24909
831.635	24901
831.774	24734
831.913	24707
832.051	24684
832.19	24498
832.329	24551
832.467	24445
832.606	24361
832.744	24323
832.883	24452
833.022	24407
833.16	24502
833.299	24429
833.437	24563
833.576	24479
833.714	24505
833.852	24578
833.991	24661
834.129	24578
834.267	24601
834.406	24433
834.544	24513
834.682	24452
834.821	24456
834.959	24585
835.097	24540
835.235	24391
835.373	24479
835.511	24505
835.65	24334
835.788	24369
835.926	24228
836.064	24095
836.202	24182
836.34	24399
836.478	24330
836.615	24407
836.753	24289
836.891	24376
837.029	24380
837.167	24232
837.305	24292
837.443	24098
837.58	24251
837.718	24186
837.856	24102
837.993	23988
838.131	24213
838.269	24079
838.406	24053
838.544	23999
838.681	23931
838.819	23882
838.956	23642
839.094	23786
839.231	23733
839.369	23771
839.506	23977
839.643	23832
839.781	23691
839.918	23608
840.055	23638
840.193	23668
840.33	23589
840.467	23585
840.604	23585
840.742	23893
840.879	23516
841.016	23444
841.153	23417
841.29	23665
841.427	23482
841.564	23562
841.701	23543
841.838	23585
841.975	23429
842.112	23547
842.249	23364
842.385	23147
842.522	23592
842.659	23292
842.796	23345
842.933	23307
843.069	23166
843.206	23239
843.343	23376
843.479	23288
843.616	23296
843.752	23155
843.889	23048
844.025	23315
844.162	23006
844.298	23159
844.435	23052
844.571	23003
844.708	23083
844.844	23189
844.98	23181
845.117	23079
845.253	23014
845.389	22881
845.525	22949
845.661	22927
845.798	22869
845.934	22843
846.07	22828
846.206	22908
846.342	23079
846.478	22809
846.614	22626
846.75	22432
846.886	22531
847.022	22554
847.158	22672
847.294	22569
847.429	22618
847.565	22626
847.701	22782
847.837	22276
847.972	22318
848.108	22459
848.244	22265
848.379	22147
848.515	22124
848.65	22162
848.786	22147
848.921	22261
849.057	22200
849.192	22287
849.328	22181
849.463	22188
849.598	22226
849.734	21994
849.869	21968
850.004	21819
850.14	21960
850.275	21869
850.41	21789
850.545	21895
850.68	21869
850.815	21865
850.95	21789
851.085	22036
851.22	22139
851.355	21994
851.49	21812
851.625	21850
851.76	21846
851.895	21789
852.03	21728
852.165	21835
852.299	21892
852.434	21994
852.569	21846
852.703	21899
852.838	21854
852.973	21903
853.107	22036
853.242	21857
853.376	21701
853.511	21656
853.645	21656
853.78	21838
853.914	21755
854.048	21800
854.183	21717
854.317	21785
854.451	21937
854.585	21739
854.72	21759
854.854	21762
854.988	21690
855.122	21736
855.256	21538
855.39	21755
855.524	21789
855.658	21774
855.792	21861
855.926	21682
856.06	21717
856.194	21850
856.327	21667
856.461	21675
856.595	21637
856.729	21553
856.862	21720
856.996	21720
857.13	21865
857.263	21861
857.397	21770
857.53	21751
857.664	21797
857.797	21880
857.931	21880
858.064	21762
858.197	21778
858.331	21648
858.464	21679
858.597	21595
858.731	21625
858.864	21610
858.997	21724
859.13	21755
859.263	21709
859.396	21869
859.529	21656
859.662	21732
859.795	21762
859.928	21686
860.061	21915
860.194	21857
860.327	21724
860.46	21736
860.592	21808
860.725	21854
860.858	21861
860.99	21679
861.123	21587
861.256	21671
861.388	21759
861.521	22500
861.653	21625
861.786	21564
861.918	21515
862.05	21705
862.183	21637
862.315	21656
862.447	21625
862.58	21587
862.712	21454
862.844	21329
862.976	21534
863.108	21416
863.24	21793
863.372	21416
863.504	21336
863.636	21405
863.768	21420
863.9	21340
864.032	21336
864.164	21355
864.296	21458
864.428	21523
864.559	21431
864.691	21561
864.823	21450
864.954	21412
865.086	21405
865.217	21481
865.349	21340
865.48	21249
865.612	21279
865.743	21408
865.875	21272
866.006	21245
866.137	21447
866.269	21272
866.4	21321
866.531	21230
866.662	21192
866.793	21127
866.924	21256
867.055	21348
867.186	21321
867.317	21275
867.448	21195
867.579	21226
867.71	21161
867.841	21135
867.972	21230
868.103	21173
868.233	21154
868.364	21252
868.495	21382
868.625	21458
868.756	21614
868.886	21378
869.017	21386
869.147	21625
869.278	21519
869.408	21591
869.539	21542
869.669	21622
869.799	21519
869.929	21629
870.06	21523
870.19	21675
870.32	21648
870.45	21720
870.58	21770
870.71	21968
870.84	21953
870.97	21800
871.1	21930
871.23	22090
871.36	21987
871.489	22025
871.619	22013
871.749	22051
871.879	22070
872.008	22021
872.138	21907
872.267	22154
872.397	21972
872.526	21941
872.656	21873
872.785	21842
872.915	22192
873.044	22238
873.173	22154
873.303	22177
873.432	22188
873.561	22169
873.69	22078
873.819	21873
873.948	22192
874.077	22029
874.206	22086
874.335	22025
874.464	22223
874.593	22303
874.722	22257
874.851	22398
874.979	22409
875.108	22440
875.237	22226
875.365	22238
875.494	22230
875.623	22356
875.751	22356
875.88	22276
876.008	22443
876.136	22527
876.265	22740
876.393	22839
876.521	22854
876.65	22698
876.778	22664
876.906	22599
877.034	22733
877.162	22721
877.29	22565
877.418	22664
877.546	22618
877.674	22786
877.802	22672
877.93	22733
878.058	22580
878.185	22557
878.313	22550
878.441	22531
878.568	22394
878.696	22516
878.824	22733
878.951	22672
879.079	22809
879.206	22957
879.333	22866
879.461	22713
879.588	22664
879.715	22786
879.842	22911
879.97	22664
880.097	22360
880.224	22443
880.351	22573
880.478	22508
880.605	22432
880.732	22500
880.859	22698
880.986	22470
881.112	22447
881.239	22466
881.366	22192
881.493	22135
881.619	21835
881.746	22093
881.872	22097
881.999	21983
882.125	22021
882.252	21994
882.378	22078
882.505	22078
882.631	21922
882.757	21747
882.883	21903
883.01	21713
883.136	21698
883.262	21576
883.388	21545
883.514	21739
883.64	21808
883.766	21724
883.892	21462
884.018	21641
884.143	21667
884.269	21637
884.395	21439
884.52	21340
884.646	21344
884.772	21249
884.897	21359
885.023	21351
885.148	21454
885.274	21542
885.399	21344
885.524	21374
885.65	21393
885.775	21466
885.9	21401
886.025	21428
886.15	21393
886.275	21397
886.4	21340
886.525	21291
886.65	21260
886.775	21405
886.9	21408
887.025	21591
887.149	21405
887.274	21226
887.399	21157
887.523	21165
887.648	21108
887.773	21066
887.897	21146
888.021	21150
888.146	21024
888.27	21218
888.395	21169
888.519	21161
888.643	21165
888.767	21093
888.891	20899
889.015	20868
889.139	20933
889.263	20971
889.387	21028
889.511	21233
889.635	21127
889.759	20777
889.883	20918
890.006	20937
890.13	20998
890.254	20838
890.377	20849
890.501	20686
890.624	20625
890.748	20712
890.871	20541
890.995	20514
891.118	20522
891.241	20499
891.364	20450
891.488	20621
891.611	20457
891.734	20473
891.857	20492
891.98	20404
892.103	20602
892.226	20480
892.349	20438
892.471	20218
892.594	20507
892.717	20526
892.839	20400
892.962	20278
893.085	20454
893.207	20393
893.33	20343
893.452	20339
893.575	20366
893.697	20347
893.819	20587
893.941	20541
894.064	20587
894.186	20358
894.308	20282
894.43	20533
894.552	20473
894.674	20511
894.796	20370
894.918	20324
895.04	20328
895.161	20461
895.283	20339
895.405	20339
895.526	20427
895.648	20347
895.769	20408
895.891	20389
896.012	20530
896.134	20389
896.255	20374
896.376	20427
896.498	20351
896.619	20427
896.74	20244
896.861	20381
896.982	20701
897.103	20705
897.224	20560
897.345	20598
897.466	20556
897.587	20556
897.708	20815
897.828	20644
897.949	20518
898.07	20404
898.19	20495
898.311	20708
898.431	20526
898.552	20568
898.672	20606
898.792	20674
898.913	20568
899.033	20514
899.153	20343
899.273	20301
899.393	20271
899.513	20450
899.633	20343
899.753	20313
899.873	20332
899.993	20457
900.113	20252
900.232	20347
900.352	20202
900.472	20290
900.591	19970
900.711	20122
900.83	20001
900.95	20157
901.069	20164
901.189	20027
901.308	19757
901.427	19647
901.546	19757
901.665	19746
901.784	19712
901.904	19624
902.023	19449
902.141	19293
902.26	19244
902.379	19320
902.498	19171
902.617	19183
902.735	19247
902.854	19198
902.973	19206
903.091	18859
903.21	18901
903.328	18829
903.446	18817
903.565	18696
903.683	18719
903.801	18593
903.919	18681
904.038	18650
904.156	18448
904.274	18498
904.392	18388
904.51	18445
904.627	18506
904.745	18437
904.863	18513
904.981	18254
905.098	18064
905.216	18159
905.334	18174
905.451	18121
905.569	18117
905.686	18228
905.803	18167
905.921	17923
906.038	18102
906.155	17904
906.272	17882
906.389	17786
906.506	17604
906.623	17680
906.74	17653
906.857	17398
906.974	17532
907.091	17707
907.208	17783
907.324	17661
907.441	17497
907.557	17368
907.674	17353
907.79	17315
907.907	17383
908.023	17334
908.139	17429
908.256	17322
908.372	17151
908.488	17311
908.604	17083
908.72	17113
908.836	17086
908.952	17018
909.068	17162
909.184	17159
909.3	17029
909.415	17071
909.531	16991
909.647	16748
909.762	16854
909.878	16778
909.993	16824
910.108	16725
910.224	16721
910.339	16771
910.454	16653
910.57	16622
910.685	16588
910.8	16820
910.915	16824
911.03	16569
911.145	16489
911.259	16344
911.374	16398
911.489	16204
911.604	16303
911.718	16109
911.833	16150
911.947	16109
912.062	15888
912.176	16120
912.291	16173
912.405	16040
912.519	16390
912.633	16173
912.748	16188
912.862	16036
912.976	16029
913.09	15804
913.204	15987
913.318	15892
913.431	16002
913.545	15953
913.659	16040
913.772	15903
913.886	15747
914	15618
914.113	15724
914.226	15972
914.34	15800
914.453	15492
914.566	15743
914.68	15679
914.793	15610
914.906	15473
915.019	15447
915.132	15344
915.245	15256
915.358	15382
915.47	15264
915.583	15321
915.696	15439
915.809	15481
915.921	15401
916.034	15237
916.146	15272
916.259	15302
916.371	15321
916.483	15226
916.595	15188
916.708	15180
916.82	15135
916.932	15127
917.044	15169
917.156	14994
917.268	14998
917.38	15005
917.491	15043
917.603	15020
917.715	15013
917.826	15119
917.938	14986
918.049	14845
918.161	14967
918.272	15077
918.384	15032
918.495	14868
918.606	14796
918.717	14743
918.828	14674
918.939	14769
919.05	14663
919.161	14651
919.272	14530
919.383	14571
919.494	14697
919.604	14842
919.715	14788
919.826	14659
919.936	14686
920.047	14678
920.157	14777
920.267	14910
920.378	14762
920.488	14727
920.598	14918
920.708	15051
920.818	14842
920.928	14811
921.038	14998
921.148	14804
921.258	14545
921.368	14533
921.477	14457
921.587	14400
921.697	14263
921.806	14484
921.916	14248
922.025	14123
922.134	14092
922.244	13947
922.353	14054
922.462	14035
922.571	13913
922.68	13753
922.789	13662
922.898	13738
923.007	13651
923.116	13765
923.224	13715
923.333	13655
923.442	13597
923.55	13510
923.659	13521
923.767	13529
923.876	13499
923.984	13491
924.092	13441
924.201	13476
924.309	13472
924.417	13449
924.525	13396
924.633	13438
924.741	14077
924.849	13198
924.956	13255
925.064	13141
925.172	13042
925.279	13095
925.387	13118
925.494	13103
925.602	13274
925.709	13126
925.816	13069
925.924	13110
926.031	13141
926.138	13088
926.245	12981
926.352	12878
926.459	13107
926.566	13072
926.673	12890
926.779	12852
926.886	12844
926.993	12722
927.099	12700
927.206	12620
927.312	12551
927.419	12703
927.525	12616
927.631	12707
927.737	12566
927.843	12555
927.95	12437
928.056	12528
928.162	12544
928.267	12483
928.373	13179
928.479	12551
928.585	12410
928.69	12418
928.796	12407
928.901	12270
929.007	12205
929.112	12304
929.218	12315
929.323	12205
929.428	12186
929.533	12327
929.638	12140
929.743	12243
929.848	12228
929.953	12110
930.058	12110
930.163	11863
930.267	11904
930.372	11988
930.477	11897
930.581	12098
930.685	12057
930.79	11855
930.894	11748
930.998	11748
931.103	11920
931.207	11509
931.311	11463
931.415	11387
931.519	11159
931.623	11079
