Data from test_V78500241_2991.txt Node
Date: Fri Mar 25 15:30:41 CST 2022
User: usil
Spectrometer: V785-0024
Trigger mode: 0
Integration Time (sec): 4.000000E-1
Scans to average: 1
Nonlinearity correction enabled: false
Boxcar width: 0
Storing dark spectrum: false
XAxis mode: Wavelengths
Number of Pixels in Spectrum: 1024
>>>>>Begin Spectral Data<<<<<
801.071	27195
801.214	27226
801.356	27085
801.499	26861
801.641	26777
801.783	26739
801.926	26944
802.068	26826
802.211	26693
802.353	26712
802.496	26568
802.638	26571
802.78	26457
802.923	26351
803.065	26374
803.208	26408
803.35	26495
803.492	26503
803.635	26590
803.777	26575
803.919	26571
804.061	26975
804.204	26587
804.346	26511
804.488	26408
804.63	26621
804.773	26507
804.915	26667
805.057	26731
805.199	26503
805.341	26724
805.483	26746
805.626	26705
805.768	26670
805.91	26785
806.052	26686
806.194	26670
806.336	26838
806.478	26796
806.62	26731
806.762	26899
806.904	26986
807.046	27218
807.188	27199
807.33	27203
807.472	27146
807.614	26998
807.756	27150
807.898	27089
808.04	26910
808.182	26979
808.324	26998
808.465	27093
808.607	27226
808.749	27458
808.891	27427
809.033	27405
809.174	27435
809.316	27306
809.458	27317
809.6	27462
809.741	27469
809.883	27481
810.025	27622
810.166	27595
810.308	27690
810.45	27519
810.591	27523
810.733	27401
810.875	27313
811.016	27230
811.158	27344
811.299	27374
811.441	27511
811.582	27477
811.724	27355
811.865	27302
812.007	27085
812.148	27264
812.29	27408
812.431	27564
812.573	27694
812.714	27751
812.855	27968
812.997	27812
813.138	27991
813.279	27949
813.421	27941
813.562	27762
813.703	27629
813.845	27420
813.986	27306
814.127	27043
814.268	26979
814.41	26956
814.551	26948
814.692	27043
814.833	26971
814.974	26986
815.115	26880
815.256	26804
815.397	26956
815.539	26906
815.68	26769
815.821	26678
815.962	26830
816.103	26724
816.244	26484
816.385	26514
816.526	26453
816.666	26370
816.807	26218
816.948	26267
817.089	26290
817.23	26355
817.371	26103
817.512	26317
817.653	26301
817.793	26191
817.934	26138
818.075	26278
818.216	26062
818.356	26199
818.497	26187
818.638	26054
818.778	25947
818.919	25982
819.06	25932
819.2	26225
819.341	26164
819.481	26225
819.622	26298
819.762	26568
819.903	26393
820.043	26453
820.184	26339
820.324	26278
820.465	26408
820.605	26298
820.746	26256
820.886	26225
821.026	26320
821.167	26309
821.307	26453
821.447	26263
821.588	26039
821.728	25959
821.868	25913
822.008	25761
822.149	25647
822.289	25674
822.429	25415
822.569	25430
822.709	25289
822.849	25244
822.99	25069
823.13	25175
823.27	25050
823.41	24985
823.55	24928
823.69	24905
823.83	24985
823.97	24970
824.11	24848
824.25	24806
824.389	24787
824.529	24863
824.669	24833
824.809	24886
824.949	24966
825.089	24939
825.228	24753
825.368	24715
825.508	24631
825.648	24715
825.787	24661
825.927	24650
826.067	24593
826.206	24707
826.346	24772
826.485	24741
826.625	24631
826.765	24665
826.904	24677
827.044	24536
827.183	24513
827.323	24334
827.462	24452
827.601	24323
827.741	24285
827.88	24414
828.02	24361
828.159	24350
828.298	24388
828.437	24502
828.577	24353
828.716	24414
828.855	24277
828.994	24087
829.134	24083
829.273	24205
829.412	24129
829.551	23988
829.69	23977
829.829	24030
829.968	24304
830.107	24136
830.246	24171
830.385	24129
830.524	24034
830.663	23942
830.802	23779
830.941	23695
831.08	23726
831.219	23722
831.357	23802
831.496	23965
831.635	23767
831.774	23581
831.913	23535
832.051	23516
832.19	23410
832.329	23528
832.467	23406
832.606	23395
832.744	23433
832.883	23277
833.022	23364
833.16	23414
833.299	23379
833.437	23391
833.576	23414
833.714	23406
833.852	23455
833.991	23604
834.129	23531
834.267	23463
834.406	23414
834.544	23436
834.682	23383
834.821	23334
834.959	23562
835.097	23478
835.235	23501
835.373	23364
835.511	23440
835.65	23200
835.788	23277
835.926	23124
836.064	23174
836.202	23067
836.34	23242
836.478	23326
836.615	23288
836.753	23311
836.891	23311
837.029	23239
837.167	23208
837.305	23242
837.443	23090
837.58	23025
837.718	23181
837.856	23159
837.993	22930
838.131	23086
838.269	23044
838.406	23121
838.544	22930
838.681	22748
838.819	22725
838.956	22527
839.094	22611
839.231	22698
839.369	22694
839.506	22991
839.643	22801
839.781	22653
839.918	22489
840.055	22577
840.193	22466
840.33	22512
840.467	22573
840.604	22687
840.742	22824
840.879	22421
841.016	22447
841.153	22352
841.29	22550
841.427	22554
841.564	22462
841.701	22455
841.838	22409
841.975	22360
842.112	22500
842.249	22379
842.385	22371
842.522	22500
842.659	22268
842.796	22082
842.933	22207
843.069	22169
843.206	22135
843.343	22276
843.479	22295
843.616	22329
843.752	22074
843.889	21994
844.025	22177
844.162	21907
844.298	22051
844.435	22021
844.571	21987
844.708	21964
844.844	22223
844.98	22173
845.117	22139
845.253	22010
845.389	21812
845.525	21838
845.661	21945
845.798	21816
845.934	21869
846.07	21629
846.206	21918
846.342	21892
846.478	21728
846.614	21500
846.75	21561
846.886	21542
847.022	21580
847.158	21663
847.294	21382
847.429	21504
847.565	21515
847.701	21690
847.837	21233
847.972	21275
848.108	21389
848.244	21310
848.379	21245
848.515	21047
848.65	21051
848.786	21051
848.921	21195
849.057	21310
849.192	21146
849.328	21150
849.463	21001
849.598	21131
849.734	21104
849.869	20979
850.004	20906
850.14	20937
850.275	20929
850.41	20773
850.545	20777
850.68	20804
850.815	20910
850.95	20861
851.085	21096
851.22	20967
851.355	20960
851.49	20891
851.625	20765
851.76	20849
851.895	20811
852.03	20804
852.165	20849
852.299	20914
852.434	20982
852.569	20842
852.703	20895
852.838	20887
852.973	20971
853.107	20902
853.242	20807
853.376	20739
853.511	20560
853.645	20583
853.78	20777
853.914	20758
854.048	20579
854.183	20579
854.317	20708
854.451	20948
854.585	20689
854.72	20617
854.854	20724
854.988	20495
855.122	20629
855.256	20560
855.39	20731
855.524	20762
855.658	20773
855.792	20701
855.926	20720
856.06	20708
856.194	20712
856.327	20762
856.461	20579
856.595	20712
856.729	20762
856.862	20914
856.996	20792
857.13	20804
857.263	20754
857.397	20849
857.53	20674
857.664	20701
857.797	20636
857.931	20697
858.064	20697
858.197	20750
858.331	20659
858.464	20632
858.597	20507
858.731	20739
858.864	20640
858.997	20598
859.13	20746
859.263	20788
859.396	20743
859.529	20731
859.662	20537
859.795	20560
859.928	20701
860.061	20849
860.194	20921
860.327	20807
860.46	20716
860.592	20686
860.725	20830
860.858	20834
860.99	20640
861.123	20693
861.256	20583
861.388	20651
861.521	21298
861.653	20537
861.786	20427
861.918	20590
862.05	20575
862.183	20579
862.315	20564
862.447	20739
862.58	20579
862.712	20343
862.844	20404
862.976	20503
863.108	20518
863.24	20876
863.372	20339
863.504	20393
863.636	20305
863.768	20473
863.9	20366
864.032	20286
864.164	20480
864.296	20431
864.428	20431
864.559	20530
864.691	20488
864.823	20408
864.954	20495
865.086	20514
865.217	20355
865.349	20199
865.48	20301
865.612	20351
865.743	20488
865.875	20324
866.006	20347
866.137	20301
866.269	20309
866.4	20294
866.531	20164
866.662	20168
866.793	20172
866.924	20237
867.055	20271
867.186	20142
867.317	20134
867.448	20084
867.579	20199
867.71	20161
867.841	20157
867.972	20278
868.103	20252
868.233	20218
868.364	20332
868.495	20317
868.625	20507
868.756	20545
868.886	20317
869.017	20450
869.147	20499
869.278	20575
869.408	20457
869.539	20495
869.669	20617
869.799	20579
869.929	20640
870.06	20526
870.19	20960
870.32	20883
870.45	20861
870.58	20891
870.71	20948
870.84	20937
870.97	20853
871.1	20956
871.23	21017
871.36	21047
871.489	20880
871.619	20971
871.749	21116
871.879	21036
872.008	21157
872.138	21123
872.267	21028
872.397	21005
872.526	20842
872.656	21005
872.785	20876
872.915	21043
873.044	21233
873.173	21119
873.303	21108
873.432	21024
873.561	21275
873.69	21131
873.819	20998
873.948	21157
874.077	21154
874.206	21028
874.335	21222
874.464	21264
874.593	21447
874.722	21264
874.851	21370
874.979	21534
875.108	21431
875.237	21279
875.365	21260
875.494	21264
875.623	21477
875.751	21348
875.88	21348
876.008	21542
876.136	21538
876.265	21686
876.393	21854
876.521	21804
876.65	21876
876.778	21793
876.906	21682
877.034	21675
877.162	21583
877.29	21717
877.418	21743
877.546	21781
877.674	21819
877.802	21705
877.93	21762
878.058	21583
878.185	21637
878.313	21675
878.441	21717
878.568	21591
878.696	21595
878.824	21675
878.951	21713
879.079	21857
879.206	21926
879.333	21762
879.461	21739
879.588	21922
879.715	21831
879.842	21934
879.97	21762
880.097	21614
880.224	21561
880.351	21637
880.478	21511
880.605	21454
880.732	21587
880.859	21827
880.986	21469
881.112	21507
881.239	21507
881.366	21344
881.493	21173
881.619	21142
881.746	21195
881.872	21188
881.999	21017
882.125	21039
882.252	21211
882.378	21028
882.505	21085
882.631	20914
882.757	20883
882.883	20975
883.01	20842
883.136	20857
883.262	20651
883.388	20651
883.514	20838
883.64	20864
883.766	20788
883.892	20575
884.018	20743
884.143	20655
884.269	20849
884.395	20629
884.52	20370
884.646	20484
884.772	20423
884.897	20438
885.023	20492
885.148	20625
885.274	20594
885.399	20564
885.524	20473
885.65	20476
885.775	20587
885.9	20492
886.025	20571
886.15	20598
886.275	20355
886.4	20404
886.525	20438
886.65	20332
886.775	20400
886.9	20476
887.025	20590
887.149	20454
887.274	20275
887.399	20221
887.523	20286
887.648	20157
887.773	20187
887.897	20244
888.021	20385
888.146	20183
888.27	20385
888.395	20317
888.519	20210
888.643	20309
888.767	20301
888.891	20161
889.015	20081
889.139	20008
889.263	20039
889.387	20168
889.511	20214
889.635	20138
889.759	19944
889.883	19986
890.006	20069
890.13	20084
890.254	19997
890.377	19902
890.501	19826
890.624	19746
890.748	19860
890.871	19670
890.995	19597
891.118	19590
891.241	19643
891.364	19597
891.488	19700
891.611	19628
891.734	19563
891.857	19731
891.98	19624
892.103	19518
892.226	19586
892.349	19632
892.471	19407
892.594	19502
892.717	19533
892.839	19575
892.962	19586
893.085	19693
893.207	19571
893.33	19506
893.452	19483
893.575	19540
893.697	19578
893.819	19693
893.941	19723
894.064	19700
894.186	19502
894.308	19468
894.43	19712
894.552	19696
894.674	19556
894.796	19544
894.918	19537
895.04	19514
895.161	19594
895.283	19670
895.405	19464
895.526	19620
895.648	19525
895.769	19609
895.891	19571
896.012	19712
896.134	19620
896.255	19609
896.376	19495
896.498	19594
896.619	19548
896.74	19529
896.861	19521
896.982	19955
897.103	19951
897.224	19788
897.345	19776
897.466	19674
897.587	19799
897.708	19909
897.828	19715
897.949	19727
898.07	19590
898.19	19662
898.311	19833
898.431	19769
898.552	19841
898.672	19894
898.792	19868
898.913	19894
899.033	19689
899.153	19670
899.273	19441
899.393	19457
899.513	19647
899.633	19502
899.753	19624
899.873	19422
899.993	19613
900.113	19491
900.232	19518
900.352	19514
900.472	19563
900.591	19331
900.711	19346
900.83	19247
900.95	19495
901.069	19449
901.189	19320
901.308	19019
901.427	18859
901.546	19000
901.665	18897
901.784	18962
901.904	18856
902.023	18639
902.141	18555
902.26	18498
902.379	18532
902.498	18445
902.617	18418
902.735	18456
902.854	18388
902.973	18429
903.091	18220
903.21	18174
903.328	18057
903.446	17992
903.565	17973
903.683	18011
903.801	17794
903.919	17912
904.038	17851
904.156	17699
904.274	17790
904.392	17707
904.51	17604
904.627	17619
904.745	17878
904.863	17722
904.981	17482
905.098	17330
905.216	17391
905.334	17360
905.451	17383
905.569	17261
905.686	17379
905.803	17322
905.921	17113
906.038	17204
906.155	17200
906.272	17083
906.389	17170
906.506	16896
906.623	16930
906.74	16877
906.857	16729
906.974	16896
907.091	16999
907.208	17098
907.324	16949
907.441	16786
907.557	16622
907.674	16729
907.79	16535
907.907	16554
908.023	16569
908.139	16672
908.256	16653
908.372	16527
908.488	16531
908.604	16352
908.72	16314
908.836	16428
908.952	16284
909.068	16409
909.184	16443
909.3	16287
909.415	16409
909.531	16295
909.647	16105
909.762	16051
909.878	16013
909.993	15964
910.108	16086
910.224	16029
910.339	15854
910.454	15960
910.57	15876
910.685	15766
910.8	16078
910.915	16055
911.03	15831
911.145	15766
911.259	15637
911.374	15747
911.489	15743
911.604	15595
911.718	15405
911.833	15458
911.947	15348
912.062	15355
912.176	15428
912.291	15367
912.405	15530
912.519	15519
912.633	15686
912.748	15485
912.862	15393
912.976	15241
913.09	15123
913.204	15119
913.318	15291
913.431	15272
913.545	15211
913.659	15169
913.772	15157
913.886	15077
914	15051
914.113	15146
914.226	15131
914.34	15192
914.453	14948
914.566	15142
914.68	15039
914.793	14910
914.906	14765
915.019	14708
915.132	14602
915.245	14575
915.358	14617
915.47	14667
915.583	14659
915.696	14686
915.809	14743
915.921	14792
916.034	14598
916.146	14526
916.259	14511
916.371	14686
916.483	14682
916.595	14522
916.708	14568
916.82	14484
916.932	14431
917.044	14446
917.156	14480
917.268	14389
917.38	14400
917.491	14389
917.603	14309
917.715	14393
917.826	14492
917.938	14240
918.049	14221
918.161	14294
918.272	14419
918.384	14385
918.495	14305
918.606	14111
918.717	14084
918.828	14161
918.939	14096
919.05	14107
919.161	13963
919.272	13909
919.383	13925
919.494	14107
919.604	14366
919.715	14096
919.826	14092
919.936	14111
920.047	14180
920.157	14172
920.267	14248
920.378	14153
920.488	14020
920.598	14233
920.708	14370
920.818	14267
920.928	14142
921.038	14434
921.148	14237
921.258	14046
921.368	13932
921.477	13746
921.587	13826
921.697	13696
921.806	13833
921.916	13689
922.025	13518
922.134	13510
922.244	13449
922.353	13457
922.462	13373
922.571	13297
922.68	13217
922.789	13072
922.898	13194
923.007	13118
923.116	13160
923.224	13171
923.333	13015
923.442	12993
923.55	13012
923.659	12973
923.767	13053
923.876	12817
923.984	13000
924.092	12787
924.201	12806
924.309	12821
924.417	12863
924.525	12947
924.633	12787
924.741	13529
924.849	12616
924.956	12867
925.064	12563
925.172	12513
925.279	12528
925.387	12623
925.494	12547
925.602	12719
925.709	12563
925.816	12418
925.924	12525
926.031	12544
926.138	12483
926.245	12578
926.352	12456
926.459	12547
926.566	12589
926.673	12384
926.779	12296
926.886	12391
926.993	12182
927.099	12155
927.206	12129
927.312	12121
927.419	12186
927.525	12121
927.631	12201
927.737	11999
927.843	12030
927.95	11958
928.056	12015
928.162	11992
928.267	11973
928.373	12639
928.479	12076
928.585	11771
928.69	11961
928.796	11893
928.901	11851
929.007	11710
929.112	11809
929.218	11790
929.323	11710
929.428	11661
929.533	11859
929.638	11638
929.743	11649
929.848	11611
929.953	11722
930.058	11577
930.163	11406
930.267	11459
930.372	11592
930.477	11337
930.581	11482
930.685	11471
930.79	11311
930.894	11318
930.998	11223
931.103	11372
931.207	11071
931.311	10961
931.415	10946
931.519	10740
931.623	10645
