Data from test_V78500241_2298.txt Node
Date: Fri Mar 25 15:25:51 CST 2022
User: usil
Spectrometer: V785-0024
Trigger mode: 0
Integration Time (sec): 4.000000E-1
Scans to average: 1
Nonlinearity correction enabled: false
Boxcar width: 0
Storing dark spectrum: false
XAxis mode: Wavelengths
Number of Pixels in Spectrum: 1024
>>>>>Begin Spectral Data<<<<<
801.071	27709
801.214	27641
801.356	27420
801.499	27344
801.641	27291
801.783	27416
801.926	27313
802.068	27344
802.211	27340
802.353	27112
802.496	27169
802.638	26887
802.78	26861
802.923	26902
803.065	26788
803.208	26796
803.35	27005
803.492	27089
803.635	27104
803.777	27051
803.919	27070
804.061	27469
804.204	27066
804.346	26982
804.488	27028
804.63	27100
804.773	26963
804.915	27096
805.057	27313
805.199	27146
805.341	27150
805.483	27199
805.626	27195
805.768	27233
805.91	27294
806.052	27154
806.194	27180
806.336	27249
806.478	27283
806.62	27249
806.762	27294
806.904	27424
807.046	27622
807.188	27572
807.33	27644
807.472	27671
807.614	27504
807.756	27656
807.898	27549
808.04	27485
808.182	27363
808.324	27367
808.465	27618
808.607	27709
808.749	27827
808.891	27968
809.033	28013
809.174	27911
809.316	27842
809.458	27838
809.6	27793
809.741	27937
809.883	27949
810.025	28086
810.166	27998
810.308	28067
810.45	27937
810.591	27770
810.733	27846
810.875	27751
811.016	27599
811.158	27728
811.299	27888
811.441	28013
811.582	27884
811.724	27739
811.865	27865
812.007	27686
812.148	27728
812.29	27816
812.431	27945
812.573	28105
812.714	28188
812.855	28337
812.997	28436
813.138	28561
813.279	28436
813.421	28272
813.562	28360
813.703	28086
813.845	28044
813.986	27857
814.127	27675
814.268	27401
814.41	27458
814.551	27363
814.692	27561
814.833	27424
814.974	27431
815.115	27492
815.256	27329
815.397	27507
815.539	27283
815.68	27214
815.821	27291
815.962	27291
816.103	27344
816.244	27127
816.385	27051
816.526	26967
816.666	26807
816.807	26731
816.948	26876
817.089	26861
817.23	26834
817.371	26861
817.512	26777
817.653	26785
817.793	26636
817.934	26819
818.075	26746
818.216	26746
818.356	26670
818.497	26765
818.638	26453
818.778	26476
818.919	26575
819.06	26762
819.2	26625
819.341	26788
819.481	26773
819.622	26845
819.762	27138
819.903	26952
820.043	27074
820.184	26777
820.324	26925
820.465	26899
820.605	26944
820.746	26872
820.886	26663
821.026	26994
821.167	26891
821.307	26807
821.447	26678
821.588	26632
821.728	26522
821.868	26313
822.008	26210
822.149	26294
822.289	26271
822.429	25959
822.569	25883
822.709	25921
822.849	25712
822.99	25769
823.13	25871
823.27	25632
823.41	25586
823.55	25502
823.69	25613
823.83	25483
823.97	25502
824.11	25419
824.25	25426
824.389	25422
824.529	25441
824.669	25350
824.809	25384
824.949	25521
825.089	25373
825.228	25339
825.368	25133
825.508	25282
825.648	25282
825.787	25331
825.927	25270
826.067	25110
826.206	25122
826.346	25308
826.485	25202
826.625	25198
826.765	25324
826.904	25282
827.044	25164
827.183	24958
827.323	24989
827.462	24962
827.601	24894
827.741	24856
827.88	24954
828.02	24882
828.159	24924
828.298	24992
828.437	24985
828.577	24840
828.716	25012
828.855	24776
828.994	24711
829.134	24635
829.273	24658
829.412	24582
829.551	24703
829.69	24601
829.829	24734
829.968	24700
830.107	24707
830.246	24502
830.385	24490
830.524	24521
830.663	24597
830.802	24311
830.941	24361
831.08	24300
831.219	24251
831.357	24281
831.496	24654
831.635	24315
831.774	24110
831.913	24125
832.051	23996
832.19	24018
832.329	24117
832.467	23912
832.606	23882
832.744	23878
832.883	23904
833.022	23920
833.16	23939
833.299	23965
833.437	23988
833.576	23920
833.714	24018
833.852	23969
833.991	23980
834.129	23961
834.267	24022
834.406	24049
834.544	24034
834.682	23973
834.821	24034
834.959	23984
835.097	23889
835.235	24171
835.373	23946
835.511	23984
835.65	23851
835.788	23920
835.926	23707
836.064	23649
836.202	23695
836.34	23855
836.478	23851
836.615	23817
836.753	23874
836.891	23965
837.029	23824
837.167	23813
837.305	23794
837.443	23619
837.58	23718
837.718	23847
837.856	23676
837.993	23589
838.131	23676
838.269	23528
838.406	23562
838.544	23634
838.681	23334
838.819	23330
838.956	23178
839.094	23098
839.231	23204
839.369	23364
839.506	23554
839.643	23497
839.781	23151
839.918	23113
840.055	23105
840.193	23071
840.33	23094
840.467	23018
840.604	23098
840.742	23307
840.879	22923
841.016	22942
841.153	22999
841.29	23124
841.427	23010
841.564	23140
841.701	23018
841.838	23132
841.975	22995
842.112	23018
842.249	22782
842.385	22763
842.522	22934
842.659	22839
842.796	22831
842.933	22881
843.069	22675
843.206	22744
843.343	22835
843.479	22828
843.616	22797
843.752	22630
843.889	22565
844.025	22812
844.162	22599
844.298	22721
844.435	22607
844.571	22497
844.708	22622
844.844	22698
844.98	22698
845.117	22687
845.253	22569
845.389	22485
845.525	22489
845.661	22447
845.798	22234
845.934	22287
846.07	22409
846.206	22341
846.342	22337
846.478	22325
846.614	22158
846.75	21979
846.886	22124
847.022	22128
847.158	22101
847.294	22063
847.429	22051
847.565	22090
847.701	22204
847.837	21793
847.972	21819
848.108	21846
848.244	21755
848.379	21682
848.515	21610
848.65	21603
848.786	21576
848.921	21534
849.057	21720
849.192	21622
849.328	21701
849.463	21625
849.598	21576
849.734	21614
849.869	21447
850.004	21351
850.14	21325
850.275	21397
850.41	21230
850.545	21389
850.68	21313
850.815	21420
850.95	21256
851.085	21492
851.22	21412
851.355	21424
851.49	21386
851.625	21370
851.76	21370
851.895	21302
852.03	21317
852.165	21382
852.299	21450
852.434	21351
852.569	21401
852.703	21450
852.838	21439
852.973	21454
853.107	21454
853.242	21279
853.376	21154
853.511	21081
853.645	21169
853.78	21233
853.914	21176
854.048	21138
854.183	21332
854.317	21233
854.451	21443
854.585	21325
854.72	21176
854.854	21233
854.988	21138
855.122	21173
855.256	21119
855.39	21279
855.524	21176
855.658	21302
855.792	21291
855.926	21359
856.06	21252
856.194	21222
856.327	21226
856.461	21116
856.595	21081
856.729	21260
856.862	21230
856.996	21252
857.13	21268
857.263	21294
857.397	21393
857.53	21157
857.664	21348
857.797	21211
857.931	21302
858.064	21192
858.197	21294
858.331	21283
858.464	21089
858.597	21142
858.731	21249
858.864	21237
858.997	21142
859.13	21211
859.263	21268
859.396	21298
859.529	21180
859.662	21222
859.795	21058
859.928	21180
860.061	21329
860.194	21428
860.327	21203
860.46	21351
860.592	21249
860.725	21363
860.858	21359
860.99	21188
861.123	21135
861.256	21237
861.388	21325
861.521	22010
861.653	21127
861.786	21089
861.918	21005
862.05	21119
862.183	21165
862.315	21074
862.447	21199
862.58	21119
862.712	20918
862.844	20864
862.976	21036
863.108	21028
863.24	21272
863.372	20811
863.504	20872
863.636	20960
863.768	20963
863.9	20944
864.032	20914
864.164	20838
864.296	20963
864.428	20941
864.559	20994
864.691	20853
864.823	21020
864.954	20902
865.086	20861
865.217	20826
865.349	20598
865.48	20739
865.612	20838
865.743	20910
865.875	20815
866.006	20842
866.137	20876
866.269	20689
866.4	20727
866.531	20716
866.662	20678
866.793	20727
866.924	20773
867.055	20716
867.186	20853
867.317	20655
867.448	20655
867.579	20648
867.71	20670
867.841	20651
867.972	20712
868.103	20788
868.233	20708
868.364	20876
868.495	20845
868.625	20963
868.756	21112
868.886	20956
869.017	20971
869.147	20975
869.278	21142
869.408	20952
869.539	20994
869.669	21032
869.799	20948
869.929	21146
870.06	21085
870.19	21211
870.32	21237
870.45	21268
870.58	21233
870.71	21428
870.84	21496
870.97	21397
871.1	21408
871.23	21633
871.36	21583
871.489	21542
871.619	21568
871.749	21663
871.879	21603
872.008	21663
872.138	21564
872.267	21648
872.397	21492
872.526	21401
872.656	21481
872.785	21439
872.915	21587
873.044	21709
873.173	21580
873.303	21641
873.432	21660
873.561	21713
873.69	21477
873.819	21492
873.948	21682
874.077	21637
874.206	21720
874.335	21682
874.464	21797
874.593	21899
874.722	21884
874.851	21842
874.979	21876
875.108	21907
875.237	21857
875.365	21671
875.494	21819
875.623	21892
875.751	21717
875.88	21823
876.008	22029
876.136	22097
876.265	22367
876.393	22310
876.521	22341
876.65	22207
876.778	22287
876.906	22093
877.034	22158
877.162	22078
877.29	22131
877.418	22226
877.546	22162
877.674	22158
877.802	22090
877.93	22238
878.058	22215
878.185	21994
878.313	22040
878.441	22139
878.568	21956
878.696	22154
878.824	22295
878.951	22169
879.079	22341
879.206	22432
879.333	22257
879.461	22268
879.588	22367
879.715	22455
879.842	22402
879.97	22204
880.097	22090
880.224	21911
880.351	22120
880.478	22006
880.605	21934
880.732	22090
880.859	22219
880.986	22124
881.112	21960
881.239	21747
881.366	21732
881.493	21804
881.619	21511
881.746	21580
881.872	21553
881.999	21591
882.125	21694
882.252	21572
882.378	21538
882.505	21759
882.631	21469
882.757	21294
882.883	21363
883.01	21412
883.136	21310
883.262	21131
883.388	21226
883.514	21287
883.64	21332
883.766	21237
883.892	21123
884.018	21013
884.143	21157
884.269	21332
884.395	20971
884.52	20880
884.646	20994
884.772	20891
884.897	20830
885.023	21009
885.148	20982
885.274	21074
885.399	21096
885.524	20944
885.65	20785
885.775	21001
885.9	20914
886.025	21096
886.15	21028
886.275	20773
886.4	20902
886.525	20876
886.65	20746
886.775	20921
886.9	21001
887.025	21104
887.149	20975
887.274	20762
887.399	20712
887.523	20663
887.648	20606
887.773	20598
887.897	20743
888.021	20693
888.146	20568
888.27	20724
888.395	20849
888.519	20735
888.643	20804
888.767	20705
888.891	20541
889.015	20473
889.139	20568
889.263	20514
889.387	20606
889.511	20636
889.635	20583
889.759	20518
889.883	20499
890.006	20556
890.13	20568
890.254	20560
890.377	20442
890.501	20202
890.624	20145
890.748	20282
890.871	20149
890.995	20172
891.118	20012
891.241	20050
891.364	20122
891.488	20138
891.611	20069
891.734	20092
891.857	20046
891.98	20157
892.103	20130
892.226	20073
892.349	19951
892.471	19795
892.594	19955
892.717	19978
892.839	19997
892.962	19925
893.085	20096
893.207	20012
893.33	19780
893.452	19982
893.575	19921
893.697	19967
893.819	20176
893.941	20119
894.064	19986
894.186	19978
894.308	19860
894.43	19974
894.552	20084
894.674	20073
894.796	19875
894.918	19970
895.04	19974
895.161	20043
895.283	20084
895.405	19894
895.526	19875
895.648	19932
895.769	19978
895.891	19944
896.012	19940
896.134	20012
896.255	19989
896.376	19917
896.498	19928
896.619	19978
896.74	20001
896.861	20126
896.982	20358
897.103	20457
897.224	20263
897.345	20024
897.466	20153
897.587	20248
897.708	20423
897.828	20237
897.949	20103
898.07	20062
898.19	20130
898.311	20252
898.431	20202
898.552	20290
898.672	20305
898.792	20256
898.913	20271
899.033	20077
899.153	20035
899.273	19959
899.393	19852
899.513	20012
899.633	20012
899.753	20073
899.873	19940
899.993	19963
900.113	19936
900.232	19940
900.352	19909
900.472	19784
900.591	19852
900.711	19856
900.83	19647
900.95	19917
901.069	19803
901.189	19506
901.308	19407
901.427	19377
901.546	19327
901.665	19278
901.784	19331
901.904	19213
902.023	19080
902.141	18886
902.26	18738
902.379	18905
902.498	18764
902.617	18840
902.735	18886
902.854	18844
902.973	18791
903.091	18433
903.21	18525
903.328	18536
903.446	18388
903.565	18426
903.683	18376
903.801	18216
903.919	18369
904.038	18262
904.156	18045
904.274	18167
904.392	18072
904.51	17923
904.627	18087
904.745	18266
904.863	18133
904.981	17794
905.098	17642
905.216	17817
905.334	17805
905.451	17760
905.569	17680
905.686	17775
905.803	17771
905.921	17547
906.038	17627
906.155	17592
906.272	17414
906.389	17391
906.506	17296
906.623	17337
906.74	17318
906.857	17105
906.974	17223
907.091	17239
907.208	17467
907.324	17330
907.441	17223
907.557	17136
907.674	17003
907.79	17006
907.907	16991
908.023	17014
908.139	17048
908.256	16965
908.372	16892
908.488	16900
908.604	16687
908.72	16668
908.836	16752
908.952	16717
909.068	16653
909.184	16835
909.3	16763
909.415	16755
909.531	16702
909.647	16466
909.762	16462
909.878	16440
909.993	16447
910.108	16481
910.224	16398
910.339	16284
910.454	16299
910.57	16333
910.685	16196
910.8	16481
910.915	16344
911.03	16295
911.145	16150
911.259	16032
911.374	16025
911.489	15899
911.604	15918
911.718	15865
911.833	15778
911.947	15675
912.062	15618
912.176	15823
912.291	15781
912.405	15823
912.519	15915
912.633	15880
912.748	15861
912.862	15705
912.976	15534
913.09	15500
913.204	15534
913.318	15606
913.431	15675
913.545	15713
913.659	15648
913.772	15591
913.886	15511
914	15420
914.113	15492
914.226	15523
914.34	15428
914.453	15279
914.566	15340
914.68	15237
914.793	15294
914.906	15173
915.019	14990
915.132	14902
915.245	14963
915.358	15017
915.47	14929
915.583	14975
915.696	15028
915.809	15066
915.921	15199
916.034	14956
916.146	14914
916.259	14872
916.371	15097
916.483	14899
916.595	14834
916.708	14811
916.82	14777
916.932	14765
917.044	14659
917.156	14800
917.268	14632
917.38	14682
917.491	14655
917.603	14655
917.715	14796
917.826	14735
917.938	14682
918.049	14507
918.161	14526
918.272	14693
918.384	14667
918.495	14594
918.606	14370
918.717	14469
918.828	14419
918.939	14355
919.05	14362
919.161	14366
919.272	14259
919.383	14336
919.494	14507
919.604	14594
919.715	14358
919.826	14187
919.936	14317
920.047	14457
920.157	14317
920.267	14598
920.378	14294
920.488	14301
920.598	14560
920.708	14659
920.818	14393
920.928	14522
921.038	14678
921.148	14587
921.258	14256
921.368	14256
921.477	14092
921.587	14172
921.697	13989
921.806	14123
921.916	13989
922.025	13879
922.134	13734
922.244	13666
922.353	13814
922.462	13609
922.571	13537
922.68	13495
922.789	13426
922.898	13476
923.007	13339
923.116	13388
923.224	13403
923.333	13354
923.442	13285
923.55	13263
923.659	13270
923.767	13297
923.876	13209
923.984	13297
924.092	13133
924.201	13194
924.309	13244
924.417	13179
924.525	13145
924.633	13034
924.741	14035
924.849	12821
924.956	13061
925.064	12848
925.172	12741
925.279	12745
925.387	12852
925.494	12787
925.602	12897
925.709	12871
925.816	12844
925.924	12741
926.031	12863
926.138	12810
926.245	12817
926.352	12662
926.459	12821
926.566	12886
926.673	12677
926.779	12593
926.886	12597
926.993	12467
927.099	12441
927.206	12380
927.312	12304
927.419	12502
927.525	12403
927.631	12407
927.737	12330
927.843	12235
927.95	12178
928.056	12228
928.162	12144
928.267	12319
928.373	12760
928.479	12292
928.585	12106
928.69	12152
928.796	12243
928.901	12110
929.007	11942
929.112	12129
929.218	12034
929.323	12026
929.428	11889
929.533	12072
929.638	11961
929.743	11912
929.848	12003
929.953	11851
930.058	11760
930.163	11646
930.267	11619
930.372	11840
930.477	11592
930.581	11783
930.685	11726
930.79	11501
930.894	11474
930.998	11467
931.103	11672
931.207	11360
931.311	11204
931.415	11136
931.519	10923
931.623	10919
