Data from test_V78500241_3034.txt Node
Date: Fri Mar 25 15:30:59 CST 2022
User: usil
Spectrometer: V785-0024
Trigger mode: 0
Integration Time (sec): 4.000000E-1
Scans to average: 1
Nonlinearity correction enabled: false
Boxcar width: 0
Storing dark spectrum: false
XAxis mode: Wavelengths
Number of Pixels in Spectrum: 1024
>>>>>Begin Spectral Data<<<<<
801.071	27302
801.214	27192
801.356	26899
801.499	26944
801.641	26765
801.783	26940
801.926	26807
802.068	26750
802.211	26667
802.353	26629
802.496	26492
802.638	26396
802.78	26415
802.923	26294
803.065	26351
803.208	26309
803.35	26442
803.492	26571
803.635	26594
803.777	26389
803.919	26499
804.061	26754
804.204	26632
804.346	26507
804.488	26355
804.63	26564
804.773	26484
804.915	26602
805.057	26594
805.199	26511
805.341	26602
805.483	26785
805.626	26674
805.768	26492
805.91	26693
806.052	26689
806.194	26564
806.336	26773
806.478	26571
806.62	26651
806.762	26754
806.904	26933
807.046	27047
807.188	27020
807.33	27051
807.472	27074
807.614	26963
807.756	27036
807.898	26842
808.04	26754
808.182	26838
808.324	26933
808.465	26990
808.607	27043
808.749	27272
808.891	27355
809.033	27530
809.174	27252
809.316	27127
809.458	27233
809.6	27306
809.741	27294
809.883	27431
810.025	27591
810.166	27496
810.308	27564
810.45	27534
810.591	27306
810.733	27313
810.875	27230
811.016	27062
811.158	27131
811.299	27195
811.441	27500
811.582	27382
811.724	27336
811.865	27207
812.007	27264
812.148	27203
812.29	27355
812.431	27230
812.573	27382
812.714	27663
812.855	27743
812.997	27842
813.138	27953
813.279	27804
813.421	27812
813.562	27759
813.703	27382
813.845	27530
813.986	27104
814.127	26925
814.268	26960
814.41	26861
814.551	26819
814.692	26998
814.833	26857
814.974	26796
815.115	26895
815.256	26743
815.397	26861
815.539	26682
815.68	26716
815.821	26575
815.962	26750
816.103	26613
816.244	26499
816.385	26450
816.526	26408
816.666	26248
816.807	26202
816.948	26199
817.089	26343
817.23	26221
817.371	26221
817.512	26225
817.653	26168
817.793	26115
817.934	26138
818.075	26111
818.216	26218
818.356	26126
818.497	25925
818.638	25936
818.778	25871
818.919	25940
819.06	25894
819.2	26119
819.341	26195
819.481	26046
819.622	26328
819.762	26431
819.903	26415
820.043	26336
820.184	26343
820.324	26161
820.465	26320
820.605	26282
820.746	26256
820.886	26077
821.026	26172
821.167	26278
821.307	26278
821.447	26252
821.588	26035
821.728	26039
821.868	25693
822.008	25620
822.149	25689
822.289	25537
822.429	25362
822.569	25354
822.709	25278
822.849	25198
822.99	25103
823.13	25282
823.27	25038
823.41	25023
823.55	24962
823.69	24871
823.83	24783
823.97	24875
824.11	24719
824.25	24757
824.389	24696
824.529	24741
824.669	24844
824.809	24882
824.949	24852
825.089	24875
825.228	24852
825.368	24559
825.508	24597
825.648	24620
825.787	24585
825.927	24661
826.067	24665
826.206	24692
826.346	24768
826.485	24471
826.625	24517
826.765	24673
826.904	24673
827.044	24372
827.183	24380
827.323	24251
827.462	24369
827.601	24281
827.741	24304
827.88	24353
828.02	24140
828.159	24300
828.298	24266
828.437	24376
828.577	24186
828.716	24407
828.855	24300
828.994	23973
829.134	24114
829.273	23980
829.412	24057
829.551	23965
829.69	24087
829.829	24125
829.968	24076
830.107	24003
830.246	23893
830.385	24030
830.524	23904
830.663	23977
830.802	23756
830.941	23672
831.08	23687
831.219	23623
831.357	23707
831.496	23950
831.635	23573
831.774	23554
831.913	23581
832.051	23414
832.19	23330
832.329	23421
832.467	23170
832.606	23303
832.744	23227
832.883	23204
833.022	23292
833.16	23284
833.299	23334
833.437	23364
833.576	23341
833.714	23356
833.852	23486
833.991	23463
834.129	23387
834.267	23459
834.406	23395
834.544	23414
834.682	23337
834.821	23250
834.959	23486
835.097	23315
835.235	23372
835.373	23356
835.511	23417
835.65	23376
835.788	23250
835.926	23094
836.064	22919
836.202	23029
836.34	23170
836.478	23227
836.615	23197
836.753	23254
836.891	23372
837.029	23265
837.167	23090
837.305	23094
837.443	22995
837.58	23056
837.718	23151
837.856	23083
837.993	22904
838.131	23025
838.269	22942
838.406	22995
838.544	22763
838.681	22721
838.819	22797
838.956	22607
839.094	22440
839.231	22535
839.369	22725
839.506	22774
839.643	22824
839.781	22577
839.918	22493
840.055	22447
840.193	22577
840.33	22485
840.467	22531
840.604	22493
840.742	22653
840.879	22329
841.016	22322
841.153	22382
841.29	22432
841.427	22485
841.564	22409
841.701	22440
841.838	22299
841.975	22329
842.112	22386
842.249	22375
842.385	22207
842.522	22489
842.659	22402
842.796	22234
842.933	22207
843.069	22135
843.206	22120
843.343	22242
843.479	22154
843.616	22272
843.752	21915
843.889	21949
844.025	22169
844.162	21838
844.298	22070
844.435	21903
844.571	21915
844.708	22090
844.844	22173
844.98	22051
845.117	22109
845.253	21903
845.389	21842
845.525	21770
845.661	21732
845.798	21812
845.934	21850
846.07	21728
846.206	21701
846.342	21804
846.478	21686
846.614	21458
846.75	21408
846.886	21439
847.022	21557
847.158	21648
847.294	21367
847.429	21561
847.565	21424
847.701	21698
847.837	21241
847.972	21138
848.108	21329
848.244	21203
848.379	21062
848.515	21013
848.65	20937
848.786	21024
848.921	21108
849.057	21142
849.192	21081
849.328	21154
849.463	20948
849.598	20982
849.734	20956
849.869	20982
850.004	20891
850.14	20868
850.275	20804
850.41	20705
850.545	20663
850.68	20880
850.815	20735
850.95	20800
851.085	21051
851.22	20788
851.355	20853
851.49	20705
851.625	20819
851.76	20773
851.895	20632
852.03	20750
852.165	20762
852.299	20838
852.434	20967
852.569	20758
852.703	20792
852.838	20830
852.973	20845
853.107	20773
853.242	20727
853.376	20724
853.511	20499
853.645	20613
853.78	20670
853.914	20533
854.048	20587
854.183	20644
854.317	20640
854.451	20769
854.585	20701
854.72	20632
854.854	20727
854.988	20568
855.122	20629
855.256	20511
855.39	20697
855.524	20678
855.658	20686
855.792	20701
855.926	20731
856.06	20750
856.194	20663
856.327	20602
856.461	20533
856.595	20564
856.729	20530
856.862	20754
856.996	20583
857.13	20636
857.263	20617
857.397	20807
857.53	20621
857.664	20667
857.797	20739
857.931	20815
858.064	20659
858.197	20708
858.331	20552
858.464	20598
858.597	20514
858.731	20674
858.864	20697
858.997	20682
859.13	20575
859.263	20587
859.396	20743
859.529	20476
859.662	20712
859.795	20682
859.928	20663
860.061	20705
860.194	20830
860.327	20670
860.46	20731
860.592	20762
860.725	20746
860.858	20823
860.99	20636
861.123	20560
861.256	20552
861.388	20575
861.521	21264
861.653	20537
861.786	20533
861.918	20412
862.05	20488
862.183	20552
862.315	20598
862.447	20705
862.58	20549
862.712	20313
862.844	20248
862.976	20427
863.108	20434
863.24	20868
863.372	20320
863.504	20240
863.636	20355
863.768	20370
863.9	20457
864.032	20240
864.164	20225
864.296	20229
864.428	20381
864.559	20381
864.691	20389
864.823	20351
864.954	20355
865.086	20290
865.217	20214
865.349	20259
865.48	20263
865.612	20187
865.743	20518
865.875	20298
866.006	20142
866.137	20248
866.269	20305
866.4	20191
866.531	20168
866.662	20218
866.793	20271
866.924	20103
867.055	20214
867.186	20358
867.317	20107
867.448	20103
867.579	20214
867.71	20210
867.841	20115
867.972	20081
868.103	20195
868.233	20218
868.364	20084
868.495	20275
868.625	20484
868.756	20564
868.886	20324
869.017	20286
869.147	20507
869.278	20571
869.408	20499
869.539	20423
869.669	20343
869.799	20537
869.929	20625
870.06	20564
870.19	20834
870.32	20796
870.45	20807
870.58	20838
870.71	20967
870.84	21020
870.97	20921
871.1	20811
871.23	20986
871.36	21093
871.489	20967
871.619	21017
871.749	21013
871.879	21104
872.008	21112
872.138	21009
872.267	21089
872.397	20906
872.526	20842
872.656	20800
872.785	20823
872.915	20998
873.044	21089
873.173	21001
873.303	21157
873.432	21089
873.561	21108
873.69	21062
873.819	21032
873.948	21108
874.077	21051
874.206	21039
874.335	21123
874.464	21192
874.593	21222
874.722	21252
874.851	21374
874.979	21306
875.108	21370
875.237	21256
875.365	21264
875.494	21203
875.623	21241
875.751	21252
875.88	21416
876.008	21530
876.136	21439
876.265	21800
876.393	21709
876.521	21625
876.65	21854
876.778	21682
876.906	21660
877.034	21530
877.162	21804
877.29	21637
877.418	21595
877.546	21732
877.674	21656
877.802	21625
877.93	21526
878.058	21648
878.185	21576
878.313	21519
878.441	21793
878.568	21477
878.696	21515
878.824	21739
878.951	21717
879.079	21838
879.206	22070
879.333	21793
879.461	21713
879.588	21766
879.715	21907
879.842	21865
879.97	21682
880.097	21447
880.224	21466
880.351	21599
880.478	21443
880.605	21317
880.732	21439
880.859	21675
880.986	21488
881.112	21530
881.239	21291
881.366	21184
881.493	21146
881.619	20956
881.746	21096
881.872	21058
881.999	21074
882.125	21039
882.252	21161
882.378	21013
882.505	21211
882.631	21009
882.757	20743
882.883	20967
883.01	20823
883.136	20769
883.262	20712
883.388	20609
883.514	20883
883.64	20758
883.766	20648
883.892	20663
884.018	20644
884.143	20785
884.269	20762
884.395	20541
884.52	20412
884.646	20533
884.772	20381
884.897	20488
885.023	20419
885.148	20564
885.274	20613
885.399	20549
885.524	20438
885.65	20469
885.775	20393
885.9	20377
886.025	20442
886.15	20552
886.275	20320
886.4	20339
886.525	20278
886.65	20351
886.775	20237
886.9	20415
887.025	20625
887.149	20374
887.274	20263
887.399	20138
887.523	20225
887.648	20046
887.773	20153
887.897	20290
888.021	20278
888.146	20172
888.27	20176
888.395	20351
888.519	20256
888.643	20278
888.767	20271
888.891	20039
889.015	19894
889.139	20058
889.263	19928
889.387	20142
889.511	20237
889.635	20107
889.759	19982
889.883	19925
890.006	19978
890.13	20103
890.254	19818
890.377	19936
890.501	19700
890.624	19677
890.748	19784
890.871	19689
890.995	19544
891.118	19521
891.241	19639
891.364	19651
891.488	19689
891.611	19559
891.734	19540
891.857	19738
891.98	19514
892.103	19658
892.226	19365
892.349	19449
892.471	19301
892.594	19491
892.717	19506
892.839	19521
892.962	19457
893.085	19582
893.207	19563
893.33	19434
893.452	19419
893.575	19544
893.697	19362
893.819	19772
893.941	19681
894.064	19643
894.186	19411
894.308	19487
894.43	19651
894.552	19597
894.674	19483
894.796	19373
894.918	19430
895.04	19521
895.161	19540
895.283	19620
895.405	19400
895.526	19464
895.648	19441
895.769	19518
895.891	19518
896.012	19639
896.134	19601
896.255	19495
896.376	19449
896.498	19472
896.619	19559
896.74	19552
896.861	19624
896.982	19830
897.103	20035
897.224	19814
897.345	19807
897.466	19666
897.587	19715
897.708	19723
897.828	19761
897.949	19651
898.07	19491
898.19	19704
898.311	19860
898.431	19655
898.552	19666
898.672	19833
898.792	19906
898.913	19731
899.033	19662
899.153	19567
899.273	19369
899.393	19419
899.513	19578
899.633	19510
899.753	19483
899.873	19449
899.993	19403
900.113	19422
900.232	19457
900.352	19403
900.472	19133
900.591	19270
900.711	19285
900.83	19160
900.95	19373
901.069	19289
901.189	19133
901.308	19046
901.427	18890
901.546	18878
901.665	18871
901.784	18875
901.904	18726
902.023	18658
902.141	18506
902.26	18513
902.379	18486
902.498	18403
902.617	18403
902.735	18445
902.854	18418
902.973	18289
903.091	18045
903.21	18045
903.328	18060
903.446	17912
903.565	17908
903.683	17840
903.801	17870
903.919	17707
904.038	17847
904.156	17691
904.274	17794
904.392	17573
904.51	17619
904.627	17691
904.745	17676
904.863	17592
904.981	17436
905.098	17364
905.216	17391
905.334	17379
905.451	17353
905.569	17246
905.686	17258
905.803	17303
905.921	17064
906.038	17334
906.155	17258
906.272	17102
906.389	16980
906.506	16911
906.623	16885
906.74	16843
906.857	16790
906.974	16748
907.091	16873
907.208	16908
907.324	16835
907.441	16885
907.557	16599
907.674	16603
907.79	16523
907.907	16596
908.023	16546
908.139	16569
908.256	16584
908.372	16455
908.488	16497
908.604	16325
908.72	16367
908.836	16223
908.952	16341
909.068	16337
909.184	16341
909.3	16367
909.415	16390
909.531	16265
909.647	16051
909.762	16048
909.878	16063
909.993	16032
910.108	15979
910.224	15835
910.339	16036
910.454	15823
910.57	15945
910.685	15835
910.8	15994
910.915	16002
911.03	15789
911.145	15644
911.259	15663
911.374	15591
911.489	15545
911.604	15416
911.718	15401
911.833	15500
911.947	15317
912.062	15203
912.176	15408
912.291	15428
912.405	15416
912.519	15610
912.633	15618
912.748	15336
912.862	15374
912.976	15222
913.09	15233
913.204	15203
913.318	15336
913.431	15370
913.545	15233
913.659	15264
913.772	15173
913.886	14982
914	14994
914.113	15005
914.226	15116
914.34	15017
914.453	14811
914.566	14998
914.68	14800
914.793	14762
914.906	14716
915.019	14575
915.132	14651
915.245	14686
915.358	14621
915.47	14613
915.583	14659
915.696	14678
915.809	14796
915.921	14758
916.034	14507
916.146	14560
916.259	14651
916.371	14594
916.483	14651
916.595	14541
916.708	14454
916.82	14613
916.932	14438
917.044	14385
917.156	14298
917.268	14267
917.38	14286
917.491	14256
917.603	14252
917.715	14412
917.826	14412
917.938	14183
918.049	14138
918.161	14240
918.272	14389
918.384	14339
918.495	14244
918.606	14149
918.717	14016
918.828	14088
918.939	13974
919.05	13974
919.161	14100
919.272	13879
919.383	13944
919.494	14138
919.604	14328
919.715	14081
919.826	13917
919.936	13932
920.047	14039
920.157	14077
920.267	14187
920.378	14035
920.488	14043
920.598	14149
920.708	14301
920.818	14111
920.928	14161
921.038	14320
921.148	14195
921.258	14043
921.368	13841
921.477	13791
921.587	13784
921.697	13708
921.806	13788
921.916	13590
922.025	13491
922.134	13514
922.244	13441
922.353	13544
922.462	13403
922.571	13297
922.68	13126
922.789	13053
922.898	13156
923.007	13008
923.116	13114
923.224	13076
923.333	13046
923.442	12905
923.55	12935
923.659	13027
923.767	12989
923.876	12806
923.984	12989
924.092	12783
924.201	12852
924.309	12810
924.417	12798
924.525	12753
924.633	12806
924.741	13521
924.849	12566
924.956	12642
925.064	12601
925.172	12502
925.279	12498
925.387	12528
925.494	12532
925.602	12700
925.709	12494
925.816	12467
925.924	12452
926.031	12479
926.138	12433
926.245	12433
926.352	12334
926.459	12502
926.566	12490
926.673	12429
926.779	12418
926.886	12327
926.993	12144
927.099	12117
927.206	12106
927.312	12049
927.419	12167
927.525	12041
927.631	12175
927.737	12026
927.843	12030
927.95	11882
928.056	11931
928.162	12022
928.267	12045
928.373	12612
928.479	12133
928.585	11726
928.69	11828
928.796	11931
928.901	11760
929.007	11627
929.112	11885
929.218	11733
929.323	11756
929.428	11695
929.533	11802
929.638	11630
929.743	11611
929.848	11630
929.953	11649
930.058	11547
930.163	11368
930.267	11398
930.372	11501
930.477	11360
930.581	11577
930.685	11429
930.79	11353
930.894	11330
930.998	11269
931.103	11349
931.207	11094
931.311	10980
931.415	10885
931.519	10706
931.623	10714
