Data from test_V78500241_498.txt Node
Date: Fri Mar 25 15:13:19 CST 2022
User: usil
Spectrometer: V785-0024
Trigger mode: 0
Integration Time (sec): 4.000000E-1
Scans to average: 1
Nonlinearity correction enabled: false
Boxcar width: 0
Storing dark spectrum: false
XAxis mode: Wavelengths
Number of Pixels in Spectrum: 1024
>>>>>Begin Spectral Data<<<<<
801.071	27519
801.214	27408
801.356	27245
801.499	27195
801.641	27089
801.783	27241
801.926	27203
802.068	27001
802.211	26899
802.353	26933
802.496	26724
802.638	26678
802.78	26876
802.923	26739
803.065	26659
803.208	26720
803.35	26689
803.492	26785
803.635	26849
803.777	26739
803.919	26830
804.061	27192
804.204	26777
804.346	26842
804.488	26826
804.63	26998
804.773	26826
804.915	26842
805.057	26979
805.199	26830
805.341	26845
805.483	27005
805.626	26952
805.768	26762
805.91	26994
806.052	27104
806.194	26792
806.336	27142
806.478	26990
806.62	26891
806.762	27096
806.904	27207
807.046	27439
807.188	27420
807.33	27580
807.472	27542
807.614	27397
807.756	27329
807.898	27332
808.04	27237
808.182	27306
808.324	27310
808.465	27203
808.607	27542
808.749	27591
808.891	27800
809.033	27728
809.174	27641
809.316	27610
809.458	27477
809.6	27504
809.741	27648
809.883	27660
810.025	27892
810.166	27987
810.308	27930
810.45	27914
810.591	27937
810.733	27781
810.875	27663
811.016	27542
811.158	27545
811.299	27770
811.441	27762
811.582	27709
811.724	27526
811.865	27648
812.007	27637
812.148	27728
812.29	27656
812.431	27667
812.573	27956
812.714	27983
812.855	28097
812.997	28223
813.138	28257
813.279	28207
813.421	28162
813.562	28158
813.703	28124
813.845	27918
813.986	27572
814.127	27454
814.268	27412
814.41	27169
814.551	27275
814.692	27370
814.833	27336
814.974	27386
815.115	27256
815.256	27249
815.397	27165
815.539	27268
815.68	27096
815.821	26986
815.962	27173
816.103	27096
816.244	27005
816.385	26785
816.526	26712
816.666	26644
816.807	26602
816.948	26716
817.089	26564
817.23	26552
817.371	26686
817.512	26556
817.653	26461
817.793	26609
817.934	26571
818.075	26587
818.216	26434
818.356	26507
818.497	26465
818.638	26484
818.778	26381
818.919	26278
819.06	26305
819.2	26526
819.341	26606
819.481	26537
819.622	26754
819.762	26914
819.903	26868
820.043	26781
820.184	26644
820.324	26609
820.465	26838
820.605	26788
820.746	26697
820.886	26621
821.026	26674
821.167	26617
821.307	26708
821.447	26621
821.588	26514
821.728	26507
821.868	26191
822.008	26081
822.149	26005
822.289	25925
822.429	25738
822.569	25788
822.709	25715
822.849	25620
822.99	25567
823.13	25472
823.27	25419
823.41	25419
823.55	25209
823.69	25308
823.83	25297
823.97	25308
824.11	25198
824.25	25137
824.389	25072
824.529	25251
824.669	25190
824.809	25392
824.949	25232
825.089	25285
825.228	25099
825.368	24935
825.508	25168
825.648	25088
825.787	25057
825.927	25259
826.067	24992
826.206	25080
826.346	25091
826.485	25042
826.625	25091
826.765	25190
826.904	25175
827.044	24776
827.183	24802
827.323	24791
827.462	24844
827.601	24814
827.741	24791
827.88	24684
828.02	24521
828.159	24760
828.298	24776
828.437	24791
828.577	24582
828.716	24791
828.855	24604
828.994	24445
829.134	24475
829.273	24574
829.412	24460
829.551	24429
829.69	24486
829.829	24525
829.968	24696
830.107	24498
830.246	24483
830.385	24346
830.524	24361
830.663	24391
830.802	24110
830.941	24121
831.08	24034
831.219	24220
831.357	24129
831.496	24213
831.635	24079
831.774	23870
831.913	24064
832.051	23874
832.19	23817
832.329	24034
832.467	23882
832.606	23737
832.744	23756
832.883	23870
833.022	23840
833.16	23790
833.299	23923
833.437	23745
833.576	23824
833.714	23874
833.852	23969
833.991	23863
834.129	23935
834.267	23840
834.406	23756
834.544	23954
834.682	23893
834.821	23794
834.959	24114
835.097	23649
835.235	23904
835.373	23893
835.511	23710
835.65	23638
835.788	23566
835.926	23623
836.064	23547
836.202	23627
836.34	23745
836.478	23752
836.615	23551
836.753	23741
836.891	23786
837.029	23729
837.167	23474
837.305	23509
837.443	23600
837.58	23528
837.718	23604
837.856	23558
837.993	23444
838.131	23531
838.269	23398
838.406	23391
838.544	23311
838.681	23220
838.819	23147
838.956	22980
839.094	23003
839.231	23025
839.369	23204
839.506	23349
839.643	23223
839.781	23079
839.918	22828
840.055	22995
840.193	23003
840.33	22809
840.467	22885
840.604	22976
840.742	23223
840.879	22793
841.016	22748
841.153	22824
841.29	23003
841.427	22793
841.564	22976
841.701	22885
841.838	22820
841.975	22835
842.112	22778
842.249	22641
842.385	22649
842.522	22946
842.659	22736
842.796	22622
842.933	22710
843.069	22615
843.206	22561
843.343	22812
843.479	22679
843.616	22702
843.752	22504
843.889	22409
844.025	22535
844.162	22485
844.298	22634
844.435	22489
844.571	22348
844.708	22546
844.844	22538
844.98	22531
845.117	22523
845.253	22516
845.389	22303
845.525	22443
845.661	22249
845.798	22177
845.934	22417
846.07	22200
846.206	22196
846.342	22238
846.478	22192
846.614	21991
846.75	21934
846.886	21876
847.022	21937
847.158	21975
847.294	21922
847.429	21945
847.565	21979
847.701	22188
847.837	21720
847.972	21599
848.108	21800
848.244	21724
848.379	21504
848.515	21454
848.65	21469
848.786	21431
848.921	21580
849.057	21576
849.192	21542
849.328	21580
849.463	21507
849.598	21424
849.734	21321
849.869	21431
850.004	21317
850.14	21329
850.275	21211
850.41	21275
850.545	21264
850.68	21321
850.815	21348
850.95	21127
851.085	21504
851.22	21260
851.355	21321
851.49	21275
851.625	21256
851.76	21294
851.895	21310
852.03	21256
852.165	21355
852.299	21245
852.434	21332
852.569	21321
852.703	21340
852.838	21321
852.973	21291
853.107	21378
853.242	21233
853.376	21127
853.511	21112
853.645	21058
853.78	21161
853.914	21043
854.048	21180
854.183	21020
854.317	21146
854.451	21249
854.585	21104
854.72	21043
854.854	21207
854.988	20982
855.122	21081
855.256	21051
855.39	21047
855.524	21096
855.658	21074
855.792	21039
855.926	21154
856.06	21207
856.194	21222
856.327	21119
856.461	20956
856.595	21055
856.729	21123
856.862	21180
856.996	21062
857.13	21165
857.263	21203
857.397	21260
857.53	21116
857.664	21112
857.797	21195
857.931	21203
858.064	21077
858.197	21157
858.331	21028
858.464	20990
858.597	20971
858.731	21001
858.864	21138
858.997	21032
859.13	21013
859.263	21154
859.396	21176
859.529	21062
859.662	21047
859.795	21024
859.928	21169
860.061	21211
860.194	21264
860.327	21119
860.46	20990
860.592	21272
860.725	21230
860.858	21272
860.99	21108
861.123	20956
861.256	20937
861.388	21077
861.521	21774
861.653	20895
861.786	20982
861.918	21032
862.05	21051
862.183	21020
862.315	21074
862.447	21066
862.58	21043
862.712	20777
862.844	20815
862.976	20899
863.108	20868
863.24	21135
863.372	20765
863.504	20777
863.636	20807
863.768	20956
863.9	20701
864.032	20765
864.164	20804
864.296	20788
864.428	20895
864.559	20902
864.691	20876
864.823	20868
864.954	20834
865.086	20746
865.217	20720
865.349	20651
865.48	20762
865.612	20716
865.743	20815
865.875	20762
866.006	20651
866.137	20788
866.269	20617
866.4	20621
866.531	20674
866.662	20613
866.793	20697
866.924	20609
867.055	20663
867.186	20663
867.317	20651
867.448	20473
867.579	20625
867.71	20594
867.841	20545
867.972	20655
868.103	20552
868.233	20598
868.364	20746
868.495	20861
868.625	20910
868.756	20944
868.886	20796
869.017	20845
869.147	21009
869.278	21005
869.408	20967
869.539	20845
869.669	20925
869.799	21013
869.929	21047
870.06	21009
870.19	21104
870.32	21211
870.45	21249
870.58	21241
870.71	21435
870.84	21378
870.97	21302
871.1	21294
871.23	21545
871.36	21424
871.489	21405
871.619	21443
871.749	21515
871.879	21439
872.008	21576
872.138	21466
872.267	21378
872.397	21245
872.526	21344
872.656	21332
872.785	21249
872.915	21408
873.044	21496
873.173	21488
873.303	21595
873.432	21538
873.561	21644
873.69	21610
873.819	21507
873.948	21610
874.077	21576
874.206	21351
874.335	21511
874.464	21679
874.593	21743
874.722	21660
874.851	21831
874.979	21682
875.108	21846
875.237	21629
875.365	21709
875.494	21709
875.623	21770
875.751	21690
875.88	21797
876.008	21785
876.136	21922
876.265	22090
876.393	22185
876.521	22230
876.65	22143
876.778	21994
876.906	22006
877.034	22120
877.162	22131
877.29	22025
877.418	22169
877.546	22211
877.674	22215
877.802	22105
877.93	22029
878.058	22029
878.185	22044
878.313	22090
878.441	22040
878.568	21949
878.696	22135
878.824	22162
878.951	22261
879.079	22268
879.206	22428
879.333	22337
879.461	22093
879.588	22230
879.715	22303
879.842	22341
879.97	22265
880.097	21953
880.224	21880
880.351	21983
880.478	21949
880.605	21911
880.732	22021
880.859	22200
880.986	21880
881.112	21888
881.239	21736
881.366	21755
881.493	21660
881.619	21485
881.746	21542
881.872	21538
881.999	21488
882.125	21454
882.252	21583
882.378	21492
882.505	21561
882.631	21397
882.757	21279
882.883	21294
883.01	21165
883.136	21211
883.262	21043
883.388	21085
883.514	21348
883.64	21332
883.766	21119
883.892	21066
884.018	20963
884.143	21348
884.269	21302
884.395	21017
884.52	20724
884.646	20918
884.772	20792
884.897	20781
885.023	20952
885.148	21036
885.274	20982
885.399	20918
885.524	20876
885.65	20921
885.775	20788
885.9	20788
886.025	20967
886.15	20941
886.275	20842
886.4	20727
886.525	20720
886.65	20830
886.775	20735
886.9	21074
887.025	20990
887.149	20819
887.274	20648
887.399	20769
887.523	20750
887.648	20693
887.773	20545
887.897	20712
888.021	20777
888.146	20609
888.27	20697
888.395	20727
888.519	20533
888.643	20670
888.767	20617
888.891	20560
889.015	20457
889.139	20446
889.263	20431
889.387	20575
889.511	20792
889.635	20552
889.759	20366
889.883	20362
890.006	20358
890.13	20366
890.254	20370
890.377	20366
890.501	20130
890.624	20130
890.748	20199
890.871	20058
890.995	20062
891.118	19932
891.241	19959
891.364	19959
891.488	20107
891.611	20096
891.734	19917
891.857	20054
891.98	20039
892.103	20050
892.226	20027
892.349	20005
892.471	19776
892.594	19989
892.717	19963
892.839	19849
892.962	19921
893.085	20100
893.207	19925
893.33	19689
893.452	19750
893.575	20031
893.697	19849
893.819	20016
893.941	20130
894.064	20077
894.186	19772
894.308	19909
894.43	20008
894.552	19982
894.674	20050
894.796	19769
894.918	19921
895.04	19811
895.161	20005
895.283	19986
895.405	19868
895.526	19925
895.648	19970
895.769	19951
895.891	19997
896.012	19970
896.134	20027
896.255	19959
896.376	19864
896.498	19883
896.619	19986
896.74	19845
896.861	20001
896.982	20172
897.103	20343
897.224	20290
897.345	20153
897.466	20077
897.587	20149
897.708	20271
897.828	20271
897.949	20054
898.07	20046
898.19	20073
898.311	20256
898.431	19921
898.552	20130
898.672	20187
898.792	20172
898.913	20107
899.033	20035
899.153	19902
899.273	19780
899.393	19845
899.513	19944
899.633	19856
899.753	19940
899.873	19822
899.993	20020
900.113	19723
900.232	19849
900.352	19875
900.472	19750
900.591	19647
900.711	19723
900.83	19635
900.95	19784
901.069	19837
901.189	19578
901.308	19343
901.427	19171
901.546	19312
901.665	19293
901.784	19297
901.904	19103
902.023	18977
902.141	18806
902.26	18795
902.379	18787
902.498	18776
902.617	18787
902.735	18817
902.854	18768
902.973	18661
903.091	18380
903.21	18437
903.328	18422
903.446	18330
903.565	18380
903.683	18330
903.801	18087
903.919	18213
904.038	18155
904.156	17992
904.274	18053
904.392	17859
904.51	17992
904.627	18087
904.745	18095
904.863	18011
904.981	17805
905.098	17687
905.216	17745
905.334	17684
905.451	17665
905.569	17611
905.686	17646
905.803	17748
905.921	17486
906.038	17627
906.155	17543
906.272	17337
906.389	17337
906.506	17277
906.623	17254
906.74	17250
906.857	17094
906.974	17098
907.091	17337
907.208	17284
907.324	17246
907.441	17208
907.557	16953
907.674	16953
907.79	16858
907.907	16881
908.023	16953
908.139	16927
908.256	16748
908.372	16831
908.488	16782
908.604	16618
908.72	16694
908.836	16683
908.952	16618
909.068	16618
909.184	16675
909.3	16649
909.415	16679
909.531	16565
909.647	16504
909.762	16424
909.878	16341
909.993	16371
910.108	16325
910.224	16287
910.339	16379
910.454	16234
910.57	16257
910.685	16219
910.8	16329
910.915	16360
911.03	16261
911.145	15941
911.259	16040
911.374	16082
911.489	15899
911.604	15884
911.718	15682
911.833	15785
911.947	15591
912.062	15564
912.176	15675
912.291	15663
912.405	15603
912.519	15922
912.633	15819
912.748	15808
912.862	15618
912.976	15538
913.09	15336
913.204	15542
913.318	15568
913.431	15568
913.545	15523
913.659	15652
913.772	15374
913.886	15344
914	15332
914.113	15454
914.226	15561
914.34	15424
914.453	15294
914.566	15321
914.68	15173
914.793	15218
914.906	14963
915.019	14933
915.132	14921
915.245	14933
915.358	14994
915.47	14979
915.583	14967
915.696	14899
915.809	15051
915.921	15013
916.034	14880
916.146	14804
916.259	14857
916.371	14853
916.483	14834
916.595	14705
916.708	14765
916.82	14754
916.932	14777
917.044	14663
917.156	14640
917.268	14636
917.38	14587
917.491	14590
917.603	14571
917.715	14670
917.826	14697
917.938	14495
918.049	14400
918.161	14423
918.272	14617
918.384	14610
918.495	14537
918.606	14396
918.717	14320
918.828	14423
918.939	14469
919.05	14263
919.161	14336
919.272	14225
919.383	14202
919.494	14450
919.604	14545
919.715	14332
919.826	14381
919.936	14298
920.047	14362
920.157	14256
920.267	14492
920.378	14240
920.488	14324
920.598	14530
920.708	14583
920.818	14522
920.928	14465
921.038	14667
921.148	14674
921.258	14252
921.368	14252
921.477	14107
921.587	14081
921.697	13986
921.806	14153
921.916	13970
922.025	13791
922.134	13666
922.244	13636
922.353	13761
922.462	13715
922.571	13521
922.68	13476
922.789	13289
922.898	13422
923.007	13354
923.116	13430
923.224	13407
923.333	13331
923.442	13346
923.55	13289
923.659	13187
923.767	13304
923.876	13179
923.984	13228
924.092	13133
924.201	13168
924.309	13160
924.417	13149
924.525	13042
924.633	13099
924.741	13799
924.849	12878
924.956	12947
925.064	12932
925.172	12787
925.279	12852
925.387	12897
925.494	12760
925.602	12890
925.709	12791
925.816	12703
925.924	12779
926.031	12859
926.138	12806
926.245	12814
926.352	12574
926.459	12768
926.566	12833
926.673	12650
926.779	12509
926.886	12574
926.993	12361
927.099	12323
927.206	12342
927.312	12357
927.419	12296
927.525	12391
927.631	12395
927.737	12239
927.843	12292
927.95	12144
928.056	12190
928.162	12254
928.267	12152
928.373	12768
928.479	12308
928.585	12053
928.69	12110
928.796	12098
928.901	12098
929.007	11920
929.112	12026
929.218	12076
929.323	12015
929.428	11999
929.533	12049
929.638	11878
929.743	11855
929.848	11942
929.953	11836
930.058	11775
930.163	11581
930.267	11592
930.372	11794
930.477	11611
930.581	11805
930.685	11592
930.79	11528
930.894	11551
930.998	11467
931.103	11581
931.207	11307
931.311	11155
931.415	11113
931.519	10896
931.623	10919
