Data from test_V78500241_1101.txt Node
Date: Fri Mar 25 15:17:31 CST 2022
User: usil
Spectrometer: V785-0024
Trigger mode: 0
Integration Time (sec): 4.000000E-1
Scans to average: 1
Nonlinearity correction enabled: false
Boxcar width: 0
Storing dark spectrum: false
XAxis mode: Wavelengths
Number of Pixels in Spectrum: 1024
>>>>>Begin Spectral Data<<<<<
801.071	28538
801.214	28440
801.356	28143
801.499	27949
801.641	27991
801.783	28013
801.926	28166
802.068	28063
802.211	28010
802.353	27835
802.496	27648
802.638	27656
802.78	27637
802.923	27576
803.065	27549
803.208	27572
803.35	27705
803.492	27812
803.635	27800
803.777	27629
803.919	27983
804.061	28257
804.204	27987
804.346	27808
804.488	27728
804.63	27956
804.773	27816
804.915	27892
805.057	28036
805.199	27838
805.341	28036
805.483	28086
805.626	27956
805.768	27941
805.91	27937
806.052	28070
806.194	28040
806.336	28246
806.478	28032
806.62	28040
806.762	28124
806.904	28188
807.046	28535
807.188	28535
807.33	28462
807.472	28493
807.614	28474
807.756	28436
807.898	28382
808.04	28371
808.182	28394
808.324	28276
808.465	28466
808.607	28546
808.749	28599
808.891	28740
809.033	28820
809.174	28767
809.316	28713
809.458	28637
809.6	28675
809.741	28698
809.883	28892
810.025	28873
810.166	28938
810.308	29029
810.45	28858
810.591	28923
810.733	28713
810.875	28740
811.016	28607
811.158	28527
811.299	28683
811.441	28987
811.582	28782
811.724	28782
811.865	28828
812.007	28653
812.148	28729
812.29	28664
812.431	28850
812.573	29029
812.714	29037
812.855	29299
812.997	29551
813.138	29368
813.279	29353
813.421	29398
813.562	29181
813.703	29143
813.845	28896
813.986	28721
814.127	28607
814.268	28466
814.41	28573
814.551	28405
814.692	28653
814.833	28329
814.974	28352
815.115	28485
815.256	28230
815.397	28379
815.539	28291
815.68	28303
815.821	28234
815.962	28379
816.103	28238
816.244	28154
816.385	28166
816.526	28135
816.666	27816
816.807	27842
816.948	27975
817.089	27960
817.23	27606
817.371	27876
817.512	27800
817.653	27941
817.793	27679
817.934	27766
818.075	27857
818.216	27831
818.356	27774
818.497	27641
818.638	27496
818.778	27542
818.919	27511
819.06	27660
819.2	27781
819.341	27808
819.481	27717
819.622	27994
819.762	28207
819.903	27968
820.043	27930
820.184	27884
820.324	27835
820.465	28017
820.605	27846
820.746	27914
820.886	27816
821.026	27975
821.167	27953
821.307	27873
821.447	27975
821.588	27648
821.728	27580
821.868	27515
822.008	27325
822.149	27317
822.289	27195
822.429	27077
822.569	26902
822.709	26994
822.849	26819
822.99	26864
823.13	26773
823.27	26769
823.41	26670
823.55	26609
823.69	26602
823.83	26731
823.97	26640
824.11	26476
824.25	26339
824.389	26317
824.529	26537
824.669	26404
824.809	26670
824.949	26503
825.089	26545
825.228	26461
825.368	26374
825.508	26286
825.648	26377
825.787	26366
825.927	26370
826.067	26210
826.206	26328
826.346	26355
826.485	26400
826.625	26278
826.765	26339
826.904	26370
827.044	26210
827.183	26077
827.323	26134
827.462	26062
827.601	25978
827.741	25963
827.88	26035
828.02	25970
828.159	26050
828.298	26134
828.437	26096
828.577	26027
828.716	26073
828.855	25959
828.994	25746
829.134	25807
829.273	25769
829.412	25681
829.551	25658
829.69	25833
829.829	25852
829.968	25833
830.107	25845
830.246	25852
830.385	25681
830.524	25643
830.663	25487
830.802	25422
830.941	25441
831.08	25407
831.219	25487
831.357	25464
831.496	25601
831.635	25419
831.774	25346
831.913	25263
832.051	25190
832.19	25263
832.329	25160
832.467	25065
832.606	25099
832.744	24973
832.883	25065
833.022	25107
833.16	25050
833.299	25126
833.437	25038
833.576	25293
833.714	25114
833.852	25164
833.991	25206
834.129	25190
834.267	25217
834.406	25187
834.544	25266
834.682	25137
834.821	25008
834.959	25304
835.097	25004
835.235	25175
835.373	25171
835.511	25053
835.65	25042
835.788	24985
835.926	24798
836.064	24749
836.202	24852
836.34	24852
836.478	24992
836.615	24829
836.753	25046
836.891	25027
837.029	25095
837.167	24989
837.305	24992
837.443	24787
837.58	24776
837.718	24901
837.856	24806
837.993	24795
838.131	24882
838.269	24597
838.406	24787
838.544	24536
838.681	24486
838.819	24311
838.956	24365
839.094	24353
839.231	24376
839.369	24456
839.506	24726
839.643	24464
839.781	24254
839.918	24171
840.055	24361
840.193	24319
840.33	24133
840.467	24163
840.604	24163
840.742	24456
840.879	24011
841.016	24163
841.153	24110
841.29	24338
841.427	24159
841.564	24220
841.701	24285
841.838	24098
841.975	24026
842.112	24152
842.249	23988
842.385	23904
842.522	24030
842.659	23977
842.796	24030
842.933	23977
843.069	23767
843.206	23965
843.343	23935
843.479	24102
843.616	23984
843.752	23672
843.889	23722
844.025	23855
844.162	23570
844.298	23707
844.435	23672
844.571	23760
844.708	23733
844.844	23920
844.98	23874
845.117	23798
845.253	23661
845.389	23596
845.525	23531
845.661	23573
845.798	23436
845.934	23627
846.07	23433
846.206	23345
846.342	23528
846.478	23482
846.614	23250
846.75	23025
846.886	23147
847.022	23204
847.158	23197
847.294	23250
847.429	23166
847.565	23208
847.701	23356
847.837	22976
847.972	22869
848.108	22987
848.244	23128
848.379	22812
848.515	22763
848.65	22778
848.786	22706
848.921	22824
849.057	22919
849.192	22858
849.328	22725
849.463	22862
849.598	22736
849.734	22721
849.869	22656
850.004	22519
850.14	22596
850.275	22527
850.41	22470
850.545	22455
850.68	22630
850.815	22626
850.95	22485
851.085	22698
851.22	22672
851.355	22580
851.49	22512
851.625	22546
851.76	22436
851.895	22489
852.03	22474
852.165	22554
852.299	22455
852.434	22710
852.569	22634
852.703	22542
852.838	22603
852.973	22748
853.107	22622
853.242	22489
853.376	22299
853.511	22333
853.645	22329
853.78	22440
853.914	22379
854.048	22352
854.183	22367
854.317	22508
854.451	22596
854.585	22306
854.72	22371
854.854	22409
854.988	22284
855.122	22280
855.256	22181
855.39	22375
855.524	22443
855.658	22375
855.792	22173
855.926	22310
856.06	22325
856.194	22363
856.327	22386
856.461	22363
856.595	22177
856.729	22246
856.862	22489
856.996	22367
857.13	22371
857.263	22500
857.397	22428
857.53	22249
857.664	22242
857.797	22398
857.931	22417
858.064	22367
858.197	22379
858.331	22261
858.464	22295
858.597	22265
858.731	22405
858.864	22295
858.997	22310
859.13	22318
859.263	22409
859.396	22390
859.529	22215
859.662	22280
859.795	22390
859.928	22310
860.061	22557
860.194	22573
860.327	22409
860.46	22402
860.592	22474
860.725	22493
860.858	22470
860.99	22291
861.123	22253
861.256	22261
861.388	22341
861.521	23052
861.653	22242
861.786	22067
861.918	22238
862.05	22249
862.183	22185
862.315	22295
862.447	22253
862.58	22257
862.712	22169
862.844	21907
862.976	22116
863.108	22192
863.24	22440
863.372	21930
863.504	22120
863.636	22097
863.768	22070
863.9	21876
864.032	21857
864.164	22006
864.296	22055
864.428	22173
864.559	22078
864.691	22204
864.823	22101
864.954	21930
865.086	21926
865.217	21968
865.349	21816
865.48	21869
865.612	21903
865.743	22017
865.875	22010
866.006	21934
866.137	22010
866.269	22013
866.4	22017
866.531	21816
866.662	21846
866.793	21823
866.924	21728
867.055	21949
867.186	21873
867.317	21846
867.448	21888
867.579	21892
867.71	21724
867.841	21781
867.972	21797
868.103	21732
868.233	21850
868.364	21774
868.495	21842
868.625	22074
868.756	22181
868.886	21998
869.017	22196
869.147	22185
869.278	22238
869.408	22265
869.539	22097
869.669	22261
869.799	22158
869.929	22276
870.06	22238
870.19	22379
870.32	22451
870.45	22462
870.58	22504
870.71	22588
870.84	22634
870.97	22451
871.1	22508
871.23	22653
871.36	22793
871.489	22634
871.619	22630
871.749	22675
871.879	22694
872.008	22797
872.138	22561
872.267	22706
872.397	22554
872.526	22428
872.656	22584
872.785	22630
872.915	22782
873.044	22786
873.173	22759
873.303	22759
873.432	22679
873.561	22649
873.69	22687
873.819	22675
873.948	22683
874.077	22653
874.206	22710
874.335	22710
874.464	22702
874.593	22965
874.722	22679
874.851	22911
874.979	22904
875.108	23041
875.237	22972
875.365	22694
875.494	22744
875.623	22885
875.751	22942
875.88	22938
876.008	22995
876.136	23010
876.265	23292
876.393	23368
876.521	23349
876.65	23311
876.778	23239
876.906	23250
877.034	23132
877.162	23223
877.29	23159
877.418	23193
877.546	23239
877.674	23250
877.802	23178
877.93	23227
878.058	23181
878.185	23010
878.313	23143
878.441	23159
878.568	23121
878.696	23284
878.824	23170
878.951	23421
879.079	23440
879.206	23524
879.333	23406
879.461	23315
879.588	23368
879.715	23269
879.842	23467
879.97	23227
880.097	23044
880.224	23109
880.351	23208
880.478	23086
880.605	23010
880.732	22866
880.859	23239
880.986	23170
881.112	23006
881.239	23029
881.366	22957
881.493	22782
881.619	22755
881.746	22656
881.872	22569
881.999	22660
882.125	22535
882.252	22656
882.378	22664
882.505	22599
882.631	22531
882.757	22405
882.883	22443
883.01	22291
883.136	22276
883.262	22192
883.388	22101
883.514	22219
883.64	22284
883.766	22162
883.892	21964
884.018	22211
884.143	22188
884.269	22318
884.395	22112
884.52	21854
884.646	22029
884.772	21922
884.897	21842
885.023	21876
885.148	21945
885.274	22082
885.399	22036
885.524	21934
885.65	21861
885.775	22002
885.9	21861
886.025	22082
886.15	22097
886.275	21937
886.4	21766
886.525	21907
886.65	21816
886.775	21956
886.9	21949
887.025	22101
887.149	21850
887.274	21732
887.399	21895
887.523	21720
887.648	21629
887.773	21701
887.897	21743
888.021	21686
888.146	21686
888.27	21747
888.395	21701
888.519	21842
888.643	21679
888.767	21724
888.891	21526
889.015	21553
889.139	21515
889.263	21397
889.387	21671
889.511	21660
889.635	21671
889.759	21477
889.883	21367
890.006	21561
890.13	21568
890.254	21447
890.377	21450
890.501	21355
890.624	21226
890.748	21302
890.871	21039
890.995	21070
891.118	21074
891.241	21001
891.364	21032
891.488	21112
891.611	21085
891.734	21051
891.857	21104
891.98	21108
892.103	20986
892.226	21062
892.349	20918
892.471	20765
892.594	20883
892.717	21001
892.839	20887
892.962	20891
893.085	20979
893.207	20918
893.33	20830
893.452	20948
893.575	20986
893.697	20872
893.819	21135
893.941	21173
894.064	21188
894.186	20845
894.308	20838
894.43	20971
894.552	21039
894.674	21070
894.796	20796
894.918	20838
895.04	20834
895.161	20883
895.283	20963
895.405	20804
895.526	20883
895.648	20811
895.769	20895
895.891	20921
896.012	21028
896.134	20925
896.255	20876
896.376	20868
896.498	20899
896.619	21001
896.74	20861
896.861	20872
896.982	21249
897.103	21207
897.224	21154
897.345	21154
897.466	21028
897.587	21013
897.708	21199
897.828	21142
897.949	20952
898.07	20994
898.19	20982
898.311	21070
898.431	20986
898.552	21131
898.672	21043
898.792	21001
898.913	21081
899.033	20910
899.153	20956
899.273	20762
899.393	20735
899.513	20807
899.633	20857
899.753	20845
899.873	20872
899.993	20708
900.113	20777
900.232	20788
900.352	20754
900.472	20678
900.591	20659
900.711	20511
900.83	20651
900.95	20788
901.069	20693
901.189	20480
901.308	20153
901.427	20126
901.546	20039
901.665	20065
901.784	20237
901.904	20016
902.023	19864
902.141	19616
902.26	19742
902.379	19776
902.498	19693
902.617	19624
902.735	19753
902.854	19601
902.973	19616
903.091	19327
903.21	19308
903.328	19384
903.446	19209
903.565	19099
903.683	19107
903.801	19031
903.919	19156
904.038	18989
904.156	19000
904.274	18958
904.392	18840
904.51	18848
904.627	18928
904.745	18844
904.863	18981
904.981	18707
905.098	18471
905.216	18540
905.334	18650
905.451	18517
905.569	18506
905.686	18506
905.803	18608
905.921	18372
906.038	18418
906.155	18330
906.272	18277
906.389	18216
906.506	18068
906.623	18140
906.74	18117
906.857	18007
906.974	17996
907.091	18140
907.208	18159
907.324	18171
907.441	17950
907.557	17885
907.674	17783
907.79	17741
907.907	17756
908.023	17847
908.139	17790
908.256	17729
908.372	17649
908.488	17649
908.604	17532
908.72	17547
908.836	17532
908.952	17444
909.068	17627
909.184	17448
909.3	17497
909.415	17547
909.531	17570
909.647	17330
909.762	17277
909.878	17189
909.993	17258
910.108	17147
910.224	17193
910.339	17204
910.454	17109
910.57	17003
910.685	17041
910.8	17185
910.915	17227
911.03	17025
911.145	16866
911.259	16835
911.374	16805
911.489	16706
911.604	16725
911.718	16535
911.833	16687
911.947	16394
912.062	16348
912.176	16451
912.291	16500
912.405	16481
912.519	16706
912.633	16778
912.748	16447
912.862	16504
912.976	16390
913.09	16246
913.204	16325
913.318	16382
913.431	16405
913.545	16451
913.659	16348
913.772	16371
913.886	16200
914	16109
914.113	16211
914.226	16200
914.34	16226
914.453	16101
914.566	16109
914.68	15979
914.793	15983
914.906	15850
915.019	15743
915.132	15660
915.245	15739
915.358	15762
915.47	15694
915.583	15797
915.696	15701
915.809	15850
915.921	15907
916.034	15698
916.146	15568
916.259	15652
916.371	15747
916.483	15663
916.595	15523
916.708	15469
916.82	15564
916.932	15359
917.044	15504
917.156	15469
917.268	15340
917.38	15500
917.491	15287
917.603	15336
917.715	15374
917.826	15488
917.938	15325
918.049	15157
918.161	15374
918.272	15443
918.384	15405
918.495	15226
918.606	15138
918.717	15112
918.828	15188
918.939	15089
919.05	15024
919.161	14998
919.272	14895
919.383	14921
919.494	14994
919.604	15302
919.715	15005
919.826	14948
919.936	14941
920.047	15112
920.157	15058
920.267	15218
920.378	15077
920.488	14998
920.598	15211
920.708	15283
920.818	15146
920.928	15142
921.038	15249
921.148	15226
921.258	14918
921.368	14914
921.477	14853
921.587	14823
921.697	14701
921.806	14796
921.916	14560
922.025	14457
922.134	14492
922.244	14400
922.353	14396
922.462	14271
922.571	14282
922.68	14065
922.789	13989
922.898	14077
923.007	13894
923.116	14012
923.224	14050
923.333	13993
923.442	13970
923.55	13791
923.659	13833
923.767	13974
923.876	13887
923.984	13940
924.092	13742
924.201	13750
924.309	13784
924.417	13890
924.525	13704
924.633	13670
924.741	14651
924.849	13506
924.956	13696
925.064	13495
925.172	13396
925.279	13426
925.387	13521
925.494	13476
925.602	13537
925.709	13441
925.816	13373
925.924	13388
926.031	13453
926.138	13343
926.245	13457
926.352	13171
926.459	13388
926.566	13396
926.673	13339
926.779	13164
926.886	13114
926.993	13008
927.099	13050
927.206	12825
927.312	12913
927.419	13031
927.525	13015
927.631	13103
927.737	12829
927.843	12760
927.95	12856
928.056	12738
928.162	12844
928.267	12825
928.373	13388
928.479	12848
928.585	12627
928.69	12700
928.796	12722
928.901	12551
929.007	12525
929.112	12597
929.218	12593
929.323	12570
929.428	12547
929.533	12536
929.638	12490
929.743	12407
929.848	12429
929.953	12475
930.058	12376
930.163	12197
930.267	12125
930.372	12239
930.477	12133
930.581	12418
930.685	12144
930.79	12049
930.894	12087
930.998	11992
931.103	12220
931.207	11828
931.311	11707
931.415	11627
931.519	11505
931.623	11433
