Data from test_V78500241_2757.txt Node
Date: Fri Mar 25 15:29:03 CST 2022
User: usil
Spectrometer: V785-0024
Trigger mode: 0
Integration Time (sec): 4.000000E-1
Scans to average: 1
Nonlinearity correction enabled: false
Boxcar width: 0
Storing dark spectrum: false
XAxis mode: Wavelengths
Number of Pixels in Spectrum: 1024
>>>>>Begin Spectral Data<<<<<
801.071	27013
801.214	26929
801.356	26819
801.499	26632
801.641	26575
801.783	26568
801.926	26564
802.068	26492
802.211	26434
802.353	26393
802.496	26191
802.638	26267
802.78	26176
802.923	26138
803.065	26088
803.208	25993
803.35	26187
803.492	26298
803.635	26282
803.777	26115
803.919	26275
804.061	26549
804.204	26172
804.346	26237
804.488	26081
804.63	26218
804.773	26195
804.915	26191
805.057	26347
805.199	26092
805.341	26298
805.483	26427
805.626	26431
805.768	26355
805.91	26252
806.052	26434
806.194	26271
806.336	26419
806.478	26404
806.62	26400
806.762	26511
806.904	26663
807.046	26838
807.188	26872
807.33	26792
807.472	26762
807.614	26762
807.756	26785
807.898	26648
808.04	26708
808.182	26636
808.324	26705
808.465	26636
808.607	26853
808.749	26830
808.891	27085
809.033	27074
809.174	27036
809.316	26929
809.458	27039
809.6	27005
809.741	27089
809.883	27089
810.025	27226
810.166	27336
810.308	27291
810.45	27226
810.591	27233
810.733	27051
810.875	26956
811.016	26861
811.158	26895
811.299	27157
811.441	27226
811.582	27150
811.724	26929
811.865	27062
812.007	26899
812.148	26960
812.29	26948
812.431	27070
812.573	27272
812.714	27310
812.855	27462
812.997	27435
813.138	27747
813.279	27675
813.421	27405
813.562	27435
813.703	27226
813.845	27074
813.986	26819
814.127	26739
814.268	26629
814.41	26667
814.551	26587
814.692	26705
814.833	26724
814.974	26564
815.115	26724
815.256	26522
815.397	26564
815.539	26530
815.68	26366
815.821	26423
815.962	26415
816.103	26511
816.244	26328
816.385	26134
816.526	26183
816.666	25947
816.807	25799
816.948	25890
817.089	25989
817.23	25932
817.371	25875
817.512	25860
817.653	25830
817.793	25917
817.934	25883
818.075	25769
818.216	25902
818.356	25822
818.497	25738
818.638	25479
818.778	25575
818.919	25582
819.06	25647
819.2	25868
819.341	25784
819.481	25982
819.622	26069
819.762	26161
819.903	26043
820.043	26092
820.184	25986
820.324	26069
820.465	26168
820.605	25963
820.746	25989
820.886	25731
821.026	25906
821.167	25909
821.307	26043
821.447	25830
821.588	25613
821.728	25750
821.868	25571
822.008	25388
822.149	25339
822.289	25354
822.429	25046
822.569	24814
822.709	24947
822.849	24844
822.99	24886
823.13	24768
823.27	24753
823.41	24715
823.55	24570
823.69	24623
823.83	24692
823.97	24658
824.11	24467
824.25	24448
824.389	24323
824.529	24528
824.669	24471
824.809	24646
824.949	24608
825.089	24471
825.228	24445
825.368	24277
825.508	24220
825.648	24292
825.787	24376
825.927	24486
826.067	24300
826.206	24350
826.346	24513
826.485	24350
826.625	24254
826.765	24369
826.904	24346
827.044	24018
827.183	24121
827.323	24068
827.462	24144
827.601	24072
827.741	23992
827.88	24121
828.02	23920
828.159	23916
828.298	23977
828.437	24243
828.577	24030
828.716	24190
828.855	23885
828.994	23783
829.134	23794
829.273	23718
829.412	23741
829.551	23764
829.69	23672
829.829	23642
829.968	23843
830.107	23821
830.246	23859
830.385	23627
830.524	23566
830.663	23566
830.802	23471
830.941	23318
831.08	23379
831.219	23353
831.357	23345
831.496	23611
831.635	23364
831.774	23258
831.913	23265
832.051	23143
832.19	23071
832.329	23212
832.467	23052
832.606	23071
832.744	22892
832.883	23159
833.022	23033
833.16	22957
833.299	23235
833.437	23006
833.576	23079
833.714	23132
833.852	23033
833.991	23029
834.129	23200
834.267	23147
834.406	23124
834.544	23056
834.682	23212
834.821	23083
834.959	23239
835.097	23022
835.235	23200
835.373	23136
835.511	23025
835.65	22824
835.788	22961
835.926	22763
836.064	22733
836.202	22919
836.34	22942
836.478	22953
836.615	22740
836.753	22748
836.891	22919
837.029	22908
837.167	22839
837.305	22778
837.443	22854
837.58	22843
837.718	22862
837.856	22835
837.993	22812
838.131	22778
838.269	22660
838.406	22687
838.544	22596
838.681	22497
838.819	22474
838.956	22177
839.094	22272
839.231	22382
839.369	22417
839.506	22683
839.643	22557
839.781	22436
839.918	22223
840.055	22299
840.193	22173
840.33	22181
840.467	22261
840.604	22280
840.742	22497
840.879	22192
841.016	22196
841.153	22143
841.29	22318
841.427	22150
841.564	22185
841.701	22211
841.838	22196
841.975	22124
842.112	22204
842.249	22105
842.385	22021
842.522	22276
842.659	21918
842.796	21937
842.933	22006
843.069	21994
843.206	22002
843.343	21945
843.479	21842
843.616	21956
843.752	21728
843.889	21785
844.025	21918
844.162	21633
844.298	21797
844.435	21698
844.571	21720
844.708	21751
844.844	21930
844.98	21934
845.117	21880
845.253	21671
845.389	21526
845.525	21515
845.661	21492
845.798	21443
845.934	21454
846.07	21287
846.206	21507
846.342	21542
846.478	21500
846.614	21195
846.75	21192
846.886	21355
847.022	21363
847.158	21321
847.294	21165
847.429	21256
847.565	21116
847.701	21405
847.837	20982
847.972	20899
848.108	21032
848.244	21051
848.379	20868
848.515	20815
848.65	20834
848.786	20826
848.921	20720
849.057	20887
849.192	20944
849.328	20788
849.463	20868
849.598	20644
849.734	20575
849.869	20712
850.004	20659
850.14	20682
850.275	20617
850.41	20454
850.545	20438
850.68	20511
850.815	20541
850.95	20575
851.085	20674
851.22	20712
851.355	20632
851.49	20571
851.625	20476
851.76	20511
851.895	20533
852.03	20522
852.165	20590
852.299	20552
852.434	20571
852.569	20594
852.703	20541
852.838	20655
852.973	20682
853.107	20469
853.242	20537
853.376	20358
853.511	20263
853.645	20294
853.78	20503
853.914	20370
854.048	20320
854.183	20423
854.317	20404
854.451	20602
854.585	20328
854.72	20263
854.854	20442
854.988	20320
855.122	20442
855.256	20370
855.39	20419
855.524	20499
855.658	20442
855.792	20355
855.926	20469
856.06	20404
856.194	20511
856.327	20434
856.461	20263
856.595	20396
856.729	20317
856.862	20473
856.996	20419
857.13	20473
857.263	20583
857.397	20476
857.53	20328
857.664	20396
857.797	20396
857.931	20457
858.064	20366
858.197	20541
858.331	20442
858.464	20347
858.597	20252
858.731	20309
858.864	20286
858.997	20313
859.13	20476
859.263	20396
859.396	20389
859.529	20313
859.662	20396
859.795	20343
859.928	20351
860.061	20434
860.194	20617
860.327	20450
860.46	20488
860.592	20499
860.725	20530
860.858	20480
860.99	20404
861.123	20358
861.256	20374
861.388	20377
861.521	20918
861.653	20351
861.786	20244
861.918	20199
862.05	20244
862.183	20324
862.315	20298
862.447	20408
862.58	20290
862.712	20084
862.844	20005
862.976	20164
863.108	20069
863.24	20697
863.372	19989
863.504	20096
863.636	20039
863.768	20187
863.9	20126
864.032	20016
864.164	19986
864.296	20103
864.428	20161
864.559	20199
864.691	20176
864.823	20050
864.954	20081
865.086	20039
865.217	19932
865.349	19974
865.48	19967
865.612	20012
865.743	20191
865.875	20054
866.006	19986
866.137	20027
866.269	19913
866.4	19967
866.531	19909
866.662	19921
866.793	19837
866.924	19932
867.055	20062
867.186	19997
867.317	19879
867.448	19860
867.579	19860
867.71	19879
867.841	19947
867.972	19925
868.103	19871
868.233	20035
868.364	19967
868.495	20077
868.625	20096
868.756	20248
868.886	20122
869.017	20275
869.147	20320
869.278	20278
869.408	20210
869.539	20233
869.669	20286
869.799	20229
869.929	20271
870.06	20271
870.19	20461
870.32	20396
870.45	20571
870.58	20518
870.71	20640
870.84	20648
870.97	20587
871.1	20507
871.23	20785
871.36	20815
871.489	20667
871.619	20693
871.749	20868
871.879	20921
872.008	20910
872.138	20845
872.267	20765
872.397	20651
872.526	20602
872.656	20644
872.785	20560
872.915	20845
873.044	20906
873.173	20792
873.303	20883
873.432	20876
873.561	20861
873.69	20811
873.819	20765
873.948	20868
874.077	20921
874.206	20758
874.335	20823
874.464	20872
874.593	21131
874.722	20994
874.851	21165
874.979	21085
875.108	21112
875.237	21005
875.365	20963
875.494	21047
875.623	21017
875.751	20948
875.88	20990
876.008	21127
876.136	21382
876.265	21359
876.393	21595
876.521	21545
876.65	21507
876.778	21458
876.906	21336
877.034	21458
877.162	21481
877.29	21420
877.418	21576
877.546	21473
877.674	21477
877.802	21374
877.93	21378
878.058	21367
878.185	21332
878.313	21329
878.441	21370
878.568	21230
878.696	21454
878.824	21473
878.951	21389
879.079	21728
879.206	21728
879.333	21572
879.461	21450
879.588	21519
879.715	21523
879.842	21778
879.97	21500
880.097	21313
880.224	21306
880.351	21306
880.478	21245
880.605	21207
880.732	21199
880.859	21458
880.986	21340
881.112	21310
881.239	21093
881.366	21005
881.493	20941
881.619	20910
881.746	20899
881.872	20823
881.999	20891
882.125	20899
882.252	20906
882.378	20872
882.505	20941
882.631	20697
882.757	20488
882.883	20670
883.01	20499
883.136	20629
883.262	20484
883.388	20438
883.514	20621
883.64	20526
883.766	20507
883.892	20320
884.018	20469
884.143	20530
884.269	20655
884.395	20351
884.52	20225
884.646	20248
884.772	20206
884.897	20149
885.023	20259
885.148	20313
885.274	20374
885.399	20381
885.524	20187
885.65	20244
885.775	20206
885.9	20092
886.025	20263
886.15	20092
886.275	20077
886.4	20027
886.525	20206
886.65	20202
886.775	20252
886.9	20248
887.025	20351
887.149	20278
887.274	20016
887.399	20119
887.523	19944
887.648	19967
887.773	19898
887.897	20035
888.021	20084
888.146	19974
888.27	20016
888.395	20115
888.519	20012
888.643	19936
888.767	20096
888.891	19909
889.015	19868
889.139	19864
889.263	19727
889.387	19879
889.511	20001
889.635	19993
889.759	19734
889.883	19875
890.006	19738
890.13	19883
890.254	19753
890.377	19704
890.501	19635
890.624	19449
890.748	19601
890.871	19514
890.995	19324
891.118	19388
891.241	19384
891.364	19335
891.488	19487
891.611	19487
891.734	19453
891.857	19495
891.98	19396
892.103	19518
892.226	19449
892.349	19278
892.471	19339
892.594	19343
892.717	19285
892.839	19316
892.962	19244
893.085	19483
893.207	19244
893.33	19137
893.452	19350
893.575	19255
893.697	19384
893.819	19449
893.941	19464
894.064	19419
894.186	19168
894.308	19129
894.43	19285
894.552	19384
894.674	19354
894.796	19213
894.918	19274
895.04	19141
895.161	19346
895.283	19441
895.405	19198
895.526	19335
895.648	19362
895.769	19297
895.891	19362
896.012	19312
896.134	19331
896.255	19304
896.376	19278
896.498	19381
896.619	19312
896.74	19308
896.861	19320
896.982	19666
897.103	19776
897.224	19609
897.345	19491
897.466	19514
897.587	19639
897.708	19670
897.828	19552
897.949	19476
898.07	19339
898.19	19495
898.311	19708
898.431	19525
898.552	19506
898.672	19514
898.792	19666
898.913	19571
899.033	19419
899.153	19339
899.273	19301
899.393	19407
899.513	19289
899.633	19388
899.753	19331
899.873	19289
899.993	19289
900.113	19198
900.232	19198
900.352	19221
900.472	19324
900.591	19091
900.711	19251
900.83	19046
900.95	19285
901.069	19148
901.189	19050
901.308	18749
901.427	18688
901.546	18802
901.665	18703
901.784	18802
901.904	18684
902.023	18445
902.141	18399
902.26	18285
902.379	18429
902.498	18155
902.617	18304
902.735	18327
902.854	18136
902.973	18133
903.091	17920
903.21	17946
903.328	17961
903.446	17733
903.565	17699
903.683	17687
903.801	17653
903.919	17676
904.038	17573
904.156	17455
904.274	17566
904.392	17429
904.51	17516
904.627	17532
904.745	17471
904.863	17577
904.981	17242
905.098	17113
905.216	17166
905.334	17204
905.451	17273
905.569	17121
905.686	17189
905.803	17147
905.921	16968
906.038	17029
906.155	16949
906.272	16869
906.389	16927
906.506	16763
906.623	16713
906.74	16672
906.857	16607
906.974	16466
907.091	16664
907.208	16809
907.324	16713
907.441	16626
907.557	16440
907.674	16459
907.79	16337
907.907	16371
908.023	16394
908.139	16462
908.256	16390
908.372	16333
908.488	16341
908.604	16162
908.72	16112
908.836	16131
908.952	16154
909.068	16128
909.184	16150
909.3	16150
909.415	16200
909.531	16219
909.647	15720
909.762	15884
909.878	15850
909.993	15937
910.108	15895
910.224	15819
910.339	15838
910.454	15660
910.57	15679
910.685	15584
910.8	15850
910.915	15846
911.03	15743
911.145	15504
911.259	15504
911.374	15488
911.489	15378
911.604	15443
911.718	15336
911.833	15268
911.947	15169
912.062	15157
912.176	15275
912.291	15275
912.405	15211
912.519	15416
912.633	15393
912.748	15283
912.862	15249
912.976	15039
913.09	14849
913.204	15135
913.318	15020
913.431	15233
913.545	15184
913.659	15154
913.772	15001
913.886	14998
914	14921
914.113	15112
914.226	14971
914.34	14998
914.453	14689
914.566	14838
914.68	14743
914.793	14739
914.906	14613
915.019	14469
915.132	14484
915.245	14442
915.358	14495
915.47	14419
915.583	14465
915.696	14583
915.809	14613
915.921	14514
916.034	14320
916.146	14419
916.259	14381
916.371	14438
916.483	14400
916.595	14339
916.708	14248
916.82	14278
916.932	14313
917.044	14362
917.156	14233
917.268	14065
917.38	14130
917.491	14138
917.603	14153
917.715	14142
917.826	14233
917.938	14115
918.049	13989
918.161	14081
918.272	14275
918.384	14240
918.495	14138
918.606	13932
918.717	13845
918.828	13947
918.939	13936
919.05	13868
919.161	13982
919.272	13666
919.383	13731
919.494	13917
919.604	14088
919.715	13875
919.826	13887
919.936	13864
920.047	14039
920.157	13803
920.267	13993
920.378	13951
920.488	13837
920.598	14119
920.708	14096
920.818	14046
920.928	14046
921.038	14229
921.148	14161
921.258	13890
921.368	13753
921.477	13552
921.587	13624
921.697	13571
921.806	13613
921.916	13502
922.025	13278
922.134	13282
922.244	13236
922.353	13270
922.462	13198
922.571	13183
922.68	12928
922.789	12901
922.898	12943
923.007	12947
923.116	13008
923.224	12848
923.333	12924
923.442	12817
923.55	12840
923.659	12806
923.767	12840
923.876	12776
923.984	12852
924.092	12578
924.201	12654
924.309	12734
924.417	12741
924.525	12642
924.633	12642
924.741	13548
924.849	12338
924.956	12525
925.064	12494
925.172	12372
925.279	12376
925.387	12403
925.494	12372
925.602	12597
925.709	12342
925.816	12319
925.924	12376
926.031	12376
926.138	12388
926.245	12433
926.352	12251
926.459	12376
926.566	12391
926.673	12254
926.779	12155
926.886	12182
926.993	12019
927.099	12019
927.206	11843
927.312	11961
927.419	12015
927.525	12079
927.631	12041
927.737	11912
927.843	11855
927.95	11756
928.056	11840
928.162	11821
928.267	11958
928.373	12460
928.479	11920
928.585	11668
928.69	11775
928.796	11893
928.901	11642
929.007	11581
929.112	11657
929.218	11638
929.323	11672
929.428	11554
929.533	11589
929.638	11486
929.743	11554
929.848	11585
929.953	11570
930.058	11414
930.163	11239
930.267	11315
930.372	11372
930.477	11235
930.581	11520
930.685	11337
930.79	11208
930.894	11178
930.998	11102
931.103	11296
931.207	11022
931.311	10991
931.415	10763
931.519	10588
931.623	10584
