Data from test_V78500241_83.txt Node
Date: Fri Mar 25 15:10:26 CST 2022
User: usil
Spectrometer: V785-0024
Trigger mode: 0
Integration Time (sec): 4.000000E-1
Scans to average: 1
Nonlinearity correction enabled: false
Boxcar width: 0
Storing dark spectrum: false
XAxis mode: Wavelengths
Number of Pixels in Spectrum: 1024
>>>>>Begin Spectral Data<<<<<
801.071	28626
801.214	28615
801.356	28382
801.499	28280
801.641	28196
801.783	28128
801.926	28246
802.068	28059
802.211	27998
802.353	28116
802.496	27686
802.638	27835
802.78	27724
802.923	27751
803.065	27572
803.208	27610
803.35	27903
803.492	27880
803.635	27785
803.777	27793
803.919	27880
804.061	28131
804.204	27819
804.346	27835
804.488	27732
804.63	27709
804.773	27572
804.915	27713
805.057	27880
805.199	27770
805.341	27812
805.483	27819
805.626	27778
805.768	27808
805.91	27911
806.052	27857
806.194	27918
806.336	28036
806.478	28063
806.62	27846
806.762	27926
806.904	28124
807.046	28432
807.188	28116
807.33	28207
807.472	28303
807.614	28154
807.756	28158
807.898	28112
808.04	27907
808.182	27979
808.324	28025
808.465	27953
808.607	28299
808.749	28367
808.891	28554
809.033	28599
809.174	28432
809.316	28390
809.458	28280
809.6	28341
809.741	28500
809.883	28459
810.025	28603
810.166	28672
810.308	28630
810.45	28584
810.591	28325
810.733	28527
810.875	28394
811.016	28215
811.158	28147
811.299	28314
811.441	28322
811.582	28462
811.724	28318
811.865	28234
812.007	28291
812.148	28356
812.29	28352
812.431	28512
812.573	28767
812.714	28809
812.855	28854
812.997	28793
813.138	29003
813.279	28980
813.421	28858
813.562	28858
813.703	28584
813.845	28428
813.986	28215
814.127	27994
814.268	27934
814.41	27895
814.551	27846
814.692	28147
814.833	27911
814.974	27926
815.115	27941
815.256	27865
815.397	27701
815.539	27682
815.68	27644
815.821	27652
815.962	27614
816.103	27599
816.244	27466
816.385	27275
816.526	27443
816.666	27260
816.807	27169
816.948	27230
817.089	27291
817.23	27245
817.371	27058
817.512	27051
817.653	27017
817.793	26963
817.934	26998
818.075	27062
818.216	27085
818.356	26895
818.497	26960
818.638	26788
818.778	26758
818.919	26944
819.06	26963
819.2	26864
819.341	26929
819.481	27001
819.622	27131
819.762	27313
819.903	27150
820.043	27070
820.184	27104
820.324	27089
820.465	26975
820.605	27013
820.746	27077
820.886	26857
821.026	26929
821.167	27051
821.307	27100
821.447	27032
821.588	26754
821.728	26754
821.868	26655
822.008	26488
822.149	26461
822.289	26301
822.429	26263
822.569	26130
822.709	26100
822.849	25970
822.99	25864
823.13	25909
823.27	25959
823.41	25712
823.55	25594
823.69	25784
823.83	25616
823.97	25799
824.11	25479
824.25	25339
824.389	25540
824.529	25525
824.669	25441
824.809	25556
824.949	25457
825.089	25499
825.228	25590
825.368	25377
825.508	25316
825.648	25217
825.787	25316
825.927	25274
826.067	25183
826.206	25407
826.346	25403
826.485	25282
826.625	25236
826.765	25487
826.904	25403
827.044	25061
827.183	25000
827.323	24894
827.462	25008
827.601	24981
827.741	24943
827.88	24894
828.02	24840
828.159	24844
828.298	24924
828.437	24947
828.577	24989
828.716	25069
828.855	24878
828.994	24642
829.134	24665
829.273	24585
829.412	24658
829.551	24521
829.69	24528
829.829	24566
829.968	24597
830.107	24722
830.246	24475
830.385	24597
830.524	24509
830.663	24338
830.802	24262
830.941	24247
831.08	24140
831.219	24155
831.357	24197
831.496	24422
831.635	24171
831.774	24026
831.913	23939
832.051	23999
832.19	23916
832.329	23798
832.467	23843
832.606	23642
832.744	23680
832.883	23733
833.022	23767
833.16	23859
833.299	23794
833.437	23817
833.576	23885
833.714	23802
833.852	23783
833.991	23866
834.129	23901
834.267	23904
834.406	23859
834.544	23802
834.682	23779
834.821	23859
834.959	23996
835.097	23729
835.235	23809
835.373	23752
835.511	23882
835.65	23619
835.788	23710
835.926	23471
836.064	23341
836.202	23334
836.34	23642
836.478	23630
836.615	23615
836.753	23577
836.891	23695
837.029	23634
837.167	23649
837.305	23471
837.443	23444
837.58	23417
837.718	23433
837.856	23463
837.993	23368
838.131	23425
838.269	23288
838.406	23356
838.544	23269
838.681	23041
838.819	23071
838.956	22965
839.094	22850
839.231	22881
839.369	23003
839.506	23299
839.643	23029
839.781	22877
839.918	22816
840.055	22847
840.193	22797
840.33	22755
840.467	22752
840.604	22763
840.742	22968
840.879	22603
841.016	22626
841.153	22618
841.29	22763
841.427	22759
841.564	22763
841.701	22805
841.838	22615
841.975	22618
842.112	22542
842.249	22519
842.385	22390
842.522	22660
842.659	22527
842.796	22398
842.933	22402
843.069	22398
843.206	22363
843.343	22497
843.479	22516
843.616	22470
843.752	22207
843.889	22306
844.025	22436
844.162	22055
844.298	22249
844.435	22181
844.571	22135
844.708	22238
844.844	22287
844.98	22242
845.117	22299
845.253	22078
845.389	22055
845.525	21998
845.661	22025
845.798	22017
845.934	22013
846.07	21895
846.206	21964
846.342	22032
846.478	21941
846.614	21682
846.75	21587
846.886	21481
847.022	21690
847.158	21553
847.294	21610
847.429	21679
847.565	21485
847.701	21831
847.837	21317
847.972	21211
848.108	21454
848.244	21397
848.379	21260
848.515	21207
848.65	21157
848.786	21195
848.921	21245
849.057	21310
849.192	21329
849.328	21211
849.463	21184
849.598	21066
849.734	21055
849.869	21017
850.004	20929
850.14	20925
850.275	21001
850.41	20849
850.545	20891
850.68	20872
850.815	21070
850.95	20845
851.085	21089
851.22	20967
851.355	20796
851.49	20944
851.625	20868
851.76	20906
851.895	20777
852.03	20804
852.165	20895
852.299	20910
852.434	20979
852.569	20902
852.703	20990
852.838	20849
852.973	21055
853.107	20921
853.242	20906
853.376	20792
853.511	20636
853.645	20625
853.78	20906
853.914	20712
854.048	20701
854.183	20659
854.317	20667
854.451	20880
854.585	20606
854.72	20712
854.854	20845
854.988	20629
855.122	20781
855.256	20556
855.39	20663
855.524	20823
855.658	20754
855.792	20746
855.926	20838
856.06	20815
856.194	20750
856.327	20644
856.461	20712
856.595	20617
856.729	20587
856.862	20796
856.996	20659
857.13	20773
857.263	20811
857.397	20670
857.53	20693
857.664	20686
857.797	20739
857.931	20830
858.064	20724
858.197	20845
858.331	20564
858.464	20594
858.597	20556
858.731	20495
858.864	20602
858.997	20511
859.13	20530
859.263	20644
859.396	20682
859.529	20678
859.662	20564
859.795	20465
859.928	20594
860.061	20777
860.194	20746
860.327	20613
860.46	20545
860.592	20834
860.725	20629
860.858	20689
860.99	20640
861.123	20492
861.256	20571
861.388	20575
861.521	21211
861.653	20511
861.786	20473
861.918	20438
862.05	20648
862.183	20598
862.315	20651
862.447	20712
862.58	20606
862.712	20263
862.844	20301
862.976	20465
863.108	20469
863.24	20845
863.372	20259
863.504	20339
863.636	20396
863.768	20343
863.9	20404
864.032	20298
864.164	20214
864.296	20313
864.428	20404
864.559	20396
864.691	20446
864.823	20317
864.954	20248
865.086	20252
865.217	20225
865.349	20054
865.48	20168
865.612	20290
865.743	20343
865.875	20229
866.006	20111
866.137	20195
866.269	20275
866.4	20142
866.531	20073
866.662	20054
866.793	20092
866.924	20122
867.055	20248
867.186	20206
867.317	20145
867.448	20008
867.579	20126
867.71	20046
867.841	20016
867.972	20039
868.103	20145
868.233	20183
868.364	20115
868.495	20202
868.625	20328
868.756	20400
868.886	20259
869.017	20412
869.147	20522
869.278	20526
869.408	20469
869.539	20309
869.669	20438
869.799	20427
869.929	20473
870.06	20499
870.19	20739
870.32	20701
870.45	20788
870.58	20769
870.71	21017
870.84	20868
870.97	20712
871.1	20765
871.23	20910
871.36	20952
871.489	20842
871.619	20895
871.749	20906
871.879	21047
872.008	21104
872.138	20967
872.267	20952
872.397	20788
872.526	20849
872.656	20823
872.785	20617
872.915	21001
873.044	21096
873.173	21001
873.303	21108
873.432	21100
873.561	21173
873.69	20960
873.819	20956
873.948	21074
874.077	20963
874.206	20979
874.335	21013
874.464	21154
874.593	21233
874.722	21233
874.851	21397
874.979	21310
875.108	21386
875.237	21142
875.365	21119
875.494	21287
875.623	21287
875.751	21180
875.88	21367
876.008	21291
876.136	21363
876.265	21576
876.393	21728
876.521	21671
876.65	21850
876.778	21698
876.906	21652
877.034	21530
877.162	21637
877.29	21690
877.418	21644
877.546	21606
877.674	21553
877.802	21698
877.93	21603
878.058	21652
878.185	21454
878.313	21469
878.441	21534
878.568	21336
878.696	21652
878.824	21679
878.951	21545
879.079	21713
879.206	21945
879.333	21679
879.461	21629
879.588	21671
879.715	21831
879.842	21991
879.97	21671
880.097	21492
880.224	21534
880.351	21641
880.478	21511
880.605	21435
880.732	21435
880.859	21663
880.986	21469
881.112	21458
881.239	21408
881.366	21150
881.493	21062
881.619	20990
881.746	21116
881.872	20914
881.999	20906
882.125	21051
882.252	21100
882.378	21077
882.505	21230
882.631	20891
882.757	20750
882.883	20971
883.01	20811
883.136	20785
883.262	20598
883.388	20613
883.514	20792
883.64	20750
883.766	20788
883.892	20678
884.018	20617
884.143	20667
884.269	20849
884.395	20564
884.52	20275
884.646	20423
884.772	20446
884.897	20275
885.023	20526
885.148	20541
885.274	20571
885.399	20476
885.524	20381
885.65	20381
885.775	20469
885.9	20408
886.025	20469
886.15	20385
886.275	20336
886.4	20191
886.525	20389
886.65	20240
886.775	20328
886.9	20511
887.025	20731
887.149	20294
887.274	20164
887.399	20122
887.523	20168
887.648	20130
887.773	20081
887.897	20142
888.021	20282
888.146	20107
888.27	20142
888.395	20347
888.519	20240
888.643	20282
888.767	20267
888.891	20130
889.015	19959
889.139	20081
889.263	19921
889.387	20069
889.511	20115
889.635	20020
889.759	19967
889.883	19845
890.006	19894
890.13	19940
890.254	19913
890.377	19890
890.501	19803
890.624	19674
890.748	19719
890.871	19578
890.995	19590
891.118	19453
891.241	19483
891.364	19464
891.488	19757
891.611	19575
891.734	19499
891.857	19609
891.98	19491
892.103	19578
892.226	19567
892.349	19346
892.471	19362
892.594	19476
892.717	19422
892.839	19563
892.962	19468
893.085	19502
893.207	19358
893.33	19274
893.452	19445
893.575	19544
893.697	19445
893.819	19533
893.941	19632
894.064	19472
894.186	19411
894.308	19324
894.43	19525
894.552	19616
894.674	19495
894.796	19270
894.918	19400
895.04	19396
895.161	19521
895.283	19632
895.405	19381
895.526	19415
895.648	19430
895.769	19521
895.891	19491
896.012	19529
896.134	19373
896.255	19499
896.376	19559
896.498	19514
896.619	19483
896.74	19381
896.861	19624
896.982	19742
897.103	19974
897.224	19788
897.345	19769
897.466	19628
897.587	19780
897.708	19818
897.828	19693
897.949	19578
898.07	19537
898.19	19582
898.311	19715
898.431	19609
898.552	19700
898.672	19791
898.792	19689
898.913	19765
899.033	19510
899.153	19457
899.273	19350
899.393	19297
899.513	19434
899.633	19316
899.753	19407
899.873	19278
899.993	19419
900.113	19331
900.232	19278
900.352	19384
900.472	19236
900.591	19095
900.711	19225
900.83	19266
900.95	19255
901.069	19301
901.189	19031
901.308	18958
901.427	18856
901.546	18772
901.665	18848
901.784	18875
901.904	18871
902.023	18623
902.141	18452
902.26	18323
902.379	18422
902.498	18292
902.617	18239
902.735	18285
902.854	18243
902.973	18258
903.091	18026
903.21	17920
903.328	18015
903.446	17893
903.565	17813
903.683	17805
903.801	17672
903.919	17752
904.038	17752
904.156	17577
904.274	17668
904.392	17539
904.51	17566
904.627	17592
904.745	17512
904.863	17615
904.981	17318
905.098	17277
905.216	17193
905.334	17318
905.451	17261
905.569	17136
905.686	17246
905.803	17246
905.921	17025
906.038	17056
906.155	17018
906.272	16949
906.389	16927
906.506	16733
906.623	16828
906.74	16782
906.857	16615
906.974	16584
907.091	16698
907.208	16831
907.324	16782
907.441	16607
907.557	16493
907.674	16386
907.79	16329
907.907	16375
908.023	16466
908.139	16417
908.256	16249
908.372	16447
908.488	16306
908.604	16272
908.72	16093
908.836	16147
908.952	16185
909.068	16086
909.184	16158
909.3	16124
909.415	16162
909.531	16032
909.647	15838
909.762	15823
909.878	15755
909.993	15903
910.108	15739
910.224	15755
910.339	15880
910.454	15686
910.57	15625
910.685	15660
910.8	15846
910.915	15751
911.03	15595
911.145	15454
911.259	15473
911.374	15488
911.489	15272
911.604	15275
911.718	15176
911.833	15157
911.947	15070
912.062	14994
912.176	15188
912.291	15119
912.405	15051
912.519	15389
912.633	15412
912.748	15085
912.862	15062
912.976	14956
913.09	14834
913.204	14899
913.318	14868
913.431	15055
913.545	15028
913.659	15081
913.772	14952
913.886	14800
914	14746
914.113	14849
914.226	14887
914.34	14899
914.453	14617
914.566	14788
914.68	14724
914.793	14644
914.906	14492
915.019	14434
915.132	14381
915.245	14461
915.358	14495
915.47	14412
915.583	14396
915.696	14385
915.809	14537
915.921	14571
916.034	14366
916.146	14332
916.259	14332
916.371	14374
916.483	14286
916.595	14248
916.708	14309
916.82	14214
916.932	14206
917.044	14271
917.156	14256
917.268	14046
917.38	14084
917.491	14046
917.603	14077
917.715	14183
917.826	14176
917.938	14062
918.049	13944
918.161	14119
918.272	14138
918.384	14252
918.495	14027
918.606	13856
918.717	13704
918.828	13902
918.939	13814
919.05	13746
919.161	13890
919.272	13609
919.383	13681
919.494	13917
919.604	14092
919.715	13788
919.826	13651
919.936	13708
920.047	13856
920.157	13784
920.267	13982
920.378	13856
920.488	13841
920.598	13989
920.708	14100
920.818	13906
920.928	13909
921.038	14138
921.148	13963
921.258	13860
921.368	13689
921.477	13651
921.587	13483
921.697	13483
921.806	13609
921.916	13400
922.025	13263
922.134	13190
922.244	13198
922.353	13171
922.462	13069
922.571	13012
922.68	12890
922.789	12848
922.898	12951
923.007	12738
923.116	12825
923.224	12791
923.333	12875
923.442	12673
923.55	12631
923.659	12715
923.767	12764
923.876	12627
923.984	12700
924.092	12521
924.201	12642
924.309	12582
924.417	12673
924.525	12464
924.633	12532
924.741	13251
924.849	12289
924.956	12441
925.064	12300
925.172	12152
925.279	12266
925.387	12254
925.494	12403
925.602	12429
925.709	12353
925.816	12224
925.924	12190
926.031	12330
926.138	12247
926.245	12251
926.352	12171
926.459	12159
926.566	12338
926.673	12076
926.779	12026
926.886	12053
926.993	11946
927.099	11794
927.206	11840
927.312	11885
927.419	11866
927.525	11764
927.631	11878
927.737	11665
927.843	11688
927.95	11592
928.056	11661
928.162	11718
928.267	11783
928.373	12391
928.479	11805
928.585	11596
928.69	11680
928.796	11752
928.901	11585
929.007	11425
929.112	11623
929.218	11528
929.323	11493
929.428	11505
929.533	11627
929.638	11353
929.743	11440
929.848	11486
929.953	11311
930.058	11395
930.163	11143
930.267	11121
930.372	11223
930.477	11113
930.581	11296
930.685	11090
930.79	11033
930.894	11060
930.998	11094
931.103	11105
931.207	10763
931.311	10672
931.415	10592
931.519	10375
931.623	10413
