Data from test_V78500241_1952.txt Node
Date: Fri Mar 25 15:23:27 CST 2022
User: usil
Spectrometer: V785-0024
Trigger mode: 0
Integration Time (sec): 4.000000E-1
Scans to average: 1
Nonlinearity correction enabled: false
Boxcar width: 0
Storing dark spectrum: false
XAxis mode: Wavelengths
Number of Pixels in Spectrum: 1024
>>>>>Begin Spectral Data<<<<<
801.071	27698
801.214	27568
801.356	27233
801.499	27329
801.641	27127
801.783	27157
801.926	27195
802.068	27218
802.211	27077
802.353	27051
802.496	26826
802.638	26758
802.78	26727
802.923	26743
803.065	26613
803.208	26800
803.35	26880
803.492	27017
803.635	26937
803.777	26834
803.919	27123
804.061	27321
804.204	27066
804.346	27001
804.488	26921
804.63	27058
804.773	26937
804.915	27089
805.057	27226
805.199	27077
805.341	27203
805.483	27127
805.626	27237
805.768	26925
805.91	27142
806.052	27036
806.194	27043
806.336	27252
806.478	27169
806.62	27043
806.762	27192
806.904	27412
807.046	27606
807.188	27553
807.33	27587
807.472	27545
807.614	27618
807.756	27538
807.898	27424
808.04	27298
808.182	27264
808.324	27492
808.465	27466
808.607	27614
808.749	27854
808.891	27835
809.033	27911
809.174	27873
809.316	27747
809.458	27755
809.6	27759
809.741	27854
809.883	27854
810.025	27991
810.166	28029
810.308	27998
810.45	27945
810.591	27774
810.733	27743
810.875	27781
811.016	27679
811.158	27542
811.299	27743
811.441	27968
811.582	27778
811.724	27804
811.865	27599
812.007	27724
812.148	27717
812.29	27690
812.431	28032
812.573	28105
812.714	28226
812.855	28265
812.997	28329
813.138	28577
813.279	28466
813.421	28253
813.562	28185
813.703	28177
813.845	27968
813.986	27698
814.127	27637
814.268	27439
814.41	27420
814.551	27420
814.692	27427
814.833	27268
814.974	27401
815.115	27393
815.256	27245
815.397	27367
815.539	27310
815.68	27218
815.821	27256
815.962	27268
816.103	27135
816.244	27116
816.385	27032
816.526	26956
816.666	26838
816.807	26644
816.948	26773
817.089	26758
817.23	26712
817.371	26659
817.512	26606
817.653	26754
817.793	26594
817.934	26758
818.075	26746
818.216	26686
818.356	26674
818.497	26503
818.638	26499
818.778	26560
818.919	26450
819.06	26541
819.2	26701
819.341	26830
819.481	26720
819.622	26724
819.762	27116
819.903	27028
820.043	26708
820.184	26830
820.324	26773
820.465	26724
820.605	26899
820.746	26746
820.886	26552
821.026	26861
821.167	26883
821.307	26678
821.447	26674
821.588	26765
821.728	26511
821.868	26374
822.008	26248
822.149	26161
822.289	26195
822.429	25955
822.569	25936
822.709	25803
822.849	25734
822.99	25639
823.13	25715
823.27	25571
823.41	25548
823.55	25346
823.69	25624
823.83	25460
823.97	25483
824.11	25194
824.25	25289
824.389	25259
824.529	25403
824.669	25327
824.809	25514
824.949	25540
825.089	25339
825.228	25343
825.368	25065
825.508	25278
825.648	25343
825.787	25247
825.927	25232
826.067	25126
826.206	25107
826.346	25152
826.485	25430
826.625	25156
826.765	25232
826.904	25259
827.044	24901
827.183	24856
827.323	24981
827.462	25019
827.601	24966
827.741	24916
827.88	24844
828.02	24905
828.159	24897
828.298	24989
828.437	24905
828.577	24852
828.716	25031
828.855	24905
828.994	24654
829.134	24525
829.273	24593
829.412	24608
829.551	24547
829.69	24631
829.829	24646
829.968	24741
830.107	24623
830.246	24540
830.385	24578
830.524	24505
830.663	24452
830.802	24342
830.941	24239
831.08	24190
831.219	24308
831.357	24395
831.496	24429
831.635	24277
831.774	24209
831.913	24026
832.051	23999
832.19	23912
832.329	24095
832.467	23946
832.606	23824
832.744	23874
832.883	23813
833.022	23901
833.16	23843
833.299	24041
833.437	24034
833.576	23912
833.714	23984
833.852	24155
833.991	23923
834.129	24098
834.267	23973
834.406	24026
834.544	24106
834.682	23954
834.821	23939
834.959	24144
835.097	23836
835.235	24015
835.373	24003
835.511	23794
835.65	23855
835.788	23665
835.926	23668
836.064	23558
836.202	23615
836.34	23760
836.478	23901
836.615	23802
836.753	23798
836.891	23733
837.029	23786
837.167	23805
837.305	23756
837.443	23646
837.58	23630
837.718	23779
837.856	23608
837.993	23611
838.131	23756
838.269	23486
838.406	23520
838.544	23322
838.681	23379
838.819	23239
838.956	23060
839.094	23094
839.231	23220
839.369	23292
839.506	23592
839.643	23433
839.781	23147
839.918	23060
840.055	23162
840.193	23102
840.33	23109
840.467	22976
840.604	23105
840.742	23376
840.879	22953
841.016	22946
841.153	22881
841.29	23098
841.427	23044
841.564	23132
841.701	23060
841.838	22942
841.975	22904
842.112	22938
842.249	22763
842.385	22812
842.522	22949
842.659	22858
842.796	22778
842.933	22835
843.069	22835
843.206	22664
843.343	22957
843.479	22816
843.616	22740
843.752	22470
843.889	22596
844.025	22801
844.162	22573
844.298	22641
844.435	22637
844.571	22516
844.708	22622
844.844	22755
844.98	22702
845.117	22675
845.253	22512
845.389	22538
845.525	22500
845.661	22455
845.798	22352
845.934	22405
846.07	22147
846.206	22371
846.342	22382
846.478	22207
846.614	22097
846.75	22131
846.886	22124
847.022	22249
847.158	21945
847.294	22063
847.429	22109
847.565	22013
847.701	22322
847.837	21694
847.972	21846
848.108	21876
848.244	21835
848.379	21652
848.515	21622
848.65	21599
848.786	21656
848.921	21717
849.057	21739
849.192	21789
849.328	21713
849.463	21652
849.598	21564
849.734	21561
849.869	21443
850.004	21428
850.14	21401
850.275	21378
850.41	21382
850.545	21287
850.68	21370
850.815	21454
850.95	21428
851.085	21485
851.22	21412
851.355	21363
851.49	21374
851.625	21412
851.76	21469
851.895	21302
852.03	21401
852.165	21447
852.299	21416
852.434	21561
852.569	21447
852.703	21443
852.838	21450
852.973	21466
853.107	21424
853.242	21397
853.376	21218
853.511	21203
853.645	21195
853.78	21268
853.914	21252
854.048	21233
854.183	21256
854.317	21256
854.451	21462
854.585	21138
854.72	21207
854.854	21195
854.988	21207
855.122	21249
855.256	21066
855.39	21298
855.524	21348
855.658	21272
855.792	21230
855.926	21348
856.06	21317
856.194	21420
856.327	21237
856.461	21047
856.595	21180
856.729	21176
856.862	21241
856.996	21169
857.13	21298
857.263	21351
857.397	21165
857.53	21233
857.664	21249
857.797	21249
857.931	21287
858.064	21188
858.197	21424
858.331	21275
858.464	21047
858.597	21237
858.731	21245
858.864	21264
858.997	21070
859.13	21173
859.263	21325
859.396	21317
859.529	21207
859.662	21154
859.795	21184
859.928	21154
860.061	21321
860.194	21447
860.327	21332
860.46	21268
860.592	21275
860.725	21408
860.858	21332
860.99	21249
861.123	21161
861.256	21089
861.388	21230
861.521	21869
861.653	20979
861.786	20971
861.918	21089
862.05	21062
862.183	21161
862.315	21157
862.447	21150
862.58	21173
862.712	20887
862.844	20899
862.976	21074
863.108	20849
863.24	21344
863.372	20941
863.504	20925
863.636	21047
863.768	21062
863.9	20880
864.032	20796
864.164	20921
864.296	21036
864.428	21024
864.559	20921
864.691	21032
864.823	20960
864.954	20868
865.086	20956
865.217	20880
865.349	20727
865.48	20834
865.612	20868
865.743	20986
865.875	20758
866.006	20826
866.137	20792
866.269	20891
866.4	20857
866.531	20735
866.662	20743
866.793	20640
866.924	20777
867.055	20785
867.186	20792
867.317	20739
867.448	20632
867.579	20632
867.71	20708
867.841	20743
867.972	20762
868.103	20632
868.233	20864
868.364	20807
868.495	20891
868.625	20960
868.756	21036
868.886	20853
869.017	20941
869.147	21161
869.278	21058
869.408	20906
869.539	21001
869.669	21089
869.799	21036
869.929	21157
870.06	21119
870.19	21245
870.32	21214
870.45	21340
870.58	21420
870.71	21591
870.84	21488
870.97	21317
871.1	21504
871.23	21511
871.36	21625
871.489	21523
871.619	21618
871.749	21629
871.879	21663
872.008	21732
872.138	21534
872.267	21507
872.397	21428
872.526	21462
872.656	21576
872.785	21405
872.915	21625
873.044	21644
873.173	21580
873.303	21694
873.432	21732
873.561	21694
873.69	21500
873.819	21542
873.948	21587
874.077	21580
874.206	21549
874.335	21553
874.464	21766
874.593	21911
874.722	21781
874.851	21937
874.979	21709
875.108	21770
875.237	21705
875.365	21717
875.494	21808
875.623	21945
875.751	21831
875.88	21755
876.008	22006
876.136	22055
876.265	22226
876.393	22375
876.521	22337
876.65	22280
876.778	22272
876.906	22265
877.034	22120
877.162	22181
877.29	22249
877.418	22177
877.546	22162
877.674	22226
877.802	22200
877.93	22082
878.058	22143
878.185	21926
878.313	22196
878.441	22082
878.568	22010
878.696	22158
878.824	22284
878.951	22333
879.079	22474
879.206	22432
879.333	22440
879.461	22215
879.588	22314
879.715	22360
879.842	22523
879.97	22177
880.097	22063
880.224	21884
880.351	22036
880.478	21968
880.605	21937
880.732	21991
880.859	22333
880.986	22154
881.112	22105
881.239	21766
881.366	21808
881.493	21808
881.619	21572
881.746	21671
881.872	21709
881.999	21622
882.125	21538
882.252	21557
882.378	21534
882.505	21789
882.631	21477
882.757	21195
882.883	21386
883.01	21348
883.136	21306
883.262	21241
883.388	20986
883.514	21367
883.64	21283
883.766	21199
883.892	21119
884.018	21123
884.143	21302
884.269	21431
884.395	21032
884.52	21047
884.646	20929
884.772	20899
884.897	20895
885.023	20982
885.148	20902
885.274	21096
885.399	21028
885.524	20929
885.65	21096
885.775	20986
885.9	20952
886.025	21150
886.15	20990
886.275	20918
886.4	20864
886.525	20918
886.65	20918
886.775	20849
886.9	21066
887.025	21173
887.149	20929
887.274	20769
887.399	20697
887.523	20693
887.648	20689
887.773	20632
887.897	20765
888.021	20743
888.146	20648
888.27	20864
888.395	20792
888.519	20701
888.643	20739
888.767	20807
888.891	20667
889.015	20537
889.139	20480
889.263	20556
889.387	20712
889.511	20807
889.635	20556
889.759	20583
889.883	20446
890.006	20609
890.13	20575
890.254	20518
890.377	20465
890.501	20374
890.624	20237
890.748	20324
890.871	20172
890.995	20187
891.118	20077
891.241	20088
891.364	20221
891.488	20313
891.611	20157
891.734	20134
891.857	20263
891.98	20062
892.103	20199
892.226	20130
892.349	20122
892.471	19845
892.594	20020
892.717	20050
892.839	20008
892.962	20103
893.085	20081
893.207	20031
893.33	19944
893.452	19997
893.575	20084
893.697	19856
893.819	20199
893.941	20244
894.064	20206
894.186	19928
894.308	19974
894.43	20065
894.552	20244
894.674	20119
894.796	19959
894.918	20065
895.04	20016
895.161	20092
895.283	20172
895.405	20001
895.526	19967
895.648	19913
895.769	20005
895.891	20027
896.012	20111
896.134	20084
896.255	19970
896.376	19925
896.498	19902
896.619	20111
896.74	20031
896.861	19944
896.982	20259
897.103	20351
897.224	20225
897.345	20286
897.466	20218
897.587	20252
897.708	20290
897.828	20328
897.949	20119
898.07	20054
898.19	20111
898.311	20389
898.431	20100
898.552	20176
898.672	20374
898.792	20393
898.913	20320
899.033	20161
899.153	19925
899.273	19864
899.393	19955
899.513	20088
899.633	19951
899.753	20001
899.873	19818
899.993	20069
900.113	19936
900.232	19940
900.352	19791
900.472	19689
900.591	19715
900.711	19635
900.83	19647
900.95	19803
901.069	19864
901.189	19693
901.308	19460
901.427	19320
901.546	19346
901.665	19388
901.784	19324
901.904	19289
902.023	19171
902.141	18943
902.26	18947
902.379	19069
902.498	18741
902.617	18768
902.735	18844
902.854	18840
902.973	18715
903.091	18521
903.21	18528
903.328	18513
903.446	18513
903.565	18334
903.683	18304
903.801	18251
903.919	18369
904.038	18186
904.156	18163
904.274	18083
904.392	18133
904.51	18216
904.627	18076
904.745	18163
904.863	18174
904.981	17946
905.098	17741
905.216	17748
905.334	17695
905.451	17863
905.569	17859
905.686	17832
905.803	17745
905.921	17566
906.038	17703
906.155	17577
906.272	17493
906.389	17368
906.506	17364
906.623	17395
906.74	17292
906.857	17265
906.974	17254
907.091	17410
907.208	17417
907.324	17425
907.441	17216
907.557	17018
907.674	17022
907.79	17003
907.907	16930
908.023	17022
908.139	17018
908.256	16915
908.372	16862
908.488	16942
908.604	16774
908.72	16801
908.836	16862
908.952	16793
909.068	16637
909.184	16911
909.3	16744
909.415	16672
909.531	16740
909.647	16519
909.762	16474
909.878	16538
909.993	16500
910.108	16333
910.224	16432
910.339	16398
910.454	16356
910.57	16306
910.685	16207
910.8	16478
910.915	16462
911.03	16135
911.145	16059
911.259	16074
911.374	16021
911.489	15964
911.604	16029
911.718	15770
911.833	15842
911.947	15743
912.062	15675
912.176	15720
912.291	15857
912.405	15831
912.519	15991
912.633	15930
912.748	15804
912.862	15686
912.976	15561
913.09	15469
913.204	15553
913.318	15656
913.431	15667
913.545	15698
913.659	15686
913.772	15587
913.886	15477
914	15359
914.113	15466
914.226	15519
914.34	15450
914.453	15378
914.566	15344
914.68	15317
914.793	15302
914.906	15081
915.019	15024
915.132	14998
915.245	15043
915.358	15062
915.47	15077
915.583	14979
915.696	15074
915.809	15146
915.921	15066
916.034	14948
916.146	15009
916.259	14929
916.371	14891
916.483	14956
916.595	14857
916.708	14906
916.82	14849
916.932	14830
917.044	14796
917.156	14708
917.268	14564
917.38	14689
917.491	14659
917.603	14762
917.715	14689
917.826	14807
917.938	14545
918.049	14431
918.161	14686
918.272	14670
918.384	14781
918.495	14575
918.606	14480
918.717	14381
918.828	14419
918.939	14579
919.05	14298
919.161	14431
919.272	14214
919.383	14237
919.494	14492
919.604	14575
919.715	14431
919.826	14305
919.936	14320
920.047	14400
920.157	14396
920.267	14564
920.378	14396
920.488	14389
920.598	14613
920.708	14769
920.818	14537
920.928	14533
921.038	14625
921.148	14606
921.258	14320
921.368	14225
921.477	14290
921.587	14050
921.697	13902
921.806	14130
921.916	14001
922.025	13868
922.134	13765
922.244	13765
922.353	13803
922.462	13651
922.571	13624
922.68	13411
922.789	13419
922.898	13445
923.007	13312
923.116	13495
923.224	13445
923.333	13464
923.442	13289
923.55	13301
923.659	13263
923.767	13324
923.876	13095
923.984	13339
924.092	13103
924.201	13187
924.309	13175
924.417	13133
924.525	13038
924.633	13080
924.741	14054
924.849	12890
924.956	12935
925.064	12905
925.172	12738
925.279	12814
925.387	12760
925.494	12867
925.602	13031
925.709	12875
925.816	12726
925.924	12939
926.031	12837
926.138	12696
926.245	12863
926.352	12749
926.459	12837
926.566	12825
926.673	12719
926.779	12612
926.886	12639
926.993	12445
927.099	12475
927.206	12357
927.312	12403
927.419	12338
927.525	12429
927.631	12426
927.737	12338
927.843	12258
927.95	12152
928.056	12194
928.162	12281
928.267	12258
928.373	12814
928.479	12327
928.585	12072
928.69	12224
928.796	12270
928.901	12152
929.007	11931
929.112	12087
929.218	12011
929.323	12022
929.428	11950
929.533	12091
929.638	11775
929.743	11942
929.848	11908
929.953	11901
930.058	11863
930.163	11665
930.267	11699
930.372	11764
930.477	11668
930.581	11802
930.685	11695
930.79	11463
930.894	11493
930.998	11543
931.103	11646
931.207	11349
931.311	11269
931.415	11033
931.519	10961
931.623	10949
