Data from test_V78500241_1228.txt Node
Date: Fri Mar 25 15:18:24 CST 2022
User: usil
Spectrometer: V785-0024
Trigger mode: 0
Integration Time (sec): 4.000000E-1
Scans to average: 1
Nonlinearity correction enabled: false
Boxcar width: 0
Storing dark spectrum: false
XAxis mode: Wavelengths
Number of Pixels in Spectrum: 1024
>>>>>Begin Spectral Data<<<<<
801.071	28124
801.214	28017
801.356	27819
801.499	27759
801.641	27690
801.783	27644
801.926	27808
802.068	27667
802.211	27637
802.353	27549
802.496	27302
802.638	27306
802.78	27306
802.923	27207
803.065	27241
803.208	27184
803.35	27180
803.492	27458
803.635	27450
803.777	27344
803.919	27576
804.061	27838
804.204	27610
804.346	27515
804.488	27431
804.63	27401
804.773	27488
804.915	27595
805.057	27736
805.199	27599
805.341	27717
805.483	27766
805.626	27785
805.768	27538
805.91	27698
806.052	27526
806.194	27561
806.336	27736
806.478	27759
806.62	27724
806.762	27747
806.904	27956
807.046	28040
807.188	28128
807.33	28093
807.472	27987
807.614	28124
807.756	28017
807.898	28051
808.04	27945
808.182	27842
808.324	28070
808.465	27998
808.607	28284
808.749	28409
808.891	28310
809.033	28455
809.174	28466
809.316	28390
809.458	28188
809.6	28287
809.741	28512
809.883	28554
810.025	28725
810.166	28660
810.308	28603
810.45	28462
810.591	28565
810.733	28401
810.875	28325
811.016	28322
811.158	28150
811.299	28432
811.441	28462
811.582	28436
811.724	28375
811.865	28314
812.007	28424
812.148	28379
812.29	28462
812.431	28443
812.573	28615
812.714	28748
812.855	28790
812.997	28987
813.138	29048
813.279	29044
813.421	29067
813.562	28888
813.703	28622
813.845	28672
813.986	28249
814.127	28097
814.268	28067
814.41	28131
814.551	28013
814.692	28032
814.833	28051
814.974	28093
815.115	27979
815.256	27846
815.397	27781
815.539	28010
815.68	27842
815.821	27819
815.962	27804
816.103	27728
816.244	27762
816.385	27564
816.526	27576
816.666	27545
816.807	27374
816.948	27313
817.089	27412
817.23	27291
817.371	27317
817.512	27351
817.653	27526
817.793	27291
817.934	27344
818.075	27348
818.216	27321
818.356	27157
818.497	27283
818.638	27062
818.778	27062
818.919	27036
819.06	27218
819.2	27325
819.341	27291
819.481	27214
819.622	27526
819.762	27644
819.903	27568
820.043	27599
820.184	27511
820.324	27363
820.465	27568
820.605	27439
820.746	27439
820.886	27256
821.026	27386
821.167	27416
821.307	27572
821.447	27310
821.588	27367
821.728	27199
821.868	27024
822.008	26853
822.149	26792
822.289	26754
822.429	26644
822.569	26526
822.709	26495
822.849	26324
822.99	26442
823.13	26206
823.27	26313
823.41	26195
823.55	26005
823.69	26221
823.83	26103
823.97	26035
824.11	25959
824.25	25898
824.389	25913
824.529	26031
824.669	25959
824.809	26168
824.949	26096
825.089	26096
825.228	25986
825.368	25849
825.508	25837
825.648	25784
825.787	25887
825.927	25887
826.067	25715
826.206	25864
826.346	25738
826.485	25890
826.625	25799
826.765	25894
826.904	25852
827.044	25658
827.183	25468
827.323	25540
827.462	25575
827.601	25597
827.741	25525
827.88	25472
828.02	25559
828.159	25487
828.298	25563
828.437	25628
828.577	25472
828.716	25670
828.855	25518
828.994	25422
829.134	25088
829.273	25274
829.412	25225
829.551	25164
829.69	25221
829.829	25194
829.968	25373
830.107	25331
830.246	25228
830.385	25194
830.524	25156
830.663	25095
830.802	25031
830.941	24863
831.08	24730
831.219	25015
831.357	24970
831.496	25126
831.635	25069
831.774	24829
831.913	24894
832.051	24738
832.19	24604
832.329	24726
832.467	24490
832.606	24585
832.744	24536
832.883	24578
833.022	24517
833.16	24620
833.299	24555
833.437	24593
833.576	24623
833.714	24623
833.852	24730
833.991	24772
834.129	24711
834.267	24726
834.406	24646
834.544	24681
834.682	24555
834.821	24536
834.959	24932
835.097	24547
835.235	24681
835.373	24623
835.511	24566
835.65	24551
835.788	24547
835.926	24376
836.064	24311
836.202	24369
836.34	24467
836.478	24559
836.615	24467
836.753	24395
836.891	24498
837.029	24464
837.167	24346
837.305	24327
837.443	24361
837.58	24258
837.718	24391
837.856	24380
837.993	24338
838.131	24270
838.269	24232
838.406	24239
838.544	24148
838.681	23897
838.819	23904
838.956	23729
839.094	23745
839.231	23828
839.369	24007
839.506	24144
839.643	23969
839.781	23752
839.918	23649
840.055	23786
840.193	23767
840.33	23703
840.467	23764
840.604	23684
840.742	24030
840.879	23676
841.016	23630
841.153	23463
841.29	23642
841.427	23752
841.564	23840
841.701	23687
841.838	23684
841.975	23649
842.112	23490
842.249	23395
842.385	23372
842.522	23642
842.659	23474
842.796	23391
842.933	23478
843.069	23356
843.206	23417
843.343	23486
843.479	23501
843.616	23433
843.752	23216
843.889	23296
844.025	23356
844.162	23239
844.298	23372
844.435	23246
844.571	23239
844.708	23235
844.844	23318
844.98	23220
845.117	23174
845.253	23220
845.389	23159
845.525	23227
845.661	23128
845.798	22885
845.934	23075
846.07	22847
846.206	22900
846.342	23025
846.478	22904
846.614	22596
846.75	22630
846.886	22668
847.022	22847
847.158	22778
847.294	22649
847.429	22797
847.565	22729
847.701	22885
847.837	22344
847.972	22344
848.108	22478
848.244	22508
848.379	22367
848.515	22291
848.65	22185
848.786	22207
848.921	22341
849.057	22379
849.192	22386
849.328	22356
849.463	22314
849.598	22200
849.734	22143
849.869	22135
850.004	22093
850.14	22044
850.275	22185
850.41	22032
850.545	22017
850.68	21945
850.815	22055
850.95	22010
851.085	22246
851.22	22147
851.355	22090
851.49	21964
851.625	22040
851.76	21964
851.895	21979
852.03	21873
852.165	21994
852.299	22154
852.434	22048
852.569	21968
852.703	22070
852.838	22021
852.973	22158
853.107	22150
853.242	21960
853.376	21816
853.511	21625
853.645	21861
853.78	21968
853.914	21895
854.048	21869
854.183	21800
854.317	22013
854.451	22067
854.585	21915
854.72	21812
854.854	21937
854.988	21789
855.122	21876
855.256	21747
855.39	21781
855.524	21911
855.658	21907
855.792	21827
855.926	21838
856.06	21994
856.194	21930
856.327	21823
856.461	21732
856.595	21785
856.729	21701
856.862	21918
856.996	21892
857.13	21926
857.263	21960
857.397	21991
857.53	21888
857.664	21857
857.797	21880
857.931	22021
858.064	21869
858.197	21987
858.331	21838
858.464	21804
858.597	21739
858.731	21762
858.864	21618
858.997	21762
859.13	21770
859.263	21876
859.396	22082
859.529	21774
859.662	21789
859.795	21827
859.928	21774
860.061	21915
860.194	22139
860.327	21960
860.46	21968
860.592	22021
860.725	21983
860.858	22078
860.99	21975
861.123	21762
861.256	21800
861.388	21842
861.521	22546
861.653	21713
861.786	21713
861.918	21614
862.05	21720
862.183	21755
862.315	21873
862.447	21774
862.58	21762
862.712	21507
862.844	21439
862.976	21679
863.108	21698
863.24	21907
863.372	21523
863.504	21549
863.636	21652
863.768	21557
863.9	21576
864.032	21519
864.164	21523
864.296	21580
864.428	21682
864.559	21641
864.691	21667
864.823	21466
864.954	21488
865.086	21599
865.217	21553
865.349	21386
865.48	21393
865.612	21500
865.743	21614
865.875	21515
866.006	21405
866.137	21374
866.269	21447
866.4	21424
866.531	21386
866.662	21420
866.793	21500
866.924	21336
867.055	21469
867.186	21393
867.317	21340
867.448	21264
867.579	21412
867.71	21222
867.841	21249
867.972	21370
868.103	21351
868.233	21393
868.364	21268
868.495	21488
868.625	21523
868.756	21690
868.886	21488
869.017	21519
869.147	21739
869.278	21724
869.408	21751
869.539	21614
869.669	21808
869.799	21713
869.929	21583
870.06	21781
870.19	21960
870.32	21876
870.45	21915
870.58	22051
870.71	22055
870.84	22101
870.97	21926
871.1	21941
871.23	22246
871.36	22082
871.489	22185
871.619	22192
871.749	22284
871.879	22032
872.008	22325
872.138	22234
872.267	22135
872.397	22051
872.526	22078
872.656	22128
872.785	22055
872.915	22223
873.044	22280
873.173	22242
873.303	22105
873.432	22318
873.561	22402
873.69	22207
873.819	22363
873.948	22303
874.077	22272
874.206	22211
874.335	22246
874.464	22272
874.593	22470
874.722	22474
874.851	22318
874.979	22375
875.108	22512
875.237	22443
875.365	22394
875.494	22417
875.623	22603
875.751	22265
875.88	22485
876.008	22546
876.136	22653
876.265	22774
876.393	22961
876.521	22850
876.65	22828
876.778	22900
876.906	22862
877.034	22721
877.162	22755
877.29	22809
877.418	22843
877.546	22869
877.674	22786
877.802	22911
877.93	22748
878.058	22755
878.185	22725
878.313	22755
878.441	22790
878.568	22630
878.696	22736
878.824	22835
878.951	22816
879.079	22904
879.206	23014
879.333	22843
879.461	23022
879.588	22892
879.715	22831
879.842	23052
879.97	22839
880.097	22653
880.224	22660
880.351	22622
880.478	22691
880.605	22611
880.732	22542
880.859	22850
880.986	22622
881.112	22596
881.239	22538
881.366	22398
881.493	22219
881.619	22143
881.746	22291
881.872	22150
881.999	22120
882.125	22010
882.252	22196
882.378	22204
882.505	22265
882.631	21884
882.757	21861
882.883	21945
883.01	21846
883.136	21873
883.262	21701
883.388	21728
883.514	21732
883.64	21865
883.766	21762
883.892	21572
884.018	21720
884.143	21911
884.269	21926
884.395	21447
884.52	21534
884.646	21526
884.772	21332
884.897	21302
885.023	21507
885.148	21637
885.274	21709
885.399	21663
885.524	21485
885.65	21549
885.775	21553
885.9	21428
886.025	21679
886.15	21519
886.275	21363
886.4	21504
886.525	21408
886.65	21458
886.775	21298
886.9	21564
887.025	21610
887.149	21572
887.274	21298
887.399	21241
887.523	21287
887.648	21272
887.773	21218
887.897	21313
888.021	21359
888.146	21211
888.27	21374
888.395	21412
888.519	21287
888.643	21317
888.767	21279
888.891	21165
889.015	21074
889.139	21195
889.263	21138
889.387	21245
889.511	21260
889.635	21161
889.759	21123
889.883	21192
890.006	21310
890.13	21199
890.254	21135
890.377	21047
890.501	20868
890.624	20876
890.748	20883
890.871	20743
890.995	20651
891.118	20522
891.241	20750
891.364	20678
891.488	20796
891.611	20655
891.734	20720
891.857	20621
891.98	20636
892.103	20735
892.226	20583
892.349	20545
892.471	20556
892.594	20457
892.717	20571
892.839	20545
892.962	20473
893.085	20583
893.207	20587
893.33	20442
893.452	20511
893.575	20686
893.697	20606
893.819	20712
893.941	20842
894.064	20811
894.186	20438
894.308	20549
894.43	20754
894.552	20590
894.674	20613
894.796	20499
894.918	20480
895.04	20480
895.161	20663
895.283	20552
895.405	20473
895.526	20549
895.648	20575
895.769	20484
895.891	20488
896.012	20632
896.134	20488
896.255	20712
896.376	20480
896.498	20492
896.619	20533
896.74	20434
896.861	20537
896.982	20861
897.103	21062
897.224	20815
897.345	20682
897.466	20621
897.587	20724
897.708	20864
897.828	20674
897.949	20602
898.07	20552
898.19	20735
898.311	20842
898.431	20651
898.552	20804
898.672	20727
898.792	20796
898.913	20781
899.033	20701
899.153	20564
899.273	20465
899.393	20358
899.513	20518
899.633	20442
899.753	20442
899.873	20415
899.993	20393
900.113	20450
900.232	20473
900.352	20362
900.472	20389
900.591	20153
900.711	20309
900.83	20267
900.95	20278
901.069	20282
901.189	19944
901.308	19898
901.427	19757
901.546	19814
901.665	19879
901.784	19765
901.904	19613
902.023	19594
902.141	19430
902.26	19365
902.379	19419
902.498	19304
902.617	19369
902.735	19373
902.854	19228
902.973	19206
903.091	19080
903.21	18928
903.328	19118
903.446	18977
903.565	18856
903.683	18776
903.801	18646
903.919	18890
904.038	18802
904.156	18608
904.274	18620
904.392	18547
904.51	18559
904.627	18566
904.745	18601
904.863	18563
904.981	18315
905.098	18155
905.216	18205
905.334	18152
905.451	18216
905.569	18197
905.686	18407
905.803	18186
905.921	17973
906.038	18171
906.155	18152
906.272	18049
906.389	17912
906.506	17653
906.623	17786
906.74	17832
906.857	17653
906.974	17661
907.091	17809
907.208	17863
907.324	17809
907.441	17661
907.557	17524
907.674	17585
907.79	17482
907.907	17414
908.023	17471
908.139	17497
908.256	17512
908.372	17372
908.488	17356
908.604	17288
908.72	17181
908.836	17159
908.952	17159
909.068	17204
909.184	17307
909.3	17254
909.415	17200
909.531	17124
909.647	16968
909.762	16858
909.878	16949
909.993	16911
910.108	16972
910.224	16824
910.339	16839
910.454	16831
910.57	16717
910.685	16641
910.8	16968
910.915	16831
911.03	16668
911.145	16607
911.259	16455
911.374	16459
911.489	16363
911.604	16287
911.718	16272
911.833	16276
911.947	16192
912.062	16078
912.176	16268
912.291	16242
912.405	16230
912.519	16436
912.633	16421
912.748	16253
912.862	16265
912.976	16086
913.09	15876
913.204	16067
913.318	16090
913.431	16090
913.545	16036
913.659	16109
913.772	16097
913.886	15915
914	15838
914.113	15941
914.226	15994
914.34	15857
914.453	15759
914.566	15873
914.68	15724
914.793	15660
914.906	15538
915.019	15481
915.132	15363
915.245	15370
915.358	15431
915.47	15348
915.583	15443
915.696	15488
915.809	15557
915.921	15606
916.034	15469
916.146	15298
916.259	15340
916.371	15336
916.483	15397
916.595	15359
916.708	15382
916.82	15329
916.932	15336
917.044	15249
917.156	15268
917.268	15104
917.38	15074
917.491	15074
917.603	15005
917.715	15260
917.826	15093
917.938	15032
918.049	14933
918.161	15074
918.272	15146
918.384	15188
918.495	15024
918.606	14872
918.717	14807
918.828	14899
918.939	14819
919.05	14724
919.161	14720
919.272	14640
919.383	14712
919.494	14853
919.604	15070
919.715	14788
919.826	14735
919.936	14758
920.047	14876
920.157	14754
920.267	14998
920.378	14804
920.488	14807
920.598	14914
920.708	15032
920.818	14906
920.928	14876
921.038	15123
921.148	14979
921.258	14781
921.368	14727
921.477	14537
921.587	14450
921.697	14252
921.806	14499
921.916	14332
922.025	14229
922.134	14111
922.244	14115
922.353	14138
922.462	14050
922.571	14016
922.68	13822
922.789	13807
922.898	13772
923.007	13712
923.116	13784
923.224	13788
923.333	13837
923.442	13655
923.55	13571
923.659	13734
923.767	13655
923.876	13578
923.984	13674
924.092	13506
924.201	13529
924.309	13533
924.417	13628
924.525	13529
924.633	13422
924.741	14259
924.849	13209
924.956	13419
925.064	13217
925.172	13088
925.279	13126
925.387	13217
925.494	13194
925.602	13327
925.709	13282
925.816	13099
925.924	13156
926.031	13240
926.138	13187
926.245	13304
926.352	13061
926.459	13187
926.566	13187
926.673	13053
926.779	12932
926.886	13012
926.993	12875
927.099	12726
927.206	12734
927.312	12696
927.419	12810
927.525	12631
927.631	12768
927.737	12620
927.843	12582
927.95	12502
928.056	12551
928.162	12582
928.267	12631
928.373	13168
928.479	12589
928.585	12452
928.69	12521
928.796	12585
928.901	12365
929.007	12330
929.112	12346
929.218	12361
929.323	12304
929.428	12239
929.533	12441
929.638	12247
929.743	12281
929.848	12273
929.953	12220
930.058	12148
930.163	11980
930.267	11988
930.372	12041
930.477	11912
930.581	12140
930.685	12007
930.79	11821
930.894	11859
930.998	11851
931.103	11965
931.207	11619
931.311	11493
931.415	11467
931.519	11208
931.623	11220
