Data from test_V78500241_614.txt Node
Date: Fri Mar 25 15:14:08 CST 2022
User: usil
Spectrometer: V785-0024
Trigger mode: 0
Integration Time (sec): 4.000000E-1
Scans to average: 1
Nonlinearity correction enabled: false
Boxcar width: 0
Storing dark spectrum: false
XAxis mode: Wavelengths
Number of Pixels in Spectrum: 1024
>>>>>Begin Spectral Data<<<<<
801.071	27652
801.214	27568
801.356	27370
801.499	27389
801.641	27157
801.783	27294
801.926	27252
802.068	27146
802.211	27195
802.353	26971
802.496	26914
802.638	26940
802.78	26842
802.923	26765
803.065	26838
803.208	26876
803.35	26902
803.492	27017
803.635	27074
803.777	26815
803.919	26998
804.061	27214
804.204	27036
804.346	26937
804.488	26864
804.63	26853
804.773	26880
804.915	27039
805.057	27173
805.199	27017
805.341	27020
805.483	27104
805.626	27142
805.768	27001
805.91	27150
806.052	27051
806.194	27070
806.336	27294
806.478	27313
806.62	27127
806.762	27157
806.904	27359
807.046	27572
807.188	27603
807.33	27507
807.472	27580
807.614	27549
807.756	27545
807.898	27443
808.04	27500
808.182	27272
808.324	27401
808.465	27427
808.607	27519
808.749	27717
808.891	27914
809.033	27880
809.174	27804
809.316	27903
809.458	27831
809.6	27899
809.741	27892
809.883	27869
810.025	28017
810.166	27972
810.308	27994
810.45	28101
810.591	28070
810.733	27892
810.875	27766
811.016	27751
811.158	27618
811.299	27888
811.441	27819
811.582	27869
811.724	27743
811.865	27713
812.007	27831
812.148	27717
812.29	27743
812.431	27869
812.573	28249
812.714	28333
812.855	28417
812.997	28230
813.138	28603
813.279	28386
813.421	28413
813.562	28348
813.703	28242
813.845	28044
813.986	27797
814.127	27641
814.268	27557
814.41	27454
814.551	27405
814.692	27500
814.833	27306
814.974	27504
815.115	27469
815.256	27515
815.397	27332
815.539	27363
815.68	27287
815.821	27275
815.962	27355
816.103	27275
816.244	27112
816.385	27043
816.526	26956
816.666	26868
816.807	26800
816.948	26872
817.089	26921
817.23	26762
817.371	26807
817.512	26823
817.653	26651
817.793	26663
817.934	26754
818.075	26735
818.216	26918
818.356	26769
818.497	26701
818.638	26404
818.778	26549
818.919	26545
819.06	26549
819.2	26773
819.341	26682
819.481	26598
819.622	27058
819.762	26952
819.903	27009
820.043	26857
820.184	26902
820.324	26937
820.465	26967
820.605	26880
820.746	26971
820.886	26754
821.026	26830
821.167	26883
821.307	26826
821.447	26861
821.588	26579
821.728	26697
821.868	26385
822.008	26252
822.149	26343
822.289	26153
822.429	25963
822.569	25830
822.709	25879
822.849	25822
822.99	25772
823.13	25651
823.27	25685
823.41	25586
823.55	25384
823.69	25639
823.83	25563
823.97	25441
824.11	25464
824.25	25346
824.389	25316
824.529	25403
824.669	25297
824.809	25514
824.949	25506
825.089	25426
825.228	25422
825.368	25339
825.508	25225
825.648	25240
825.787	25225
825.927	25354
826.067	25236
826.206	25327
826.346	25388
826.485	25324
826.625	25270
826.765	25289
826.904	25270
827.044	24966
827.183	25000
827.323	24920
827.462	24966
827.601	24932
827.741	24992
827.88	24943
828.02	24882
828.159	24928
828.298	24844
828.437	25031
828.577	24871
828.716	25107
828.855	25015
828.994	24627
829.134	24715
829.273	24669
829.412	24681
829.551	24620
829.69	24631
829.829	24692
829.968	24738
830.107	24700
830.246	24726
830.385	24509
830.524	24475
830.663	24414
830.802	24384
830.941	24216
831.08	24224
831.219	24418
831.357	24369
831.496	24498
831.635	24338
831.774	24273
831.913	24083
832.051	24007
832.19	24060
832.329	23999
832.467	24117
832.606	24018
832.744	24022
832.883	23939
833.022	23813
833.16	23946
833.299	23980
833.437	23958
833.576	23935
833.714	24034
833.852	24030
833.991	24102
834.129	24087
834.267	24102
834.406	23958
834.544	24216
834.682	24125
834.821	23847
834.959	24121
835.097	23927
835.235	24018
835.373	23969
835.511	24030
835.65	23824
835.788	23946
835.926	23824
836.064	23653
836.202	23630
836.34	23824
836.478	23901
836.615	23859
836.753	23771
836.891	23950
837.029	23878
837.167	23764
837.305	23760
837.443	23676
837.58	23653
837.718	23790
837.856	23783
837.993	23585
838.131	23691
838.269	23528
838.406	23516
838.544	23539
838.681	23406
838.819	23341
838.956	23303
839.094	23147
839.231	23189
839.369	23315
839.506	23539
839.643	23307
839.781	23052
839.918	23014
840.055	23086
840.193	23204
840.33	22968
840.467	23056
840.604	23113
840.742	23258
840.879	22869
841.016	23041
841.153	22995
841.29	23075
841.427	23109
841.564	23117
841.701	22972
841.838	23083
841.975	22999
842.112	22930
842.249	22862
842.385	22881
842.522	22946
842.659	22915
842.796	22793
842.933	22854
843.069	22812
843.206	22778
843.343	22854
843.479	22733
843.616	22725
843.752	22554
843.889	22561
844.025	22706
844.162	22577
844.298	22626
844.435	22573
844.571	22588
844.708	22622
844.844	22774
844.98	22706
845.117	22516
845.253	22596
845.389	22478
845.525	22497
845.661	22538
845.798	22295
845.934	22360
846.07	22314
846.206	22367
846.342	22451
846.478	22367
846.614	22223
846.75	22040
846.886	22147
847.022	22120
847.158	22139
847.294	22006
847.429	22188
847.565	22101
847.701	22295
847.837	21842
847.972	21778
848.108	21880
848.244	21983
848.379	21622
848.515	21553
848.65	21705
848.786	21747
848.921	21709
849.057	21743
849.192	21675
849.328	21724
849.463	21652
849.598	21637
849.734	21618
849.869	21500
850.004	21485
850.14	21374
850.275	21454
850.41	21272
850.545	21401
850.68	21302
850.815	21485
850.95	21416
851.085	21591
851.22	21416
851.355	21397
851.49	21435
851.625	21321
851.76	21454
851.895	21325
852.03	21264
852.165	21420
852.299	21329
852.434	21477
852.569	21367
852.703	21458
852.838	21488
852.973	21504
853.107	21652
853.242	21332
853.376	21321
853.511	21081
853.645	21150
853.78	21428
853.914	21325
854.048	21226
854.183	21184
854.317	21294
854.451	21473
854.585	21214
854.72	21291
854.854	21321
854.988	21017
855.122	21241
855.256	21199
855.39	21264
855.524	21313
855.658	21260
855.792	21302
855.926	21302
856.06	21336
856.194	21344
856.327	21119
856.461	21218
856.595	21272
856.729	21245
856.862	21450
856.996	21233
857.13	21336
857.263	21363
857.397	21310
857.53	21249
857.664	21218
857.797	21325
857.931	21431
858.064	21306
858.197	21367
858.331	21382
858.464	21207
858.597	21180
858.731	21195
858.864	21233
858.997	21226
859.13	21249
859.263	21298
859.396	21264
859.529	21188
859.662	21226
859.795	21203
859.928	21382
860.061	21424
860.194	21492
860.327	21321
860.46	21325
860.592	21298
860.725	21298
860.858	21420
860.99	21359
861.123	21245
861.256	21100
861.388	21245
861.521	22006
861.653	21135
861.786	21028
861.918	21058
862.05	21131
862.183	21176
862.315	21287
862.447	21294
862.58	21161
862.712	21032
862.844	20895
862.976	21226
863.108	21047
863.24	21511
863.372	20883
863.504	21036
863.636	20899
863.768	20960
863.9	20990
864.032	20864
864.164	20857
864.296	20998
864.428	21188
864.559	21036
864.691	21062
864.823	21058
864.954	20937
865.086	20986
865.217	20864
865.349	20773
865.48	20899
865.612	20857
865.743	21039
865.875	20956
866.006	20918
866.137	20876
866.269	20910
866.4	20708
866.531	20777
866.662	20864
866.793	20849
866.924	20712
867.055	20826
867.186	20887
867.317	20815
867.448	20693
867.579	20804
867.71	20686
867.841	20701
867.972	20902
868.103	20674
868.233	20785
868.364	20773
868.495	20914
868.625	21036
868.756	21089
868.886	20975
869.017	20982
869.147	21081
869.278	21192
869.408	21161
869.539	21005
869.669	21195
869.799	21039
869.929	21119
870.06	21203
870.19	21344
870.32	21389
870.45	21393
870.58	21534
870.71	21603
870.84	21523
870.97	21397
871.1	21454
871.23	21599
871.36	21644
871.489	21568
871.619	21492
871.749	21705
871.879	21572
872.008	21724
872.138	21576
872.267	21698
872.397	21545
872.526	21431
872.656	21534
872.785	21439
872.915	21618
873.044	21656
873.173	21663
873.303	21641
873.432	21728
873.561	21804
873.69	21633
873.819	21770
873.948	21671
874.077	21705
874.206	21599
874.335	21690
874.464	21705
874.593	21918
874.722	21994
874.851	21892
874.979	22013
875.108	21895
875.237	21781
875.365	21728
875.494	21827
875.623	21964
875.751	21945
875.88	21934
876.008	22032
876.136	22067
876.265	22341
876.393	22379
876.521	22329
876.65	22424
876.778	22295
876.906	22211
877.034	22234
877.162	22265
877.29	22139
877.418	22112
877.546	22375
877.674	22154
877.802	22192
877.93	22318
878.058	22177
878.185	22192
878.313	22192
878.441	22207
878.568	22090
878.696	22143
878.824	22318
878.951	22322
879.079	22382
879.206	22455
879.333	22413
879.461	22196
879.588	22337
879.715	22348
879.842	22481
879.97	22386
880.097	22055
880.224	22154
880.351	22109
880.478	22101
880.605	22074
880.732	22025
880.859	22226
880.986	22067
881.112	22044
881.239	21907
881.366	21831
881.493	21629
881.619	21641
881.746	21663
881.872	21576
881.999	21511
882.125	21530
882.252	21679
882.378	21759
882.505	21797
882.631	21561
882.757	21397
882.883	21447
883.01	21279
883.136	21264
883.262	21226
883.388	21138
883.514	21298
883.64	21291
883.766	21332
883.892	21184
884.018	21184
884.143	21222
884.269	21401
884.395	21043
884.52	20956
884.646	20971
884.772	20925
884.897	20891
885.023	21028
885.148	21146
885.274	21039
885.399	21024
885.524	20929
885.65	20944
885.775	20956
885.9	20925
886.025	20971
886.15	21036
886.275	20956
886.4	20777
886.525	20864
886.65	20921
886.775	20971
886.9	21001
887.025	21195
887.149	20948
887.274	20845
887.399	20804
887.523	20735
887.648	20670
887.773	20667
887.897	20758
888.021	20750
888.146	20754
888.27	20819
888.395	20868
888.519	20796
888.643	20670
888.767	20708
888.891	20625
889.015	20651
889.139	20613
889.263	20537
889.387	20617
889.511	20842
889.635	20667
889.759	20575
889.883	20381
890.006	20549
890.13	20629
890.254	20396
890.377	20385
890.501	20324
890.624	20294
890.748	20366
890.871	20164
890.995	20092
891.118	20065
891.241	20119
891.364	20153
891.488	20240
891.611	20187
891.734	20103
891.857	20172
891.98	20130
892.103	20180
892.226	20130
892.349	20012
892.471	19803
892.594	20073
892.717	19928
892.839	20020
892.962	19993
893.085	20088
893.207	20043
893.33	19970
893.452	19864
893.575	20001
893.697	20012
893.819	20149
893.941	20252
894.064	20138
894.186	19982
894.308	19883
894.43	20058
894.552	20164
894.674	19978
894.796	19811
894.918	19982
895.04	19955
895.161	20012
895.283	20092
895.405	19932
895.526	20058
895.648	20008
895.769	20107
895.891	20062
896.012	20073
896.134	20005
896.255	19967
896.376	19944
896.498	20039
896.619	20088
896.74	19917
896.861	20149
896.982	20305
897.103	20564
897.224	20263
897.345	20343
897.466	20164
897.587	20301
897.708	20282
897.828	20290
897.949	20240
898.07	20149
898.19	20210
898.311	20347
898.431	20100
898.552	20142
898.672	20332
898.792	20248
898.913	20221
899.033	20214
899.153	20027
899.273	19982
899.393	19868
899.513	20187
899.633	19879
899.753	20024
899.873	19845
899.993	20081
900.113	19951
900.232	19963
900.352	19868
900.472	19879
900.591	19769
900.711	19795
900.83	19670
900.95	19917
901.069	19837
901.189	19643
901.308	19495
901.427	19362
901.546	19415
901.665	19403
901.784	19312
901.904	19156
902.023	19053
902.141	19004
902.26	18932
902.379	19000
902.498	18962
902.617	18852
902.735	18871
902.854	18829
902.973	18806
903.091	18544
903.21	18551
903.328	18544
903.446	18509
903.565	18380
903.683	18407
903.801	18235
903.919	18330
904.038	18258
904.156	18068
904.274	18190
904.392	18144
904.51	18068
904.627	17984
904.745	18083
904.863	18114
904.981	17859
905.098	17760
905.216	17821
905.334	17859
905.451	17809
905.569	17726
905.686	17828
905.803	17767
905.921	17627
906.038	17783
906.155	17627
906.272	17417
906.389	17448
906.506	17265
906.623	17334
906.74	17417
906.857	17200
906.974	17246
907.091	17349
907.208	17512
907.324	17341
907.441	17200
907.557	17056
907.674	17037
907.79	17014
907.907	17029
908.023	17105
908.139	17010
908.256	16987
908.372	16812
908.488	16942
908.604	16793
908.72	16687
908.836	16828
908.952	16816
909.068	16687
909.184	16820
909.3	16755
909.415	16763
909.531	16767
909.647	16417
909.762	16561
909.878	16508
909.993	16497
910.108	16481
910.224	16504
910.339	16421
910.454	16424
910.57	16272
910.685	16128
910.8	16497
910.915	16405
911.03	16284
911.145	16158
911.259	16086
911.374	16097
911.489	15953
911.604	15956
911.718	15759
911.833	15857
911.947	15720
912.062	15584
912.176	15800
912.291	15698
912.405	15717
912.519	15949
912.633	15998
912.748	15770
912.862	15762
912.976	15705
913.09	15549
913.204	15549
913.318	15663
913.431	15694
913.545	15690
913.659	15652
913.772	15526
913.886	15526
914	15447
914.113	15534
914.226	15534
914.34	15462
914.453	15249
914.566	15542
914.68	15340
914.793	15252
914.906	15127
915.019	15024
915.132	15070
915.245	15009
915.358	15074
915.47	15108
915.583	15009
915.696	15028
915.809	15184
915.921	15169
916.034	14929
916.146	14895
916.259	14956
916.371	15097
916.483	15039
916.595	14971
916.708	14842
916.82	14975
916.932	14845
917.044	14819
917.156	14739
917.268	14693
917.38	14629
917.491	14644
917.603	14617
917.715	14720
917.826	14678
917.938	14682
918.049	14549
918.161	14602
918.272	14819
918.384	14743
918.495	14579
918.606	14446
918.717	14427
918.828	14564
918.939	14442
919.05	14355
919.161	14457
919.272	14347
919.383	14381
919.494	14522
919.604	14693
919.715	14415
919.826	14267
919.936	14332
920.047	14552
920.157	14374
920.267	14598
920.378	14476
920.488	14313
920.598	14530
920.708	14697
920.818	14461
920.928	14587
921.038	14678
921.148	14556
921.258	14400
921.368	14278
921.477	14172
921.587	14195
921.697	13993
921.806	14111
921.916	14065
922.025	13788
922.134	13814
922.244	13788
922.353	13849
922.462	13624
922.571	13616
922.68	13460
922.789	13453
922.898	13464
923.007	13407
923.116	13540
923.224	13331
923.333	13415
923.442	13358
923.55	13293
923.659	13244
923.767	13392
923.876	13282
923.984	13312
924.092	13168
924.201	13221
924.309	13255
924.417	13190
924.525	13103
924.633	13042
924.741	13864
924.849	12913
924.956	13008
925.064	12844
925.172	12848
925.279	12890
925.387	12901
925.494	12787
925.602	13209
925.709	12878
925.816	12722
925.924	12821
926.031	12859
926.138	12787
926.245	12878
926.352	12700
926.459	12829
926.566	12856
926.673	12696
926.779	12654
926.886	12627
926.993	12513
927.099	12437
927.206	12353
927.312	12369
927.419	12502
927.525	12327
927.631	12502
927.737	12311
927.843	12216
927.95	12159
928.056	12201
928.162	12391
928.267	12330
928.373	12878
928.479	12346
928.585	12087
928.69	12205
928.796	12296
928.901	12129
929.007	11920
929.112	12155
929.218	12068
929.323	11999
929.428	11916
929.533	12121
929.638	11931
929.743	11901
929.848	11977
929.953	11866
930.058	11866
930.163	11661
930.267	11688
930.372	11783
930.477	11653
930.581	11824
930.685	11672
930.79	11554
930.894	11619
930.998	11611
931.103	11676
931.207	11284
931.311	11273
931.415	11136
931.519	10972
931.623	10965
