Data from test_V78500241_2982.txt Node
Date: Fri Mar 25 15:30:37 CST 2022
User: usil
Spectrometer: V785-0024
Trigger mode: 0
Integration Time (sec): 4.000000E-1
Scans to average: 1
Nonlinearity correction enabled: false
Boxcar width: 0
Storing dark spectrum: false
XAxis mode: Wavelengths
Number of Pixels in Spectrum: 1024
>>>>>Begin Spectral Data<<<<<
801.071	27173
801.214	27089
801.356	26788
801.499	26979
801.641	26773
801.783	26693
801.926	26663
802.068	26735
802.211	26609
802.353	26617
802.496	26457
802.638	26434
802.78	26389
802.923	26370
803.065	26191
803.208	26187
803.35	26252
803.492	26480
803.635	26549
803.777	26233
803.919	26476
804.061	26796
804.204	26511
804.346	26347
804.488	26336
804.63	26499
804.773	26438
804.915	26522
805.057	26530
805.199	26522
805.341	26514
805.483	26632
805.626	26602
805.768	26537
805.91	26598
806.052	26651
806.194	26415
806.336	26811
806.478	26488
806.62	26541
806.762	26823
806.904	26815
807.046	27142
807.188	27017
807.33	27074
807.472	27104
807.614	26883
807.756	27017
807.898	26880
808.04	26838
808.182	26826
808.324	26762
808.465	26895
808.607	27146
808.749	27112
808.891	27405
809.033	27443
809.174	27161
809.316	27173
809.458	27218
809.6	27100
809.741	27279
809.883	27230
810.025	27526
810.166	27450
810.308	27431
810.45	27469
810.591	27443
810.733	27241
810.875	27199
811.016	27169
811.158	27264
811.299	27207
811.441	27481
811.582	27363
811.724	27180
811.865	27161
812.007	27116
812.148	27222
812.29	27252
812.431	27336
812.573	27397
812.714	27473
812.855	27713
812.997	27857
813.138	27899
813.279	27675
813.421	27812
813.562	27618
813.703	27530
813.845	27336
813.986	27005
814.127	26986
814.268	26861
814.41	26933
814.551	26762
814.692	26933
814.833	26834
814.974	26910
815.115	26811
815.256	26670
815.397	26929
815.539	26785
815.68	26655
815.821	26583
815.962	26632
816.103	26640
816.244	26488
816.385	26423
816.526	26400
816.666	26195
816.807	26062
816.948	26145
817.089	26351
817.23	26149
817.371	26065
817.512	26126
817.653	26065
817.793	26008
817.934	26084
818.075	26172
818.216	26168
818.356	26069
818.497	26035
818.638	25856
818.778	25906
818.919	25856
819.06	25966
819.2	26043
819.341	26043
819.481	26077
819.622	26256
819.762	26434
819.903	26263
820.043	26138
820.184	26248
820.324	26149
820.465	26278
820.605	26149
820.746	26092
820.886	26081
821.026	26100
821.167	26073
821.307	26240
821.447	26050
821.588	25940
821.728	25940
821.868	25757
822.008	25453
822.149	25525
822.289	25479
822.429	25335
822.569	25145
822.709	25259
822.849	25050
822.99	25065
823.13	25042
823.27	24932
823.41	24859
823.55	24798
823.69	25008
823.83	24916
823.97	24757
824.11	24654
824.25	24623
824.389	24715
824.529	24700
824.669	24582
824.809	24726
824.949	24897
825.089	24878
825.228	24661
825.368	24551
825.508	24559
825.648	24494
825.787	24639
825.927	24661
826.067	24475
826.206	24578
826.346	24521
826.485	24639
826.625	24525
826.765	24703
826.904	24559
827.044	24304
827.183	24338
827.323	24209
827.462	24407
827.601	24247
827.741	24186
827.88	24224
828.02	24140
828.159	24228
828.298	24277
828.437	24334
828.577	24174
828.716	24414
828.855	24201
828.994	23904
829.134	23897
829.273	24114
829.412	24034
829.551	23813
829.69	23916
829.829	23912
829.968	24057
830.107	24087
830.246	23996
830.385	23802
830.524	23843
830.663	23885
830.802	23653
830.941	23585
831.08	23486
831.219	23630
831.357	23668
831.496	23767
831.635	23653
831.774	23463
831.913	23383
832.051	23376
832.19	23197
832.329	23410
832.467	23490
832.606	23220
832.744	23162
832.883	23292
833.022	23109
833.16	23174
833.299	23261
833.437	23181
833.576	23223
833.714	23212
833.852	23429
833.991	23414
834.129	23277
834.267	23459
834.406	23280
834.544	23299
834.682	23292
834.821	23193
834.959	23486
835.097	23216
835.235	23379
835.373	23185
835.511	23284
835.65	23181
835.788	23223
835.926	23041
836.064	22934
836.202	22968
836.34	23147
836.478	23280
836.615	23022
836.753	23208
836.891	23216
837.029	23010
837.167	23003
837.305	22942
837.443	22953
837.58	22896
837.718	23048
837.856	22980
837.993	22835
838.131	22949
838.269	22771
838.406	22873
838.544	22698
838.681	22573
838.819	22637
838.956	22382
839.094	22519
839.231	22459
839.369	22592
839.506	22866
839.643	22744
839.781	22398
839.918	22405
840.055	22497
840.193	22447
840.33	22306
840.467	22318
840.604	22424
840.742	22725
840.879	22223
841.016	22287
841.153	22318
841.29	22455
841.427	22379
841.564	22360
841.701	22348
841.838	22356
841.975	22226
842.112	22333
842.249	22246
842.385	22150
842.522	22314
842.659	22207
842.796	22139
842.933	22097
843.069	22192
843.206	22029
843.343	22124
843.479	22051
843.616	22090
843.752	21842
843.889	21922
844.025	21998
844.162	21895
844.298	21945
844.435	21819
844.571	21911
844.708	21994
844.844	22177
844.98	22029
845.117	22006
845.253	21880
845.389	21762
845.525	21880
845.661	21743
845.798	21519
845.934	21686
846.07	21736
846.206	21610
846.342	21682
846.478	21701
846.614	21458
846.75	21424
846.886	21386
847.022	21507
847.158	21374
847.294	21370
847.429	21348
847.565	21268
847.701	21488
847.837	21058
847.972	21104
848.108	21154
848.244	21336
848.379	21077
848.515	20937
848.65	20956
848.786	20994
848.921	20883
849.057	21165
849.192	21127
849.328	20925
849.463	20899
849.598	20834
849.734	20849
849.869	20777
850.004	20693
850.14	20750
850.275	20686
850.41	20667
850.545	20762
850.68	20602
850.815	20750
850.95	20727
851.085	20796
851.22	20826
851.355	20640
851.49	20663
851.625	20705
851.76	20830
851.895	20663
852.03	20746
852.165	20781
852.299	20712
852.434	20788
852.569	20765
852.703	20594
852.838	20872
852.973	20910
853.107	20906
853.242	20617
853.376	20636
853.511	20431
853.645	20465
853.78	20594
853.914	20602
854.048	20613
854.183	20495
854.317	20621
854.451	20754
854.585	20556
854.72	20556
854.854	20663
854.988	20522
855.122	20583
855.256	20461
855.39	20495
855.524	20625
855.658	20556
855.792	20621
855.926	20530
856.06	20625
856.194	20552
856.327	20522
856.461	20518
856.595	20488
856.729	20431
856.862	20701
856.996	20629
857.13	20598
857.263	20686
857.397	20651
857.53	20522
857.664	20609
857.797	20556
857.931	20488
858.064	20594
858.197	20583
858.331	20583
858.464	20530
858.597	20438
858.731	20473
858.864	20568
858.997	20526
859.13	20518
859.263	20499
859.396	20667
859.529	20507
859.662	20552
859.795	20461
859.928	20552
860.061	20644
860.194	20842
860.327	20625
860.46	20526
860.592	20750
860.725	20785
860.858	20689
860.99	20568
861.123	20564
861.256	20457
861.388	20507
861.521	21062
861.653	20473
861.786	20324
861.918	20374
862.05	20484
862.183	20476
862.315	20442
862.447	20552
862.58	20473
862.712	20347
862.844	20214
862.976	20313
863.108	20332
863.24	20670
863.372	20187
863.504	20263
863.636	20145
863.768	20465
863.9	20286
864.032	20298
864.164	20172
864.296	20290
864.428	20271
864.559	20301
864.691	20278
864.823	20305
864.954	20267
865.086	20191
865.217	20259
865.349	20142
865.48	20073
865.612	20145
865.743	20267
865.875	20206
866.006	20157
866.137	20142
866.269	20024
866.4	20088
866.531	20195
866.662	20084
866.793	20092
866.924	20084
867.055	20111
867.186	20199
867.317	20069
867.448	20001
867.579	20199
867.71	20100
867.841	20130
867.972	20142
868.103	20062
868.233	20145
868.364	20176
868.495	20393
868.625	20320
868.756	20431
868.886	20298
869.017	20457
869.147	20484
869.278	20537
869.408	20404
869.539	20362
869.669	20442
869.799	20320
869.929	20514
870.06	20526
870.19	20640
870.32	20629
870.45	20792
870.58	20705
870.71	20724
870.84	20857
870.97	20845
871.1	20804
871.23	20975
871.36	20925
871.489	20735
871.619	20971
871.749	21001
871.879	20967
872.008	21058
872.138	20990
872.267	20902
872.397	20731
872.526	20788
872.656	20731
872.785	20735
872.915	20929
873.044	21081
873.173	21104
873.303	20895
873.432	21093
873.561	21036
873.69	20975
873.819	20979
873.948	21017
874.077	20948
874.206	20925
874.335	20979
874.464	21112
874.593	21199
874.722	21112
874.851	21195
874.979	21173
875.108	21317
875.237	21226
875.365	20990
875.494	21245
875.623	21226
875.751	21214
875.88	21279
876.008	21283
876.136	21469
876.265	21587
876.393	21667
876.521	21736
876.65	21660
876.778	21614
876.906	21618
877.034	21511
877.162	21534
877.29	21538
877.418	21576
877.546	21553
877.674	21507
877.802	21523
877.93	21545
878.058	21450
878.185	21450
878.313	21648
878.441	21542
878.568	21408
878.696	21408
878.824	21641
878.951	21629
879.079	21694
879.206	21804
879.333	21739
879.461	21610
879.588	21705
879.715	21766
879.842	21743
879.97	21667
880.097	21374
880.224	21408
880.351	21405
880.478	21496
880.605	21473
880.732	21386
880.859	21572
880.986	21481
881.112	21450
881.239	21146
881.366	21135
881.493	21108
881.619	21070
881.746	21028
881.872	21062
881.999	20967
882.125	20960
882.252	20975
882.378	21070
882.505	21119
882.631	20918
882.757	20674
882.883	20773
883.01	20693
883.136	20511
883.262	20606
883.388	20556
883.514	20678
883.64	20712
883.766	20648
883.892	20465
884.018	20511
884.143	20720
884.269	20739
884.395	20408
884.52	20343
884.646	20290
884.772	20237
884.897	20221
885.023	20286
885.148	20537
885.274	20484
885.399	20237
885.524	20328
885.65	20305
885.775	20298
885.9	20240
886.025	20374
886.15	20480
886.275	20370
886.4	20298
886.525	20294
886.65	20298
886.775	20290
886.9	20400
887.025	20530
887.149	20355
887.274	20168
887.399	20168
887.523	20062
887.648	20130
887.773	19879
887.897	20111
888.021	20050
888.146	20103
888.27	20195
888.395	20248
888.519	20183
888.643	20157
888.767	20157
888.891	20092
889.015	20039
889.139	19974
889.263	19879
889.387	20054
889.511	20206
889.635	19989
889.759	19928
889.883	19921
890.006	19932
890.13	19898
890.254	19856
890.377	19871
890.501	19780
890.624	19628
890.748	19734
890.871	19495
890.995	19624
891.118	19552
891.241	19426
891.364	19514
891.488	19677
891.611	19487
891.734	19628
891.857	19544
891.98	19457
892.103	19472
892.226	19529
892.349	19403
892.471	19346
892.594	19422
892.717	19472
892.839	19407
892.962	19422
893.085	19373
893.207	19476
893.33	19365
893.452	19388
893.575	19491
893.697	19464
893.819	19601
893.941	19628
894.064	19594
894.186	19400
894.308	19369
894.43	19548
894.552	19540
894.674	19639
894.796	19293
894.918	19426
895.04	19472
895.161	19419
895.283	19373
895.405	19445
895.526	19472
895.648	19400
895.769	19510
895.891	19384
896.012	19460
896.134	19464
896.255	19392
896.376	19369
896.498	19415
896.619	19502
896.74	19400
896.861	19533
896.982	19753
897.103	19868
897.224	19643
897.345	19567
897.466	19559
897.587	19674
897.708	19822
897.828	19715
897.949	19620
898.07	19521
898.19	19563
898.311	19807
898.431	19662
898.552	19582
898.672	19791
898.792	19708
898.913	19674
899.033	19582
899.153	19438
899.273	19411
899.393	19499
899.513	19384
899.633	19556
899.753	19495
899.873	19441
899.993	19518
900.113	19419
900.232	19487
900.352	19343
900.472	19175
900.591	19164
900.711	19304
900.83	19141
900.95	19316
901.069	19263
901.189	19194
901.308	18863
901.427	18730
901.546	18745
901.665	18878
901.784	18798
901.904	18696
902.023	18604
902.141	18384
902.26	18350
902.379	18361
902.498	18437
902.617	18315
902.735	18475
902.854	18262
902.973	18194
903.091	18201
903.21	17939
903.328	18049
903.446	17973
903.565	17824
903.683	17870
903.801	17661
903.919	17783
904.038	17733
904.156	17585
904.274	17687
904.392	17668
904.51	17512
904.627	17623
904.745	17596
904.863	17642
904.981	17353
905.098	17299
905.216	17235
905.334	17220
905.451	17292
905.569	17204
905.686	17280
905.803	17288
905.921	17056
906.038	17189
906.155	17136
906.272	17010
906.389	17029
906.506	16854
906.623	16828
906.74	16778
906.857	16637
906.974	16702
907.091	16858
907.208	16869
907.324	16885
907.441	16733
907.557	16588
907.674	16440
907.79	16546
907.907	16508
908.023	16554
908.139	16558
908.256	16554
908.372	16478
908.488	16360
908.604	16306
908.72	16246
908.836	16261
908.952	16341
909.068	16257
909.184	16432
909.3	16128
909.415	16150
909.531	16249
909.647	15941
909.762	16040
909.878	16051
909.993	16063
910.108	15892
910.224	16082
910.339	15915
910.454	15781
910.57	15831
910.685	15770
910.8	15968
910.915	15979
911.03	15747
911.145	15625
911.259	15507
911.374	15587
911.489	15507
911.604	15454
911.718	15336
911.833	15424
911.947	15195
912.062	15275
912.176	15252
912.291	15359
912.405	15393
912.519	15591
912.633	15553
912.748	15332
912.862	15336
912.976	15169
913.09	15070
913.204	15085
913.318	15180
913.431	15256
913.545	15154
913.659	15241
913.772	15085
913.886	15032
914	15017
914.113	15058
914.226	14914
914.34	15077
914.453	14933
914.566	14994
914.68	14792
914.793	14792
914.906	14693
915.019	14568
915.132	14454
915.245	14552
915.358	14640
915.47	14499
915.583	14590
915.696	14568
915.809	14739
915.921	14724
916.034	14480
916.146	14522
916.259	14434
916.371	14518
916.483	14530
916.595	14427
916.708	14366
916.82	14343
916.932	14366
917.044	14332
917.156	14377
917.268	14240
917.38	14332
917.491	14199
917.603	14275
917.715	14214
917.826	14263
917.938	14248
918.049	14077
918.161	14210
918.272	14290
918.384	14210
918.495	14168
918.606	14088
918.717	13906
918.828	14024
918.939	14065
919.05	13883
919.161	13978
919.272	13826
919.383	13879
919.494	14039
919.604	14183
919.715	14035
919.826	13944
919.936	14020
920.047	13997
920.157	14092
920.267	14210
920.378	14084
920.488	14035
920.598	14218
920.708	14370
920.818	14149
920.928	14168
921.038	14286
921.148	14278
921.258	13982
921.368	13849
921.477	13769
921.587	13674
921.697	13609
921.806	13799
921.916	13548
922.025	13460
922.134	13358
922.244	13392
922.353	13426
922.462	13289
922.571	13206
922.68	13057
922.789	13008
922.898	13099
923.007	13008
923.116	13008
923.224	13004
923.333	12958
923.442	12913
923.55	12871
923.659	12924
923.767	12958
923.876	12859
923.984	12886
924.092	12696
924.201	12802
924.309	12779
924.417	12863
924.525	12662
924.633	12707
924.741	13556
924.849	12532
924.956	12662
925.064	12486
925.172	12426
925.279	12509
925.387	12532
925.494	12445
925.602	12631
925.709	12620
925.816	12437
925.924	12502
926.031	12544
926.138	12433
926.245	12490
926.352	12323
926.459	12513
926.566	12525
926.673	12315
926.779	12232
926.886	12171
926.993	12117
927.099	12068
927.206	12087
927.312	12022
927.419	12041
927.525	12083
927.631	12079
927.737	11935
927.843	11984
927.95	11821
928.056	11961
928.162	11927
928.267	11927
928.373	12574
928.479	12022
928.585	11703
928.69	11779
928.796	11897
928.901	11703
929.007	11638
929.112	11737
929.218	11661
929.323	11688
929.428	11634
929.533	11771
929.638	11554
929.743	11627
929.848	11665
929.953	11668
930.058	11497
930.163	11265
930.267	11364
930.372	11509
930.477	11341
930.581	11566
930.685	11337
930.79	11220
930.894	11216
930.998	11239
931.103	11429
931.207	11094
931.311	10991
931.415	10847
931.519	10569
931.623	10569
