Data from test_V78500241_2483.txt Node
Date: Fri Mar 25 15:27:08 CST 2022
User: usil
Spectrometer: V785-0024
Trigger mode: 0
Integration Time (sec): 4.000000E-1
Scans to average: 1
Nonlinearity correction enabled: false
Boxcar width: 0
Storing dark spectrum: false
XAxis mode: Wavelengths
Number of Pixels in Spectrum: 1024
>>>>>Begin Spectral Data<<<<<
801.071	26998
801.214	27138
801.356	26937
801.499	26758
801.641	26659
801.783	26731
801.926	26705
802.068	26602
802.211	26648
802.353	26716
802.496	26450
802.638	26244
802.78	26309
802.923	26419
803.065	26062
803.208	26176
803.35	26408
803.492	26469
803.635	26434
803.777	26324
803.919	26473
804.061	26834
804.204	26587
804.346	26507
804.488	26286
804.63	26518
804.773	26473
804.915	26503
805.057	26495
805.199	26453
805.341	26571
805.483	26526
805.626	26560
805.768	26469
805.91	26617
806.052	26575
806.194	26442
806.336	26663
806.478	26644
806.62	26590
806.762	26743
806.904	26880
807.046	26979
807.188	27066
807.33	26956
807.472	27108
807.614	26876
807.756	26979
807.898	26853
808.04	26826
808.182	26697
808.324	26940
808.465	26883
808.607	26937
808.749	27138
808.891	27275
809.033	27306
809.174	27142
809.316	27047
809.458	27272
809.6	27066
809.741	27169
809.883	27294
810.025	27431
810.166	27462
810.308	27378
810.45	27454
810.591	27260
810.733	27233
810.875	27146
811.016	27028
811.158	27017
811.299	27389
811.441	27447
811.582	27370
811.724	27268
811.865	26998
812.007	26963
812.148	27112
812.29	27062
812.431	27397
812.573	27431
812.714	27561
812.855	27587
812.997	27759
813.138	27903
813.279	27755
813.421	27690
813.562	27542
813.703	27405
813.845	27386
813.986	27009
814.127	26921
814.268	26842
814.41	26880
814.551	26800
814.692	27058
814.833	26670
814.974	26754
815.115	26826
815.256	26689
815.397	26720
815.539	26560
815.68	26351
815.821	26564
815.962	26579
816.103	26495
816.244	26552
816.385	26412
816.526	26461
816.666	26237
816.807	26054
816.948	26180
817.089	26286
817.23	26103
817.371	26005
817.512	26016
817.653	26088
817.793	25955
817.934	25936
818.075	26027
818.216	26058
818.356	25898
818.497	25959
818.638	25833
818.778	25856
818.919	25818
819.06	25890
819.2	25860
819.341	26145
819.481	26024
819.622	26130
819.762	26461
819.903	26286
820.043	26092
820.184	26119
820.324	26142
820.465	26187
820.605	26130
820.746	26172
820.886	26050
821.026	26100
821.167	26005
821.307	26119
821.447	26046
821.588	26065
821.728	25795
821.868	25571
822.008	25571
822.149	25529
822.289	25518
822.429	25396
822.569	25095
822.709	25274
822.849	25038
822.99	25019
823.13	25080
823.27	24970
823.41	24920
823.55	24852
823.69	24779
823.83	24935
823.97	24722
824.11	24555
824.25	24707
824.389	24646
824.529	24692
824.669	24555
824.809	24814
824.949	24665
825.089	24764
825.228	24669
825.368	24646
825.508	24559
825.648	24460
825.787	24559
825.927	24578
826.067	24692
826.206	24483
826.346	24753
826.485	24574
826.625	24509
826.765	24749
826.904	24661
827.044	24254
827.183	24239
827.323	24163
827.462	24197
827.601	24190
827.741	24243
827.88	24224
828.02	24148
828.159	24163
828.298	24148
828.437	24251
828.577	24228
828.716	24300
828.855	24197
828.994	23992
829.134	24026
829.273	24068
829.412	24053
829.551	23980
829.69	24038
829.829	23996
829.968	23904
830.107	24114
830.246	23946
830.385	23992
830.524	23809
830.663	23783
830.802	23748
830.941	23551
831.08	23642
831.219	23623
831.357	23630
831.496	23733
831.635	23573
831.774	23402
831.913	23429
832.051	23463
832.19	23379
832.329	23356
832.467	23288
832.606	23212
832.744	23132
832.883	23318
833.022	23166
833.16	23277
833.299	23326
833.437	23288
833.576	23387
833.714	23372
833.852	23322
833.991	23254
834.129	23372
834.267	23273
834.406	23406
834.544	23417
834.682	23292
834.821	23223
834.959	23440
835.097	23288
835.235	23326
835.373	23391
835.511	23277
835.65	23098
835.788	23178
835.926	23094
836.064	22995
836.202	23060
836.34	23094
836.478	23372
836.615	23124
836.753	23105
836.891	23208
837.029	23151
837.167	23113
837.305	23079
837.443	23052
837.58	22892
837.718	23128
837.856	23025
837.993	22877
838.131	22949
838.269	22938
838.406	22995
838.544	22763
838.681	22588
838.819	22653
838.956	22569
839.094	22516
839.231	22588
839.369	22713
839.506	22965
839.643	22721
839.781	22447
839.918	22402
840.055	22577
840.193	22523
840.33	22417
840.467	22573
840.604	22561
840.742	22717
840.879	22333
841.016	22348
841.153	22436
841.29	22500
841.427	22352
841.564	22447
841.701	22417
841.838	22325
841.975	22299
842.112	22348
842.249	22440
842.385	22284
842.522	22519
842.659	22352
842.796	22169
842.933	22318
843.069	22128
843.206	22139
843.343	22086
843.479	22185
843.616	22143
843.752	21956
843.889	21994
844.025	22162
844.162	21911
844.298	21907
844.435	21953
844.571	21892
844.708	22006
844.844	22173
844.98	22044
845.117	21991
845.253	21819
845.389	21831
845.525	21956
845.661	21759
845.798	21778
845.934	21800
846.07	21660
846.206	21717
846.342	21816
846.478	21747
846.614	21583
846.75	21420
846.886	21431
847.022	21511
847.158	21477
847.294	21561
847.429	21462
847.565	21298
847.701	21713
847.837	21226
847.972	21157
848.108	21222
848.244	21264
848.379	21047
848.515	21116
848.65	21028
848.786	21043
848.921	20929
849.057	21165
849.192	21017
849.328	21096
849.463	20994
849.598	20952
849.734	20925
849.869	20876
850.004	20906
850.14	20845
850.275	20857
850.41	20613
850.545	20682
850.68	20895
850.815	20804
850.95	20785
851.085	20952
851.22	20914
851.355	20918
851.49	20804
851.625	20815
851.76	20826
851.895	20674
852.03	20689
852.165	20925
852.299	20887
852.434	20861
852.569	20788
852.703	20785
852.838	20773
852.973	20956
853.107	20910
853.242	20697
853.376	20590
853.511	20530
853.645	20545
853.78	20746
853.914	20682
854.048	20590
854.183	20648
854.317	20682
854.451	20785
854.585	20613
854.72	20629
854.854	20819
854.988	20609
855.122	20541
855.256	20609
855.39	20587
855.524	20613
855.658	20739
855.792	20651
855.926	20579
856.06	20636
856.194	20693
856.327	20731
856.461	20590
856.595	20609
856.729	20648
856.862	20754
856.996	20613
857.13	20765
857.263	20667
857.397	20674
857.53	20640
857.664	20625
857.797	20659
857.931	20716
858.064	20701
858.197	20750
858.331	20571
858.464	20552
858.597	20476
858.731	20606
858.864	20579
858.997	20579
859.13	20606
859.263	20773
859.396	20716
859.529	20617
859.662	20575
859.795	20655
859.928	20655
860.061	20842
860.194	20750
860.327	20678
860.46	20648
860.592	20670
860.725	20807
860.858	20625
860.99	20693
861.123	20511
861.256	20670
861.388	20667
861.521	21195
861.653	20552
861.786	20412
861.918	20476
862.05	20564
862.183	20541
862.315	20727
862.447	20568
862.58	20648
862.712	20199
862.844	20286
862.976	20450
863.108	20362
863.24	20868
863.372	20210
863.504	20271
863.636	20355
863.768	20328
863.9	20434
864.032	20164
864.164	20282
864.296	20320
864.428	20522
864.559	20377
864.691	20415
864.823	20457
864.954	20385
865.086	20275
865.217	20278
865.349	20187
865.48	20221
865.612	20225
865.743	20339
865.875	20286
866.006	20180
866.137	20218
866.269	20248
866.4	20191
866.531	20275
866.662	20180
866.793	20244
866.924	20199
867.055	20206
867.186	20176
867.317	20119
867.448	20195
867.579	20210
867.71	20202
867.841	20122
867.972	20145
868.103	20084
868.233	20172
868.364	20298
868.495	20286
868.625	20427
868.756	20564
868.886	20320
869.017	20370
869.147	20507
869.278	20568
869.408	20381
869.539	20385
869.669	20518
869.799	20621
869.929	20518
870.06	20575
870.19	20773
870.32	20678
870.45	20727
870.58	20838
870.71	20845
870.84	20963
870.97	20891
871.1	20781
871.23	21028
871.36	21036
871.489	20967
871.619	21081
871.749	21009
871.879	21199
872.008	21089
872.138	21039
872.267	20994
872.397	20975
872.526	20853
872.656	20785
872.785	20914
872.915	21055
873.044	21096
873.173	21089
873.303	21093
873.432	21116
873.561	21142
873.69	21081
873.819	21013
873.948	21089
874.077	21036
874.206	21058
874.335	21138
874.464	21199
874.593	21325
874.722	21313
874.851	21355
874.979	21378
875.108	21351
875.237	21287
875.365	21199
875.494	21230
875.623	21306
875.751	21211
875.88	21279
876.008	21321
876.136	21469
876.265	21705
876.393	21686
876.521	21682
876.65	21778
876.778	21732
876.906	21644
877.034	21766
877.162	21595
877.29	21641
877.418	21622
877.546	21739
877.674	21701
877.802	21698
877.93	21720
878.058	21587
878.185	21557
878.313	21603
878.441	21652
878.568	21382
878.696	21538
878.824	21648
878.951	21656
879.079	21911
879.206	21953
879.333	21698
879.461	21743
879.588	21751
879.715	21743
879.842	21937
879.97	21869
880.097	21667
880.224	21473
880.351	21488
880.478	21549
880.605	21485
880.732	21336
880.859	21679
880.986	21412
881.112	21447
881.239	21348
881.366	21245
881.493	21093
881.619	21070
881.746	21066
881.872	21020
881.999	20982
882.125	20929
882.252	21077
882.378	21043
882.505	21047
882.631	20895
882.757	20777
882.883	20830
883.01	20845
883.136	20739
883.262	20568
883.388	20750
883.514	20788
883.64	20807
883.766	20762
883.892	20560
884.018	20651
884.143	20693
884.269	20796
884.395	20454
884.52	20484
884.646	20351
884.772	20385
884.897	20267
885.023	20438
885.148	20484
885.274	20590
885.399	20427
885.524	20339
885.65	20377
885.775	20473
885.9	20533
886.025	20503
886.15	20476
886.275	20400
886.4	20187
886.525	20320
886.65	20343
886.775	20286
886.9	20503
887.025	20522
887.149	20385
887.274	20263
887.399	20180
887.523	20058
887.648	20191
887.773	20065
887.897	20107
888.021	20195
888.146	20111
888.27	20237
888.395	20282
888.519	20183
888.643	20176
888.767	20271
888.891	20221
889.015	20073
889.139	20088
889.263	20016
889.387	20054
889.511	20214
889.635	20149
889.759	19967
889.883	19963
890.006	20058
890.13	20180
890.254	19879
890.377	19883
890.501	19708
890.624	19738
890.748	19849
890.871	19704
890.995	19457
891.118	19529
891.241	19597
891.364	19472
891.488	19708
891.611	19651
891.734	19540
891.857	19696
891.98	19544
892.103	19624
892.226	19552
892.349	19499
892.471	19388
892.594	19521
892.717	19552
892.839	19441
892.962	19537
893.085	19483
893.207	19559
893.33	19365
893.452	19358
893.575	19518
893.697	19400
893.819	19643
893.941	19765
894.064	19670
894.186	19350
894.308	19419
894.43	19628
894.552	19552
894.674	19586
894.796	19476
894.918	19403
895.04	19460
895.161	19544
895.283	19567
895.405	19438
895.526	19457
895.648	19586
895.769	19590
895.891	19624
896.012	19548
896.134	19559
896.255	19559
896.376	19438
896.498	19510
896.619	19578
896.74	19502
896.861	19620
896.982	19814
897.103	20001
897.224	19708
897.345	19833
897.466	19575
897.587	19712
897.708	19856
897.828	19700
897.949	19639
898.07	19544
898.19	19772
898.311	19807
898.431	19693
898.552	19738
898.672	19723
898.792	19772
898.913	19689
899.033	19662
899.153	19521
899.273	19441
899.393	19464
899.513	19472
899.633	19540
899.753	19468
899.873	19457
899.993	19533
900.113	19396
900.232	19419
900.352	19396
900.472	19289
900.591	19282
900.711	19350
900.83	19213
900.95	19266
901.069	19335
901.189	19217
901.308	18977
901.427	18814
901.546	18863
901.665	18916
901.784	18913
901.904	18741
902.023	18559
902.141	18498
902.26	18460
902.379	18483
902.498	18525
902.617	18353
902.735	18334
902.854	18388
902.973	18235
903.091	18083
903.21	18045
903.328	18091
903.446	17988
903.565	17824
903.683	17935
903.801	17786
903.919	17832
904.038	17756
904.156	17729
904.274	17699
904.392	17619
904.51	17573
904.627	17638
904.745	17611
904.863	17703
904.981	17486
905.098	17379
905.216	17326
905.334	17299
905.451	17398
905.569	17296
905.686	17360
905.803	17296
905.921	17090
906.038	17216
906.155	17090
906.272	17086
906.389	17079
906.506	16923
906.623	16927
906.74	16778
906.857	16740
906.974	16740
907.091	16991
907.208	16942
907.324	16869
907.441	16748
907.557	16615
907.674	16679
907.79	16500
907.907	16519
908.023	16615
908.139	16561
908.256	16573
908.372	16474
908.488	16470
908.604	16322
908.72	16211
908.836	16352
908.952	16318
909.068	16386
909.184	16367
909.3	16333
909.415	16329
909.531	16246
909.647	16044
909.762	15987
909.878	16021
909.993	16143
910.108	16082
910.224	15850
910.339	15907
910.454	15911
910.57	15819
910.685	15816
910.8	16086
910.915	16055
911.03	15778
911.145	15656
911.259	15580
911.374	15625
911.489	15633
911.604	15466
911.718	15370
911.833	15447
911.947	15306
912.062	15397
912.176	15485
912.291	15561
912.405	15496
912.519	15629
912.633	15568
912.748	15469
912.862	15447
912.976	15112
913.09	15100
913.204	15184
913.318	15241
913.431	15272
913.545	15245
913.659	15275
913.772	15214
913.886	15039
914	15024
914.113	15108
914.226	15116
914.34	15097
914.453	14868
914.566	15001
914.68	14941
914.793	14937
914.906	14686
915.019	14636
915.132	14674
915.245	14587
915.358	14636
915.47	14602
915.583	14670
915.696	14720
915.809	14735
915.921	14705
916.034	14556
916.146	14556
916.259	14465
916.371	14610
916.483	14659
916.595	14556
916.708	14370
916.82	14434
916.932	14427
917.044	14511
917.156	14400
917.268	14389
917.38	14336
917.491	14229
917.603	14324
917.715	14438
917.826	14381
917.938	14271
918.049	14138
918.161	14248
918.272	14381
918.384	14336
918.495	14237
918.606	14062
918.717	14039
918.828	14111
918.939	14077
919.05	14008
919.161	14115
919.272	13811
919.383	13887
919.494	14168
919.604	14187
919.715	14084
919.826	13982
919.936	14024
920.047	14145
920.157	14081
920.267	14229
920.378	14054
920.488	13997
920.598	14138
920.708	14355
920.818	14123
920.928	14153
921.038	14419
921.148	14412
921.258	14050
921.368	14005
921.477	13734
921.587	13746
921.697	13624
921.806	13807
921.916	13677
922.025	13540
922.134	13472
922.244	13434
922.353	13426
922.462	13331
922.571	13339
922.68	13160
922.789	13076
922.898	13118
923.007	12981
923.116	13107
923.224	13080
923.333	12993
923.442	12935
923.55	12848
923.659	12939
923.767	12981
923.876	12916
923.984	12954
924.092	12821
924.201	12856
924.309	12795
924.417	12783
924.525	12810
924.633	12848
924.741	13746
924.849	12532
924.956	12665
925.064	12563
925.172	12391
925.279	12494
925.387	12540
925.494	12536
925.602	12612
925.709	12597
925.816	12570
925.924	12544
926.031	12570
926.138	12422
926.245	12517
926.352	12441
926.459	12509
926.566	12460
926.673	12448
926.779	12319
926.886	12213
926.993	12095
927.099	12140
927.206	12057
927.312	12102
927.419	12194
927.525	12068
927.631	12121
927.737	12003
927.843	11942
927.95	11843
928.056	11965
928.162	11958
928.267	11935
928.373	12532
928.479	11999
928.585	11840
928.69	11870
928.796	11923
928.901	11748
929.007	11657
929.112	11752
929.218	11790
929.323	11733
929.428	11619
929.533	11809
929.638	11634
929.743	11657
929.848	11672
929.953	11672
930.058	11417
930.163	11364
930.267	11376
930.372	11467
930.477	11307
930.581	11547
930.685	11383
930.79	11231
930.894	11322
930.998	11166
931.103	11406
931.207	10972
931.311	10999
931.415	10858
931.519	10611
931.623	10630
