Data from test_V78500241_153.txt Node
Date: Fri Mar 25 15:10:55 CST 2022
User: usil
Spectrometer: V785-0024
Trigger mode: 0
Integration Time (sec): 4.000000E-1
Scans to average: 1
Nonlinearity correction enabled: false
Boxcar width: 0
Storing dark spectrum: false
XAxis mode: Wavelengths
Number of Pixels in Spectrum: 1024
>>>>>Begin Spectral Data<<<<<
801.071	28063
801.214	27873
801.356	27831
801.499	27648
801.641	27412
801.783	27633
801.926	27595
802.068	27504
802.211	27351
802.353	27496
802.496	27176
802.638	27173
802.78	27142
802.923	27108
803.065	27028
803.208	27108
803.35	27131
803.492	27157
803.635	27116
803.777	27150
803.919	27199
804.061	27564
804.204	27184
804.346	27150
804.488	27077
804.63	27074
804.773	27192
804.915	27169
805.057	27256
805.199	27260
805.341	27420
805.483	27154
805.626	27256
805.768	27161
805.91	27291
806.052	27249
806.194	27252
806.336	27450
806.478	27348
806.62	27180
806.762	27473
806.904	27511
807.046	27652
807.188	27819
807.33	27614
807.472	27633
807.614	27564
807.756	27576
807.898	27378
808.04	27374
808.182	27359
808.324	27538
808.465	27386
808.607	27625
808.749	27819
808.891	27850
809.033	27975
809.174	27892
809.316	27835
809.458	27835
809.6	27728
809.741	27800
809.883	27861
810.025	28032
810.166	27953
810.308	28090
810.45	28051
810.591	28002
810.733	27743
810.875	27736
811.016	27751
811.158	27614
811.299	27816
811.441	27819
811.582	27781
811.724	27736
811.865	27542
812.007	27622
812.148	27736
812.29	27720
812.431	27850
812.573	27956
812.714	28200
812.855	28097
812.997	28318
813.138	28451
813.279	28295
813.421	28169
813.562	28131
813.703	27903
813.845	27964
813.986	27542
814.127	27561
814.268	27283
814.41	27370
814.551	27435
814.692	27294
814.833	27336
814.974	27332
815.115	27317
815.256	27116
815.397	27138
815.539	27161
815.68	26979
815.821	27036
815.962	27032
816.103	26994
816.244	26914
816.385	26895
816.526	26746
816.666	26720
816.807	26625
816.948	26492
817.089	26606
817.23	26522
817.371	26590
817.512	26598
817.653	26514
817.793	26434
817.934	26492
818.075	26556
818.216	26503
818.356	26419
818.497	26419
818.638	26092
818.778	26142
818.919	26199
819.06	26176
819.2	26298
819.341	26469
819.481	26290
819.622	26590
819.762	26754
819.903	26716
820.043	26682
820.184	26507
820.324	26518
820.465	26617
820.605	26476
820.746	26450
820.886	26393
821.026	26412
821.167	26385
821.307	26480
821.447	26438
821.588	26290
821.728	26115
821.868	25993
822.008	26054
822.149	25860
822.289	25833
822.429	25666
822.569	25609
822.709	25537
822.849	25297
822.99	25316
823.13	25343
823.27	25285
823.41	25057
823.55	25099
823.69	25244
823.83	25156
823.97	25175
824.11	24829
824.25	24916
824.389	24966
824.529	25099
824.669	25015
824.809	24958
824.949	25129
825.089	24985
825.228	25042
825.368	24817
825.508	24810
825.648	24856
825.787	24768
825.927	24795
826.067	24669
826.206	24681
826.346	24817
826.485	24783
826.625	24741
826.765	24859
826.904	24833
827.044	24608
827.183	24456
827.323	24486
827.462	24426
827.601	24372
827.741	24357
827.88	24422
828.02	24232
828.159	24502
828.298	24441
828.437	24467
828.577	24350
828.716	24544
828.855	24327
828.994	24254
829.134	24216
829.273	24232
829.412	23965
829.551	23950
829.69	24182
829.829	24205
829.968	24194
830.107	24121
830.246	24045
830.385	24011
830.524	23897
830.663	23851
830.802	23942
830.941	23661
831.08	23695
831.219	23809
831.357	23729
831.496	23882
831.635	23771
831.774	23653
831.913	23691
832.051	23387
832.19	23368
832.329	23512
832.467	23376
832.606	23273
832.744	23387
832.883	23379
833.022	23231
833.16	23318
833.299	23372
833.437	23200
833.576	23284
833.714	23391
833.852	23334
833.991	23334
834.129	23387
834.267	23356
834.406	23376
834.544	23288
834.682	23315
834.821	23376
834.959	23535
835.097	23223
835.235	23269
835.373	23284
835.511	23318
835.65	23250
835.788	23178
835.926	23022
836.064	23025
836.202	23113
836.34	23280
836.478	23326
836.615	23223
836.753	23185
836.891	23261
837.029	23250
837.167	23189
837.305	23083
837.443	23056
837.58	22938
837.718	23018
837.856	22984
837.993	22930
838.131	22866
838.269	22782
838.406	22885
838.544	22953
838.681	22790
838.819	22573
838.956	22577
839.094	22443
839.231	22519
839.369	22645
839.506	22793
839.643	22675
839.781	22508
839.918	22367
840.055	22523
840.193	22428
840.33	22382
840.467	22318
840.604	22417
840.742	22672
840.879	22310
841.016	22215
841.153	22306
841.29	22417
841.427	22299
841.564	22386
841.701	22367
841.838	22371
841.975	22310
842.112	22112
842.249	22230
842.385	22105
842.522	22318
842.659	22105
842.796	22154
842.933	22112
843.069	22044
843.206	22025
843.343	22207
843.479	22135
843.616	21983
843.752	21778
843.889	21835
844.025	21888
844.162	21835
844.298	21941
844.435	21823
844.571	21793
844.708	21953
844.844	22029
844.98	21991
845.117	21846
845.253	21797
845.389	21622
845.525	21652
845.661	21679
845.798	21526
845.934	21625
846.07	21610
846.206	21633
846.342	21785
846.478	21641
846.614	21351
846.75	21199
846.886	21192
847.022	21310
847.158	21313
847.294	21355
847.429	21211
847.565	21218
847.701	21492
847.837	20998
847.972	20975
848.108	21104
848.244	21104
848.379	20960
848.515	20857
848.65	20883
848.786	20788
848.921	20823
849.057	21051
849.192	20952
849.328	20845
849.463	20933
849.598	20788
849.734	20743
849.869	20731
850.004	20689
850.14	20705
850.275	20594
850.41	20469
850.545	20454
850.68	20511
850.815	20636
850.95	20621
851.085	20811
851.22	20785
851.355	20564
851.49	20484
851.625	20495
851.76	20530
851.895	20415
852.03	20438
852.165	20465
852.299	20526
852.434	20750
852.569	20632
852.703	20560
852.838	20579
852.973	20651
853.107	20788
853.242	20507
853.376	20381
853.511	20305
853.645	20393
853.78	20457
853.914	20374
854.048	20438
854.183	20507
854.317	20343
854.451	20530
854.585	20370
854.72	20415
854.854	20503
854.988	20286
855.122	20355
855.256	20229
855.39	20309
855.524	20492
855.658	20480
855.792	20374
855.926	20374
856.06	20530
856.194	20484
856.327	20431
856.461	20336
856.595	20374
856.729	20446
856.862	20552
856.996	20419
857.13	20336
857.263	20492
857.397	20469
857.53	20389
857.664	20370
857.797	20454
857.931	20499
858.064	20374
858.197	20499
858.331	20313
858.464	20142
858.597	20233
858.731	20377
858.864	20351
858.997	20298
859.13	20343
859.263	20415
859.396	20465
859.529	20427
859.662	20313
859.795	20263
859.928	20412
860.061	20438
860.194	20469
860.327	20427
860.46	20377
860.592	20507
860.725	20415
860.858	20469
860.99	20256
861.123	20271
861.256	20313
861.388	20294
861.521	20944
861.653	20157
861.786	20005
861.918	20168
862.05	20343
862.183	20267
862.315	20366
862.447	20408
862.58	20309
862.712	20119
862.844	20096
862.976	20126
863.108	20134
863.24	20355
863.372	20039
863.504	20008
863.636	19913
863.768	20073
863.9	20012
864.032	19967
864.164	20088
864.296	20069
864.428	20115
864.559	20119
864.691	20039
864.823	20096
864.954	20065
865.086	19989
865.217	19974
865.349	19906
865.48	19772
865.612	19970
865.743	19963
865.875	19982
866.006	19993
866.137	19925
866.269	19940
866.4	19845
866.531	19894
866.662	19765
866.793	19833
866.924	19883
867.055	19883
867.186	19776
867.317	19830
867.448	19761
867.579	19742
867.71	19788
867.841	19826
867.972	19898
868.103	19864
868.233	19757
868.364	19875
868.495	20062
868.625	20100
868.756	20221
868.886	20012
869.017	20084
869.147	20320
869.278	20259
869.408	20107
869.539	20126
869.669	20240
869.799	20122
869.929	20248
870.06	20214
870.19	20423
870.32	20423
870.45	20583
870.58	20530
870.71	20750
870.84	20598
870.97	20423
871.1	20419
871.23	20689
871.36	20815
871.489	20594
871.619	20727
871.749	20590
871.879	20754
872.008	20777
872.138	20743
872.267	20708
872.397	20579
872.526	20564
872.656	20499
872.785	20457
872.915	20648
873.044	20807
873.173	20743
873.303	20727
873.432	20792
873.561	20788
873.69	20724
873.819	20667
873.948	20750
874.077	20773
874.206	20800
874.335	20644
874.464	20853
874.593	21001
874.722	20986
874.851	20937
874.979	21165
875.108	21070
875.237	20906
875.365	20876
875.494	20967
875.623	21039
875.751	21096
875.88	21005
876.008	21020
876.136	21233
876.265	21420
876.393	21583
876.521	21420
876.65	21469
876.778	21401
876.906	21367
877.034	21272
877.162	21279
877.29	21389
877.418	21344
877.546	21272
877.674	21249
877.802	21401
877.93	21283
878.058	21321
878.185	21291
878.313	21336
878.441	21329
878.568	21039
878.696	21275
878.824	21363
878.951	21306
879.079	21401
879.206	21542
879.333	21450
879.461	21405
879.588	21389
879.715	21428
879.842	21606
879.97	21447
880.097	21150
880.224	21058
880.351	21173
880.478	21169
880.605	21131
880.732	21146
880.859	21492
880.986	21230
881.112	21188
881.239	21077
881.366	20902
881.493	20838
881.619	20636
881.746	20811
881.872	20811
881.999	20743
882.125	20731
882.252	20807
882.378	20708
882.505	20811
882.631	20701
882.757	20438
882.883	20541
883.01	20560
883.136	20427
883.262	20389
883.388	20290
883.514	20495
883.64	20488
883.766	20522
883.892	20263
884.018	20225
884.143	20488
884.269	20549
884.395	20225
884.52	20103
884.646	20130
884.772	20107
884.897	20001
885.023	20153
885.148	20218
885.274	20301
885.399	20259
885.524	20145
885.65	20122
885.775	20164
885.9	20195
886.025	20183
886.15	20168
886.275	20001
886.4	20050
886.525	20073
886.65	20001
886.775	20020
886.9	20259
887.025	20362
887.149	20142
887.274	19955
887.399	20031
887.523	19909
887.648	19784
887.773	19871
887.897	20024
888.021	19932
888.146	19944
888.27	19947
888.395	19993
888.519	19875
888.643	19997
888.767	19944
888.891	19860
889.015	19776
889.139	19795
889.263	19727
889.387	19803
889.511	19826
889.635	19852
889.759	19670
889.883	19719
890.006	19746
890.13	19830
890.254	19628
890.377	19616
890.501	19525
890.624	19487
890.748	19586
890.871	19415
890.995	19308
891.118	19240
891.241	19430
891.364	19373
891.488	19358
891.611	19331
891.734	19320
891.857	19327
891.98	19259
892.103	19377
892.226	19278
892.349	19209
892.471	19160
892.594	19331
892.717	19266
892.839	19247
892.962	19240
893.085	19251
893.207	19270
893.33	19042
893.452	19289
893.575	19354
893.697	19278
893.819	19217
893.941	19472
894.064	19282
894.186	19217
894.308	19114
894.43	19331
894.552	19354
894.674	19274
894.796	18973
894.918	19297
895.04	19308
895.161	19282
895.283	19278
895.405	19236
895.526	19194
895.648	19278
895.769	19266
895.891	19247
896.012	19274
896.134	19324
896.255	19282
896.376	19293
896.498	19308
896.619	19419
896.74	19308
896.861	19316
896.982	19605
897.103	19860
897.224	19518
897.345	19464
897.466	19419
897.587	19419
897.708	19521
897.828	19472
897.949	19430
898.07	19312
898.19	19354
898.311	19533
898.431	19422
898.552	19468
898.672	19533
898.792	19616
898.913	19415
899.033	19312
899.153	19232
899.273	19061
899.393	19244
899.513	19316
899.633	19148
899.753	19156
899.873	19168
899.993	19327
900.113	19164
900.232	19164
900.352	19091
900.472	19072
900.591	18985
900.711	19057
900.83	19031
900.95	19179
901.069	19171
901.189	18909
901.308	18612
901.427	18563
901.546	18532
901.665	18654
901.784	18665
901.904	18388
902.023	18251
902.141	18068
902.26	18125
902.379	18216
902.498	18155
902.617	18072
902.735	18228
902.854	18076
902.973	18057
903.091	17798
903.21	17733
903.328	17741
903.446	17703
903.565	17623
903.683	17608
903.801	17463
903.919	17493
904.038	17353
904.156	17341
904.274	17455
904.392	17410
904.51	17345
904.627	17433
904.745	17478
904.863	17391
904.981	17143
905.098	16999
905.216	17056
905.334	16968
905.451	17014
905.569	16957
905.686	17090
905.803	17052
905.921	16892
906.038	17006
906.155	16847
906.272	16771
906.389	16847
906.506	16588
906.623	16531
906.74	16538
906.857	16519
906.974	16516
907.091	16668
907.208	16748
907.324	16573
907.441	16447
907.557	16360
907.674	16238
907.79	16207
907.907	16276
908.023	16261
908.139	16226
908.256	16158
908.372	16093
908.488	16112
908.604	16128
908.72	15926
908.836	15953
908.952	15964
909.068	16021
909.184	16063
909.3	15964
909.415	15907
909.531	15991
909.647	15671
909.762	15759
909.878	15618
909.993	15770
910.108	15739
910.224	15625
910.339	15625
910.454	15530
910.57	15523
910.685	15458
910.8	15701
910.915	15606
911.03	15530
911.145	15298
911.259	15355
911.374	15370
911.489	15169
911.604	15207
911.718	15085
911.833	15028
911.947	14960
912.062	14918
912.176	15028
912.291	15066
912.405	14902
912.519	15180
912.633	15195
912.748	15043
912.862	14975
912.976	14861
913.09	14625
913.204	14823
913.318	14830
913.431	14853
913.545	14948
913.659	15017
913.772	14823
913.886	14689
914	14689
914.113	14731
914.226	14754
914.34	14826
914.453	14568
914.566	14678
914.68	14583
914.793	14575
914.906	14343
915.019	14256
915.132	14248
915.245	14214
915.358	14301
915.47	14347
915.583	14271
915.696	14343
915.809	14400
915.921	14427
916.034	14244
916.146	14180
916.259	14256
916.371	14275
916.483	14244
916.595	14157
916.708	14199
916.82	14172
916.932	14126
917.044	14138
917.156	14107
917.268	13997
917.38	13940
917.491	13951
917.603	14103
917.715	13978
917.826	14077
917.938	13894
918.049	13826
918.161	13967
918.272	14020
918.384	14062
918.495	13974
918.606	13799
918.717	13795
918.828	13864
918.939	13791
919.05	13624
919.161	13693
919.272	13582
919.383	13700
919.494	13917
919.604	13894
919.715	13731
919.826	13765
919.936	13738
920.047	13772
920.157	13849
920.267	13864
920.378	13803
920.488	13628
920.598	13856
920.708	13951
920.818	13917
920.928	13852
921.038	14020
921.148	13970
921.258	13681
921.368	13590
921.477	13529
921.587	13502
921.697	13274
921.806	13426
921.916	13350
922.025	13114
922.134	13031
922.244	13000
922.353	13118
922.462	12973
922.571	12897
922.68	12871
922.789	12738
922.898	12753
923.007	12677
923.116	12730
923.224	12654
923.333	12757
923.442	12597
923.55	12585
923.659	12627
923.767	12711
923.876	12623
923.984	12547
924.092	12460
924.201	12544
924.309	12551
924.417	12517
924.525	12426
924.633	12445
924.741	13171
924.849	12285
924.956	12376
925.064	12114
925.172	12087
925.279	12114
925.387	12167
925.494	12190
925.602	12334
925.709	12125
925.816	12133
925.924	12121
926.031	12247
926.138	12262
926.245	12239
926.352	12003
926.459	12220
926.566	12190
926.673	12136
926.779	11965
926.886	11965
926.993	11935
927.099	11775
927.206	11733
927.312	11710
927.419	11840
927.525	11748
927.631	11805
927.737	11691
927.843	11665
927.95	11562
928.056	11634
928.162	11646
928.267	11760
928.373	12159
928.479	11703
928.585	11474
928.69	11630
928.796	11589
928.901	11592
929.007	11315
929.112	11570
929.218	11406
929.323	11337
929.428	11421
929.533	11490
929.638	11315
929.743	11322
929.848	11395
929.953	11349
930.058	11178
930.163	11045
930.267	11109
930.372	11227
930.477	11010
930.581	11239
930.685	11105
930.79	10980
930.894	11025
930.998	10984
931.103	11083
931.207	10664
931.311	10611
931.415	10580
931.519	10322
931.623	10398
