Data from test_V78500241_291.txt Node
Date: Fri Mar 25 15:11:53 CST 2022
User: usil
Spectrometer: V785-0024
Trigger mode: 0
Integration Time (sec): 4.000000E-1
Scans to average: 1
Nonlinearity correction enabled: false
Boxcar width: 0
Storing dark spectrum: false
XAxis mode: Wavelengths
Number of Pixels in Spectrum: 1024
>>>>>Begin Spectral Data<<<<<
801.071	27717
801.214	27739
801.356	27511
801.499	27481
801.641	27348
801.783	27397
801.926	27389
802.068	27313
802.211	27256
802.353	27131
802.496	27001
802.638	26880
802.78	27017
802.923	26910
803.065	26902
803.208	26952
803.35	26902
803.492	27013
803.635	27157
803.777	27017
803.919	27169
804.061	27416
804.204	27013
804.346	27043
804.488	26929
804.63	27032
804.773	26891
804.915	27157
805.057	27081
805.199	27058
805.341	27176
805.483	27138
805.626	27135
805.768	26982
805.91	27119
806.052	27264
806.194	27112
806.336	27317
806.478	27142
806.62	27135
806.762	27252
806.904	27412
807.046	27679
807.188	27492
807.33	27523
807.472	27717
807.614	27515
807.756	27500
807.898	27256
808.04	27401
808.182	27283
808.324	27355
808.465	27397
808.607	27466
808.749	27641
808.891	27789
809.033	28067
809.174	27937
809.316	27641
809.458	27789
809.6	27713
809.741	27930
809.883	27892
810.025	27987
810.166	28010
810.308	27899
810.45	27964
810.591	27850
810.733	27797
810.875	27785
811.016	27663
811.158	27682
811.299	27793
811.441	27850
811.582	27766
811.724	27572
811.865	27724
812.007	27793
812.148	27671
812.29	27770
812.431	27804
812.573	28044
812.714	28040
812.855	28185
812.997	28261
813.138	28337
813.279	28295
813.421	28257
813.562	28215
813.703	27983
813.845	27987
813.986	27675
814.127	27370
814.268	27359
814.41	27363
814.551	27214
814.692	27386
814.833	27355
814.974	27268
815.115	27401
815.256	27192
815.397	27249
815.539	27150
815.68	27192
815.821	27077
815.962	27104
816.103	27154
816.244	26910
816.385	26914
816.526	26876
816.666	26712
816.807	26564
816.948	26663
817.089	26587
817.23	26632
817.371	26533
817.512	26549
817.653	26621
817.793	26537
817.934	26640
818.075	26663
818.216	26545
818.356	26575
818.497	26328
818.638	26214
818.778	26305
818.919	26286
819.06	26263
819.2	26328
819.341	26419
819.481	26442
819.622	26739
819.762	26883
819.903	26777
820.043	26746
820.184	26613
820.324	26609
820.465	26754
820.605	26655
820.746	26674
820.886	26503
821.026	26480
821.167	26492
821.307	26609
821.447	26648
821.588	26412
821.728	26339
821.868	26119
822.008	26016
822.149	26027
822.289	25807
822.429	25708
822.569	25674
822.709	25685
822.849	25495
822.99	25514
823.13	25426
823.27	25495
823.41	25240
823.55	25251
823.69	25206
823.83	25236
823.97	25004
824.11	25069
824.25	25076
824.389	25038
824.529	25206
824.669	24928
824.809	25164
824.949	25168
825.089	25240
825.228	25057
825.368	24863
825.508	24863
825.648	24897
825.787	24848
825.927	24996
826.067	24760
826.206	24958
826.346	25027
826.485	24981
826.625	24890
826.765	24916
826.904	24920
827.044	24749
827.183	24684
827.323	24574
827.462	24711
827.601	24597
827.741	24585
827.88	24669
828.02	24566
828.159	24658
828.298	24601
828.437	24692
828.577	24448
828.716	24566
828.855	24563
828.994	24247
829.134	24372
829.273	24414
829.412	24342
829.551	24365
829.69	24285
829.829	24273
829.968	24334
830.107	24315
830.246	24285
830.385	24216
830.524	24258
830.663	24076
830.802	23973
830.941	23882
831.08	23946
831.219	23965
831.357	23954
831.496	24049
831.635	23935
831.774	23767
831.913	23771
832.051	23722
832.19	23676
832.329	23604
832.467	23627
832.606	23573
832.744	23539
832.883	23634
833.022	23608
833.16	23646
833.299	23512
833.437	23608
833.576	23592
833.714	23516
833.852	23767
833.991	23665
834.129	23771
834.267	23695
834.406	23509
834.544	23551
834.682	23566
834.821	23589
834.959	23764
835.097	23528
835.235	23665
835.373	23566
835.511	23623
835.65	23452
835.788	23444
835.926	23250
836.064	23121
836.202	23341
836.34	23459
836.478	23490
836.615	23349
836.753	23417
836.891	23505
837.029	23444
837.167	23356
837.305	23315
837.443	23478
837.58	23383
837.718	23299
837.856	23303
837.993	23227
838.131	23242
838.269	23086
838.406	23136
838.544	23151
838.681	22900
838.819	22908
838.956	22744
839.094	22653
839.231	22736
839.369	22854
839.506	23143
839.643	22980
839.781	22793
839.918	22649
840.055	22706
840.193	22706
840.33	22649
840.467	22611
840.604	22733
840.742	22892
840.879	22504
841.016	22542
841.153	22584
841.29	22759
841.427	22656
841.564	22793
841.701	22744
841.838	22618
841.975	22519
842.112	22432
842.249	22466
842.385	22402
842.522	22569
842.659	22493
842.796	22314
842.933	22497
843.069	22325
843.206	22363
843.343	22447
843.479	22428
843.616	22504
843.752	22272
843.889	22154
844.025	22371
844.162	22051
844.298	22314
844.435	22185
844.571	22051
844.708	22143
844.844	22329
844.98	22280
845.117	22291
845.253	22150
845.389	22029
845.525	21953
845.661	21975
845.798	21816
845.934	22025
846.07	21903
846.206	21895
846.342	21926
846.478	21911
846.614	21641
846.75	21526
846.886	21542
847.022	21622
847.158	21564
847.294	21583
847.429	21637
847.565	21549
847.701	21846
847.837	21393
847.972	21252
848.108	21473
848.244	21572
848.379	21222
848.515	21214
848.65	21119
848.786	21161
848.921	21150
849.057	21321
849.192	21214
849.328	21268
849.463	21222
849.598	21180
849.734	21005
849.869	21036
850.004	21055
850.14	20967
850.275	20815
850.41	20933
850.545	20872
850.68	20933
850.815	20921
850.95	20891
851.085	21142
851.22	20971
851.355	20986
851.49	20963
851.625	20880
851.76	20994
851.895	20838
852.03	20727
852.165	20948
852.299	20944
852.434	20914
852.569	20925
852.703	20937
852.838	21039
852.973	21032
853.107	21024
853.242	20823
853.376	20868
853.511	20689
853.645	20746
853.78	20853
853.914	20765
854.048	20686
854.183	20689
854.317	20727
854.451	20876
854.585	20705
854.72	20697
854.854	20773
854.988	20545
855.122	20701
855.256	20473
855.39	20754
855.524	20861
855.658	20857
855.792	20750
855.926	20754
856.06	20826
856.194	20830
856.327	20705
856.461	20674
856.595	20735
856.729	20746
856.862	20823
856.996	20708
857.13	20781
857.263	20830
857.397	20849
857.53	20693
857.664	20883
857.797	20796
857.931	20861
858.064	20891
858.197	20914
858.331	20712
858.464	20644
858.597	20640
858.731	20807
858.864	20674
858.997	20735
859.13	20750
859.263	20727
859.396	20758
859.529	20811
859.662	20602
859.795	20644
859.928	20708
860.061	20838
860.194	20849
860.327	20712
860.46	20701
860.592	20781
860.725	20925
860.858	20861
860.99	20644
861.123	20625
861.256	20670
861.388	20777
861.521	21329
861.653	20590
861.786	20560
861.918	20640
862.05	20762
862.183	20598
862.315	20552
862.447	20712
862.58	20667
862.712	20446
862.844	20370
862.976	20590
863.108	20412
863.24	20876
863.372	20263
863.504	20362
863.636	20389
863.768	20457
863.9	20396
864.032	20465
864.164	20393
864.296	20396
864.428	20522
864.559	20476
864.691	20313
864.823	20328
864.954	20396
865.086	20427
865.217	20412
865.349	20172
865.48	20343
865.612	20267
865.743	20351
865.875	20351
866.006	20180
866.137	20400
866.269	20271
866.4	20176
866.531	20221
866.662	20263
866.793	20309
866.924	20317
867.055	20324
867.186	20202
867.317	20111
867.448	20191
867.579	20298
867.71	20221
867.841	20092
867.972	20294
868.103	20290
868.233	20290
868.364	20164
868.495	20343
868.625	20530
868.756	20632
868.886	20396
869.017	20499
869.147	20686
869.278	20651
869.408	20495
869.539	20427
869.669	20640
869.799	20560
869.929	20530
870.06	20701
870.19	20868
870.32	20883
870.45	20807
870.58	20800
870.71	21074
870.84	20864
870.97	20918
871.1	20887
871.23	21165
871.36	20986
871.489	21028
871.619	21081
871.749	21108
871.879	21085
872.008	21154
872.138	21256
872.267	21077
872.397	21089
872.526	20796
872.656	20902
872.785	20853
872.915	21104
873.044	21214
873.173	21230
873.303	21131
873.432	21192
873.561	21321
873.69	21260
873.819	21135
873.948	21096
874.077	21074
874.206	21028
874.335	21047
874.464	21184
874.593	21458
874.722	21294
874.851	21348
874.979	21405
875.108	21420
875.237	21393
875.365	21169
875.494	21298
875.623	21393
875.751	21214
875.88	21355
876.008	21412
876.136	21580
876.265	21713
876.393	21808
876.521	21797
876.65	21770
876.778	21800
876.906	21660
877.034	21724
877.162	21622
877.29	21572
877.418	21720
877.546	21827
877.674	21743
877.802	21709
877.93	21751
878.058	21625
878.185	21648
878.313	21686
878.441	21743
878.568	21629
878.696	21686
878.824	21739
878.951	21694
879.079	21907
879.206	21865
879.333	21911
879.461	21709
879.588	21823
879.715	21964
879.842	22021
879.97	21675
880.097	21481
880.224	21477
880.351	21595
880.478	21557
880.605	21424
880.732	21595
880.859	21724
880.986	21416
881.112	21534
881.239	21462
881.366	21355
881.493	21184
881.619	21096
881.746	21131
881.872	21131
881.999	21001
882.125	21036
882.252	21123
882.378	21028
882.505	21165
882.631	20990
882.757	20868
882.883	20990
883.01	20921
883.136	20895
883.262	20823
883.388	20724
883.514	20849
883.64	20967
883.766	20693
883.892	20659
884.018	20693
884.143	20686
884.269	20792
884.395	20583
884.52	20446
884.646	20575
884.772	20301
884.897	20461
885.023	20438
885.148	20564
885.274	20609
885.399	20606
885.524	20423
885.65	20526
885.775	20533
885.9	20370
886.025	20594
886.15	20495
886.275	20358
886.4	20347
886.525	20526
886.65	20370
886.775	20457
886.9	20545
887.025	20663
887.149	20530
887.274	20313
887.399	20218
887.523	20233
887.648	20172
887.773	20119
887.897	20301
888.021	20210
888.146	20252
888.27	20366
888.395	20298
888.519	20259
888.643	20259
888.767	20298
888.891	20103
889.015	20043
889.139	20229
889.263	20062
889.387	20077
889.511	20362
889.635	20191
889.759	20001
889.883	20016
890.006	19944
890.13	20050
890.254	19959
890.377	19944
890.501	19883
890.624	19742
890.748	19860
890.871	19681
890.995	19499
891.118	19544
891.241	19601
891.364	19597
891.488	19704
891.611	19544
891.734	19628
891.857	19651
891.98	19544
892.103	19632
892.226	19662
892.349	19552
892.471	19438
892.594	19460
892.717	19563
892.839	19499
892.962	19510
893.085	19677
893.207	19647
893.33	19304
893.452	19438
893.575	19518
893.697	19464
893.819	19643
893.941	19746
894.064	19616
894.186	19460
894.308	19430
894.43	19601
894.552	19693
894.674	19594
894.796	19483
894.918	19502
895.04	19419
895.161	19590
895.283	19609
895.405	19312
895.526	19533
895.648	19537
895.769	19521
895.891	19601
896.012	19704
896.134	19567
896.255	19502
896.376	19586
896.498	19544
896.619	19620
896.74	19537
896.861	19544
896.982	19906
897.103	19917
897.224	19944
897.345	19841
897.466	19700
897.587	19769
897.708	19986
897.828	19772
897.949	19799
898.07	19578
898.19	19571
898.311	19811
898.431	19784
898.552	19681
898.672	19746
898.792	19670
898.913	19670
899.033	19586
899.153	19491
899.273	19483
899.393	19495
899.513	19521
899.633	19483
899.753	19540
899.873	19422
899.993	19556
900.113	19430
900.232	19476
900.352	19377
900.472	19304
900.591	19282
900.711	19270
900.83	19206
900.95	19320
901.069	19350
901.189	19095
901.308	18905
901.427	18875
901.546	18894
901.665	18970
901.784	18772
901.904	18749
902.023	18650
902.141	18563
902.26	18479
902.379	18448
902.498	18353
902.617	18410
902.735	18342
902.854	18342
902.973	18201
903.091	17999
903.21	18019
903.328	18076
903.446	17946
903.565	17885
903.683	17897
903.801	17805
903.919	17847
904.038	17790
904.156	17668
904.274	17691
904.392	17680
904.51	17627
904.627	17672
904.745	17638
904.863	17710
904.981	17486
905.098	17421
905.216	17448
905.334	17326
905.451	17410
905.569	17345
905.686	17330
905.803	17334
905.921	17105
906.038	17254
906.155	17083
906.272	17045
906.389	17003
906.506	16885
906.623	16946
906.74	16934
906.857	16790
906.974	16809
907.091	16869
907.208	17025
907.324	16843
907.441	16790
907.557	16607
907.674	16573
907.79	16489
907.907	16470
908.023	16634
908.139	16462
908.256	16546
908.372	16428
908.488	16405
908.604	16360
908.72	16276
908.836	16318
908.952	16246
909.068	16291
909.184	16272
909.3	16242
909.415	16325
909.531	16272
909.647	16006
909.762	15911
909.878	15960
909.993	16013
910.108	15911
910.224	15922
910.339	15915
910.454	15926
910.57	15846
910.685	15743
910.8	15983
910.915	15895
911.03	15774
911.145	15587
911.259	15526
911.374	15542
911.489	15580
911.604	15519
911.718	15294
911.833	15287
911.947	15348
912.062	15104
912.176	15321
912.291	15340
912.405	15291
912.519	15500
912.633	15530
912.748	15359
912.862	15245
912.976	15131
913.09	15108
913.204	15108
913.318	15146
913.431	15317
913.545	15306
913.659	15214
913.772	15055
913.886	14883
914	14899
914.113	15028
914.226	15100
914.34	15032
914.453	14830
914.566	14982
914.68	14819
914.793	14838
914.906	14632
915.019	14613
915.132	14537
915.245	14556
915.358	14590
915.47	14644
915.583	14674
915.696	14720
915.809	14621
915.921	14720
916.034	14537
916.146	14488
916.259	14503
916.371	14545
916.483	14549
916.595	14389
916.708	14480
916.82	14450
916.932	14419
917.044	14355
917.156	14457
917.268	14233
917.38	14339
917.491	14278
917.603	14301
917.715	14271
917.826	14286
917.938	14275
918.049	14107
918.161	14202
918.272	14408
918.384	14290
918.495	14263
918.606	14050
918.717	13967
918.828	14180
918.939	14062
919.05	13951
919.161	13894
919.272	13807
919.383	13913
919.494	14050
919.604	14244
919.715	14005
919.826	13913
919.936	13951
920.047	14001
920.157	13947
920.267	14111
920.378	13970
920.488	13947
920.598	14126
920.708	14278
920.818	14126
920.928	14134
921.038	14214
921.148	14111
921.258	13925
921.368	13757
921.477	13791
921.587	13712
921.697	13601
921.806	13849
921.916	13597
922.025	13422
922.134	13354
922.244	13396
922.353	13316
922.462	13194
922.571	13133
922.68	13057
922.789	13038
922.898	13004
923.007	13034
923.116	13038
923.224	12939
923.333	12993
923.442	12909
923.55	12859
923.659	12901
923.767	12920
923.876	12753
923.984	12852
924.092	12738
924.201	12825
924.309	12810
924.417	12730
924.525	12570
924.633	12719
924.741	13430
924.849	12502
924.956	12620
925.064	12456
925.172	12407
925.279	12452
925.387	12536
925.494	12437
925.602	12521
925.709	12460
925.816	12456
925.924	12384
926.031	12532
926.138	12292
926.245	12464
926.352	12311
926.459	12452
926.566	12502
926.673	12350
926.779	12232
926.886	12205
926.993	12026
927.099	12072
927.206	11996
927.312	12064
927.419	12049
927.525	12053
927.631	12140
927.737	11882
927.843	11897
927.95	11813
928.056	11920
928.162	11885
928.267	12011
928.373	12509
928.479	11897
928.585	11718
928.69	11863
928.796	11859
928.901	11748
929.007	11627
929.112	11718
929.218	11722
929.323	11520
929.428	11562
929.533	11691
929.638	11600
929.743	11566
929.848	11600
929.953	11558
930.058	11436
930.163	11174
930.267	11360
930.372	11478
930.477	11299
930.581	11505
930.685	11326
930.79	11235
930.894	11216
930.998	11189
931.103	11311
931.207	10896
931.311	10816
931.415	10759
931.519	10550
931.623	10542
