Data from test_V78500241_2776.txt Node
Date: Fri Mar 25 15:29:11 CST 2022
User: usil
Spectrometer: V785-0024
Trigger mode: 0
Integration Time (sec): 4.000000E-1
Scans to average: 1
Nonlinearity correction enabled: false
Boxcar width: 0
Storing dark spectrum: false
XAxis mode: Wavelengths
Number of Pixels in Spectrum: 1024
>>>>>Begin Spectral Data<<<<<
801.071	27032
801.214	27047
801.356	26895
801.499	26674
801.641	26632
801.783	26651
801.926	26720
802.068	26651
802.211	26659
802.353	26522
802.496	26374
802.638	26313
802.78	26252
802.923	26267
803.065	26142
803.208	26164
803.35	26195
803.492	26343
803.635	26438
803.777	26115
803.919	26431
804.061	26712
804.204	26507
804.346	26313
804.488	26233
804.63	26355
804.773	26434
804.915	26381
805.057	26400
805.199	26400
805.341	26438
805.483	26613
805.626	26431
805.768	26461
805.91	26457
806.052	26511
806.194	26427
806.336	26739
806.478	26552
806.62	26469
806.762	26617
806.904	26853
807.046	27051
807.188	26880
807.33	26963
807.472	26960
807.614	26815
807.756	26918
807.898	26872
808.04	26811
808.182	26693
808.324	26720
808.465	26785
808.607	27020
808.749	26910
808.891	27222
809.033	27260
809.174	27142
809.316	26990
809.458	27032
809.6	27123
809.741	27173
809.883	27245
810.025	27481
810.166	27340
810.308	27454
810.45	27310
810.591	27268
810.733	27066
810.875	27066
811.016	27116
811.158	27062
811.299	27203
811.441	27340
811.582	27496
811.724	27093
811.865	27058
812.007	26956
812.148	27184
812.29	27180
812.431	27351
812.573	27310
812.714	27477
812.855	27545
812.997	27781
813.138	27857
813.279	27720
813.421	27637
813.562	27519
813.703	27500
813.845	27272
813.986	26971
814.127	26788
814.268	26773
814.41	26769
814.551	26739
814.692	26891
814.833	26594
814.974	26697
815.115	26735
815.256	26518
815.397	26549
815.539	26598
815.68	26469
815.821	26480
815.962	26575
816.103	26632
816.244	26339
816.385	26206
816.526	26336
816.666	26096
816.807	25997
816.948	26081
817.089	26115
817.23	26024
817.371	26016
817.512	26054
817.653	25871
817.793	25879
817.934	26103
818.075	26058
818.216	26012
818.356	26027
818.497	25978
818.638	25788
818.778	25712
818.919	25791
819.06	25864
819.2	25807
819.341	25887
819.481	25997
819.622	26309
819.762	26278
819.903	26309
820.043	26092
820.184	26149
820.324	26126
820.465	26214
820.605	26161
820.746	25936
820.886	25989
821.026	26176
821.167	26005
821.307	26119
821.447	25947
821.588	25807
821.728	25693
821.868	25575
822.008	25525
822.149	25499
822.289	25460
822.429	25301
822.569	25232
822.709	25160
822.849	25076
822.99	24954
823.13	24985
823.27	24916
823.41	24696
823.55	24604
823.69	24810
823.83	24608
823.97	24719
824.11	24574
824.25	24639
824.389	24593
824.529	24707
824.669	24604
824.809	24776
824.949	24559
825.089	24677
825.228	24620
825.368	24429
825.508	24456
825.648	24456
825.787	24509
825.927	24475
826.067	24456
826.206	24433
826.346	24467
826.485	24456
826.625	24486
826.765	24475
826.904	24475
827.044	24311
827.183	24194
827.323	24121
827.462	24190
827.601	24201
827.741	24190
827.88	24201
828.02	23942
828.159	24121
828.298	24083
828.437	24228
828.577	24030
828.716	24243
828.855	23946
828.994	23882
829.134	23942
829.273	23931
829.412	23851
829.551	23771
829.69	23954
829.829	23790
829.968	23965
830.107	23809
830.246	23885
830.385	23779
830.524	23752
830.663	23741
830.802	23516
830.941	23421
831.08	23440
831.219	23512
831.357	23592
831.496	23760
831.635	23490
831.774	23280
831.913	23322
832.051	23212
832.19	23402
832.329	23395
832.467	23128
832.606	23090
832.744	23048
832.883	23109
833.022	23067
833.16	23170
833.299	23197
833.437	23220
833.576	23364
833.714	23170
833.852	23220
833.991	23318
834.129	23349
834.267	23299
834.406	23200
834.544	23181
834.682	23227
834.821	23265
834.959	23372
835.097	23212
835.235	23250
835.373	23067
835.511	23185
835.65	23071
835.788	23022
835.926	22790
836.064	22839
836.202	22877
836.34	23166
836.478	22972
836.615	23025
836.753	23048
836.891	23105
837.029	23044
837.167	23033
837.305	23094
837.443	23003
837.58	22850
837.718	23018
837.856	22858
837.993	22759
838.131	22801
838.269	22679
838.406	22763
838.544	22755
838.681	22622
838.819	22599
838.956	22272
839.094	22352
839.231	22504
839.369	22474
839.506	22774
839.643	22736
839.781	22394
839.918	22314
840.055	22428
840.193	22398
840.33	22055
840.467	22268
840.604	22402
840.742	22603
840.879	22242
841.016	22166
841.153	22333
841.29	22333
841.427	22356
841.564	22310
841.701	22192
841.838	22261
841.975	22185
842.112	22261
842.249	22120
842.385	22105
842.522	22287
842.659	22051
842.796	22029
842.933	22006
843.069	21979
843.206	22040
843.343	22074
843.479	22021
843.616	22097
843.752	21888
843.889	21774
844.025	22025
844.162	21717
844.298	21899
844.435	21789
844.571	21789
844.708	21888
844.844	21998
844.98	21987
845.117	21827
845.253	21838
845.389	21648
845.525	21732
845.661	21644
845.798	21656
845.934	21747
846.07	21504
846.206	21549
846.342	21675
846.478	21519
846.614	21488
846.75	21393
846.886	21344
847.022	21485
847.158	21287
847.294	21351
847.429	21378
847.565	21332
847.701	21450
847.837	21127
847.972	21024
848.108	21199
848.244	21123
848.379	20921
848.515	20948
848.65	20872
848.786	20891
848.921	21017
849.057	21070
849.192	21062
849.328	20845
849.463	20864
849.598	20819
849.734	20777
849.869	20743
850.004	20815
850.14	20708
850.275	20686
850.41	20579
850.545	20629
850.68	20632
850.815	20648
850.95	20632
851.085	20857
851.22	20918
851.355	20670
851.49	20594
851.625	20644
851.76	20594
851.895	20655
852.03	20473
852.165	20629
852.299	20670
852.434	20716
852.569	20667
852.703	20754
852.838	20640
852.973	20872
853.107	20773
853.242	20590
853.376	20621
853.511	20442
853.645	20606
853.78	20708
853.914	20522
854.048	20415
854.183	20480
854.317	20552
854.451	20701
854.585	20461
854.72	20499
854.854	20552
854.988	20389
855.122	20473
855.256	20351
855.39	20450
855.524	20583
855.658	20606
855.792	20545
855.926	20560
856.06	20568
856.194	20530
856.327	20484
856.461	20309
856.595	20587
856.729	20396
856.862	20545
856.996	20556
857.13	20549
857.263	20655
857.397	20579
857.53	20396
857.664	20594
857.797	20613
857.931	20655
858.064	20560
858.197	20518
858.331	20446
858.464	20427
858.597	20362
858.731	20480
858.864	20484
858.997	20594
859.13	20644
859.263	20465
859.396	20644
859.529	20465
859.662	20374
859.795	20556
859.928	20560
860.061	20632
860.194	20606
860.327	20575
860.46	20488
860.592	20625
860.725	20655
860.858	20705
860.99	20484
861.123	20408
861.256	20374
861.388	20579
861.521	21211
861.653	20309
861.786	20366
861.918	20385
862.05	20427
862.183	20259
862.315	20381
862.447	20377
862.58	20328
862.712	20237
862.844	20199
862.976	20256
863.108	20214
863.24	20693
863.372	20202
863.504	20039
863.636	20195
863.768	20320
863.9	20267
864.032	20126
864.164	20164
864.296	20267
864.428	20309
864.559	20240
864.691	20370
864.823	20256
864.954	20259
865.086	20180
865.217	20237
865.349	20122
865.48	20122
865.612	20214
865.743	20252
865.875	20111
866.006	20077
866.137	20183
866.269	20149
866.4	20202
866.531	20058
866.662	20077
866.793	20031
866.924	20039
867.055	20046
867.186	20073
867.317	20050
867.448	20001
867.579	20077
867.71	19852
867.841	20005
867.972	20039
868.103	20081
868.233	20168
868.364	20043
868.495	20096
868.625	20332
868.756	20298
868.886	20286
869.017	20328
869.147	20370
869.278	20438
869.408	20438
869.539	20381
869.669	20301
869.799	20278
869.929	20480
870.06	20377
870.19	20682
870.32	20518
870.45	20648
870.58	20636
870.71	20765
870.84	20823
870.97	20750
871.1	20689
871.23	20781
871.36	20872
871.489	20788
871.619	20925
871.749	20891
871.879	20902
872.008	20876
872.138	20967
872.267	20918
872.397	20716
872.526	20743
872.656	20750
872.785	20720
872.915	20944
873.044	21024
873.173	20845
873.303	20887
873.432	20906
873.561	21062
873.69	21047
873.819	20861
873.948	20906
874.077	20982
874.206	21013
874.335	21001
874.464	21017
874.593	21157
874.722	21169
874.851	21199
874.979	21180
875.108	21260
875.237	21192
875.365	21135
875.494	21032
875.623	21230
875.751	21203
875.88	21188
876.008	21336
876.136	21329
876.265	21660
876.393	21545
876.521	21576
876.65	21671
876.778	21549
876.906	21526
877.034	21545
877.162	21576
877.29	21515
877.418	21549
877.546	21614
877.674	21511
877.802	21603
877.93	21477
878.058	21389
878.185	21485
878.313	21523
878.441	21523
878.568	21355
878.696	21428
878.824	21660
878.951	21637
879.079	21679
879.206	21812
879.333	21652
879.461	21545
879.588	21599
879.715	21675
879.842	21819
879.97	21564
880.097	21378
880.224	21370
880.351	21545
880.478	21382
880.605	21252
880.732	21344
880.859	21542
880.986	21386
881.112	21351
881.239	21188
881.366	21123
881.493	20990
881.619	21058
881.746	20944
881.872	20906
881.999	20990
882.125	20933
882.252	20982
882.378	20963
882.505	21009
882.631	20777
882.757	20640
882.883	20811
883.01	20556
883.136	20632
883.262	20587
883.388	20423
883.514	20659
883.64	20678
883.766	20495
883.892	20381
884.018	20476
884.143	20720
884.269	20632
884.395	20259
884.52	20298
884.646	20442
884.772	20336
884.897	20271
885.023	20400
885.148	20408
885.274	20495
885.399	20355
885.524	20431
885.65	20366
885.775	20290
885.9	20301
886.025	20366
886.15	20358
886.275	20298
886.4	20206
886.525	20324
886.65	20301
886.775	20157
886.9	20351
887.025	20549
887.149	20301
887.274	20035
887.399	20153
887.523	20096
887.648	19959
887.773	20058
887.897	20130
888.021	20092
888.146	20084
888.27	20256
888.395	20149
888.519	20111
888.643	20096
888.767	20145
888.891	19997
889.015	19883
889.139	19955
889.263	19864
889.387	19921
889.511	20111
889.635	19959
889.759	19811
889.883	19856
890.006	20020
890.13	19940
890.254	19811
890.377	19727
890.501	19674
890.624	19620
890.748	19723
890.871	19510
890.995	19472
891.118	19453
891.241	19415
891.364	19548
891.488	19639
891.611	19331
891.734	19419
891.857	19590
891.98	19457
892.103	19510
892.226	19514
892.349	19445
892.471	19217
892.594	19434
892.717	19369
892.839	19381
892.962	19483
893.085	19381
893.207	19441
893.33	19335
893.452	19266
893.575	19457
893.697	19411
893.819	19480
893.941	19548
894.064	19483
894.186	19369
894.308	19362
894.43	19422
894.552	19552
894.674	19514
894.796	19346
894.918	19476
895.04	19396
895.161	19407
895.283	19453
895.405	19384
895.526	19377
895.648	19339
895.769	19422
895.891	19381
896.012	19426
896.134	19377
896.255	19373
896.376	19419
896.498	19422
896.619	19327
896.74	19521
896.861	19521
896.982	19723
897.103	19932
897.224	19674
897.345	19620
897.466	19590
897.587	19723
897.708	19841
897.828	19571
897.949	19601
898.07	19529
898.19	19548
898.311	19662
898.431	19575
898.552	19613
898.672	19674
898.792	19795
898.913	19674
899.033	19582
899.153	19426
899.273	19369
899.393	19388
899.513	19388
899.633	19499
899.753	19384
899.873	19411
899.993	19460
900.113	19304
900.232	19278
900.352	19327
900.472	19187
900.591	19179
900.711	19187
900.83	19190
900.95	19346
901.069	19232
901.189	19084
901.308	18852
901.427	18779
901.546	18787
901.665	18730
901.784	18726
901.904	18696
902.023	18555
902.141	18361
902.26	18342
902.379	18308
902.498	18205
902.617	18315
902.735	18346
902.854	18243
902.973	18117
903.091	18083
903.21	17923
903.328	17977
903.446	17851
903.565	17733
903.683	17756
903.801	17733
903.919	17710
904.038	17642
904.156	17528
904.274	17756
904.392	17562
904.51	17486
904.627	17478
904.745	17570
904.863	17547
904.981	17288
905.098	17159
905.216	17227
905.334	17296
905.451	17261
905.569	17083
905.686	17356
905.803	17212
905.921	16972
906.038	17033
906.155	17006
906.272	17006
906.389	16968
906.506	16736
906.623	16805
906.74	16683
906.857	16603
906.974	16561
907.091	16900
907.208	16881
907.324	16786
907.441	16653
907.557	16596
907.674	16485
907.79	16413
907.907	16470
908.023	16527
908.139	16455
908.256	16440
908.372	16459
908.488	16386
908.604	16249
908.72	16280
908.836	16291
908.952	16230
909.068	16310
909.184	16295
909.3	16215
909.415	16265
909.531	16196
909.647	16048
909.762	16006
909.878	15926
909.993	15975
910.108	15930
910.224	15975
910.339	15937
910.454	15778
910.57	15838
910.685	15652
910.8	15987
910.915	15865
911.03	15686
911.145	15564
911.259	15488
911.374	15561
911.489	15466
911.604	15348
911.718	15344
911.833	15374
911.947	15325
912.062	15214
912.176	15321
912.291	15344
912.405	15298
912.519	15568
912.633	15454
912.748	15317
912.862	15291
912.976	15222
913.09	14933
913.204	15089
913.318	15135
913.431	15233
913.545	15169
913.659	15199
913.772	15009
913.886	14902
914	14910
914.113	14937
914.226	15024
914.34	15024
914.453	14853
914.566	14982
914.68	14838
914.793	14705
914.906	14655
915.019	14602
915.132	14499
915.245	14598
915.358	14564
915.47	14556
915.583	14590
915.696	14594
915.809	14644
915.921	14598
916.034	14461
916.146	14412
916.259	14362
916.371	14526
916.483	14488
916.595	14434
916.708	14389
916.82	14438
916.932	14347
917.044	14351
917.156	14309
917.268	14259
917.38	14248
917.491	14275
917.603	14206
917.715	14336
917.826	14305
917.938	14145
918.049	14103
918.161	14161
918.272	14309
918.384	14256
918.495	14168
918.606	13890
918.717	13928
918.828	13989
918.939	14031
919.05	13928
919.161	14016
919.272	13769
919.383	13898
919.494	14027
919.604	14183
919.715	13909
919.826	13917
919.936	13906
920.047	14020
920.157	13947
920.267	14199
920.378	13978
920.488	13955
920.598	14092
920.708	14240
920.818	14084
920.928	14069
921.038	14263
921.148	14286
921.258	13871
921.368	13811
921.477	13818
921.587	13655
921.697	13552
921.806	13734
921.916	13609
922.025	13362
922.134	13354
922.244	13308
922.353	13453
922.462	13308
922.571	13225
922.68	13126
922.789	13088
922.898	13019
923.007	12958
923.116	13008
923.224	12996
923.333	12958
923.442	12890
923.55	12920
923.659	12844
923.767	12852
923.876	12840
923.984	12859
924.092	12764
924.201	12844
924.309	12779
924.417	12776
924.525	12673
924.633	12662
924.741	13434
924.849	12460
924.956	12654
925.064	12525
925.172	12426
925.279	12471
925.387	12509
925.494	12445
925.602	12547
925.709	12464
925.816	12395
925.924	12407
926.031	12513
926.138	12422
926.245	12513
926.352	12380
926.459	12399
926.566	12479
926.673	12414
926.779	12247
926.886	12197
926.993	12049
927.099	12064
927.206	11954
927.312	12053
927.419	12038
927.525	11973
927.631	12076
927.737	11916
927.843	11866
927.95	11783
928.056	11843
928.162	11824
928.267	11931
928.373	12498
928.479	11878
928.585	11710
928.69	11912
928.796	11901
928.901	11832
929.007	11707
929.112	11676
929.218	11668
929.323	11585
929.428	11680
929.533	11714
929.638	11474
929.743	11596
929.848	11672
929.953	11509
930.058	11532
930.163	11201
930.267	11288
930.372	11376
930.477	11246
930.581	11455
930.685	11356
930.79	11235
930.894	11227
930.998	11151
931.103	11356
931.207	10911
931.311	10923
931.415	10782
931.519	10634
931.623	10611
