Data from test_V78500241_331.txt Node
Date: Fri Mar 25 15:12:09 CST 2022
User: usil
Spectrometer: V785-0024
Trigger mode: 0
Integration Time (sec): 4.000000E-1
Scans to average: 1
Nonlinearity correction enabled: false
Boxcar width: 0
Storing dark spectrum: false
XAxis mode: Wavelengths
Number of Pixels in Spectrum: 1024
>>>>>Begin Spectral Data<<<<<
801.071	26994
801.214	27028
801.356	26872
801.499	26826
801.641	26480
801.783	26606
801.926	26636
802.068	26651
802.211	26575
802.353	26469
802.496	26278
802.638	26347
802.78	26282
802.923	26115
803.065	26313
803.208	26206
803.35	26385
803.492	26362
803.635	26332
803.777	26320
803.919	26431
804.061	26678
804.204	26480
804.346	26229
804.488	26427
804.63	26374
804.773	26244
804.915	26366
805.057	26560
805.199	26339
805.341	26446
805.483	26495
805.626	26484
805.768	26385
805.91	26419
806.052	26408
806.194	26423
806.336	26545
806.478	26453
806.62	26317
806.762	26655
806.904	26861
807.046	27051
807.188	26834
807.33	26868
807.472	26944
807.614	26823
807.756	26762
807.898	26773
808.04	26537
808.182	26583
808.324	26644
808.465	26727
808.607	26971
808.749	26895
808.891	27089
809.033	27279
809.174	27161
809.316	27032
809.458	27123
809.6	27043
809.741	27195
809.883	27325
810.025	27336
810.166	27275
810.308	27287
810.45	27386
810.591	27256
810.733	27085
810.875	27062
811.016	26914
811.158	26838
811.299	27051
811.441	27176
811.582	27157
811.724	27062
811.865	26925
812.007	27116
812.148	26944
812.29	26990
812.431	27241
812.573	27374
812.714	27321
812.855	27599
812.997	27663
813.138	27835
813.279	27739
813.421	27633
813.562	27568
813.703	27401
813.845	27302
813.986	27028
814.127	26899
814.268	26750
814.41	26697
814.551	26659
814.692	26678
814.833	26708
814.974	26632
815.115	26762
815.256	26594
815.397	26564
815.539	26446
815.68	26427
815.821	26450
815.962	26522
816.103	26499
816.244	26465
816.385	26195
816.526	26374
816.666	26062
816.807	25883
816.948	26012
817.089	26157
817.23	26073
817.371	25837
817.512	25974
817.653	25936
817.793	25989
817.934	25970
818.075	25936
818.216	26054
818.356	25875
818.497	25837
818.638	25757
818.778	25658
818.919	25708
819.06	25719
819.2	25879
819.341	25879
819.481	25822
819.622	26001
819.762	26332
819.903	26202
820.043	26115
820.184	26031
820.324	26111
820.465	26058
820.605	25993
820.746	26050
820.886	25925
821.026	26069
821.167	25944
821.307	26107
821.447	26024
821.588	25944
821.728	25791
821.868	25518
822.008	25400
822.149	25407
822.289	25377
822.429	25122
822.569	25107
822.709	25198
822.849	24916
822.99	24844
823.13	24901
823.27	24810
823.41	24837
823.55	24616
823.69	24734
823.83	24631
823.97	24688
824.11	24570
824.25	24585
824.389	24563
824.529	24597
824.669	24604
824.809	24631
824.949	24673
825.089	24738
825.228	24635
825.368	24437
825.508	24437
825.648	24441
825.787	24525
825.927	24445
826.067	24490
826.206	24433
826.346	24479
826.485	24601
826.625	24441
826.765	24445
826.904	24399
827.044	24201
827.183	24220
827.323	24091
827.462	24140
827.601	24098
827.741	24064
827.88	24136
828.02	24011
828.159	24087
828.298	24155
828.437	24182
828.577	24174
828.716	24239
828.855	23996
828.994	23935
829.134	23824
829.273	23821
829.412	23805
829.551	23779
829.69	23794
829.829	23863
829.968	23901
830.107	23965
830.246	23843
830.385	23767
830.524	23722
830.663	23687
830.802	23608
830.941	23520
831.08	23539
831.219	23547
831.357	23429
831.496	23710
831.635	23539
831.774	23387
831.913	23292
832.051	23265
832.19	23231
832.329	23334
832.467	23376
832.606	23170
832.744	23102
832.883	23261
833.022	23151
833.16	23185
833.299	23094
833.437	23124
833.576	23174
833.714	23166
833.852	23235
833.991	23242
834.129	23265
834.267	23280
834.406	23204
834.544	23299
834.682	23174
834.821	23254
834.959	23311
835.097	23124
835.235	23246
835.373	23185
835.511	23212
835.65	23071
835.788	23006
835.926	22984
836.064	22847
836.202	22900
836.34	23056
836.478	23014
836.615	23067
836.753	23090
836.891	23010
837.029	23037
837.167	22995
837.305	22999
837.443	22976
837.58	22828
837.718	22968
837.856	22976
837.993	22927
838.131	22847
838.269	22771
838.406	22858
838.544	22721
838.681	22550
838.819	22557
838.956	22382
839.094	22455
839.231	22363
839.369	22573
839.506	22801
839.643	22569
839.781	22405
839.918	22291
840.055	22333
840.193	22394
840.33	22440
840.467	22440
840.604	22314
840.742	22577
840.879	22177
841.016	22322
841.153	22082
841.29	22436
841.427	22379
841.564	22504
841.701	22287
841.838	22230
841.975	22166
842.112	22329
842.249	22162
842.385	22169
842.522	22322
842.659	22147
842.796	22021
842.933	22048
843.069	22013
843.206	22139
843.343	22192
843.479	22124
843.616	22139
843.752	21918
843.889	21884
844.025	21937
844.162	21842
844.298	22090
844.435	21964
844.571	21873
844.708	21895
844.844	21983
844.98	22086
845.117	22093
845.253	21797
845.389	21766
845.525	21736
845.661	21625
845.798	21603
845.934	21599
846.07	21416
846.206	21610
846.342	21648
846.478	21686
846.614	21313
846.75	21252
846.886	21268
847.022	21412
847.158	21454
847.294	21412
847.429	21359
847.565	21313
847.701	21644
847.837	21127
847.972	20982
848.108	21195
848.244	21112
848.379	20998
848.515	20929
848.65	20830
848.786	20975
848.921	20937
849.057	21005
849.192	21062
849.328	21001
849.463	20994
849.598	20891
849.734	20815
849.869	20807
850.004	20815
850.14	20815
850.275	20754
850.41	20541
850.545	20708
850.68	20769
850.815	20682
850.95	20594
851.085	20895
851.22	20880
851.355	20765
851.49	20697
851.625	20617
851.76	20549
851.895	20598
852.03	20560
852.165	20640
852.299	20781
852.434	20754
852.569	20716
852.703	20731
852.838	20735
852.973	20826
853.107	20830
853.242	20697
853.376	20648
853.511	20377
853.645	20499
853.78	20579
853.914	20617
854.048	20511
854.183	20499
854.317	20568
854.451	20693
854.585	20533
854.72	20469
854.854	20552
854.988	20465
855.122	20556
855.256	20347
855.39	20461
855.524	20545
855.658	20602
855.792	20488
855.926	20545
856.06	20667
856.194	20617
856.327	20575
856.461	20480
856.595	20552
856.729	20549
856.862	20621
856.996	20552
857.13	20629
857.263	20678
857.397	20648
857.53	20537
857.664	20670
857.797	20701
857.931	20602
858.064	20746
858.197	20697
858.331	20511
858.464	20427
858.597	20454
858.731	20533
858.864	20522
858.997	20522
859.13	20556
859.263	20476
859.396	20667
859.529	20480
859.662	20522
859.795	20465
859.928	20518
860.061	20598
860.194	20670
860.327	20526
860.46	20625
860.592	20632
860.725	20655
860.858	20560
860.99	20530
861.123	20370
861.256	20454
861.388	20594
861.521	21157
861.653	20313
861.786	20263
861.918	20259
862.05	20396
862.183	20495
862.315	20396
862.447	20526
862.58	20358
862.712	20248
862.844	20180
862.976	20389
863.108	20415
863.24	20769
863.372	20298
863.504	20301
863.636	20294
863.768	20400
863.9	20332
864.032	20202
864.164	20252
864.296	20176
864.428	20355
864.559	20229
864.691	20336
864.823	20263
864.954	20305
865.086	20187
865.217	20084
865.349	20039
865.48	20244
865.612	20107
865.743	20366
865.875	20164
866.006	20172
866.137	20168
866.269	20103
866.4	20020
866.531	20058
866.662	19917
866.793	20012
866.924	20119
867.055	20077
867.186	20107
867.317	20012
867.448	20046
867.579	20050
867.71	20119
867.841	20077
867.972	20073
868.103	20103
868.233	20005
868.364	20206
868.495	20161
868.625	20324
868.756	20434
868.886	20339
869.017	20252
869.147	20282
869.278	20454
869.408	20412
869.539	20351
869.669	20366
869.799	20377
869.929	20492
870.06	20355
870.19	20750
870.32	20663
870.45	20674
870.58	20644
870.71	20906
870.84	20887
870.97	20720
871.1	20606
871.23	20899
871.36	20868
871.489	20785
871.619	20910
871.749	20941
871.879	20925
872.008	21085
872.138	20960
872.267	20887
872.397	20830
872.526	20716
872.656	20727
872.785	20708
872.915	20921
873.044	21020
873.173	21009
873.303	21085
873.432	21043
873.561	21089
873.69	20925
873.819	20990
873.948	20929
874.077	20979
874.206	20952
874.335	20929
874.464	21100
874.593	21119
874.722	21135
874.851	21108
874.979	21192
875.108	21173
875.237	21146
875.365	21028
875.494	21154
875.623	21150
875.751	21195
875.88	21176
876.008	21340
876.136	21367
876.265	21530
876.393	21751
876.521	21614
876.65	21625
876.778	21652
876.906	21545
877.034	21492
877.162	21564
877.29	21507
877.418	21610
877.546	21496
877.674	21572
877.802	21572
877.93	21671
878.058	21511
878.185	21382
878.313	21416
878.441	21466
878.568	21306
878.696	21420
878.824	21591
878.951	21629
879.079	21679
879.206	21819
879.333	21698
879.461	21614
879.588	21599
879.715	21736
879.842	21842
879.97	21580
880.097	21382
880.224	21389
880.351	21386
880.478	21424
880.605	21298
880.732	21428
880.859	21492
880.986	21336
881.112	21367
881.239	21264
881.366	21093
881.493	21009
881.619	20986
881.746	20899
881.872	21001
881.999	20967
882.125	20838
882.252	20998
882.378	20971
882.505	20963
882.631	20914
882.757	20689
882.883	20785
883.01	20701
883.136	20583
883.262	20606
883.388	20438
883.514	20651
883.64	20758
883.766	20670
883.892	20495
884.018	20564
884.143	20568
884.269	20659
884.395	20317
884.52	20347
884.646	20294
884.772	20157
884.897	20088
885.023	20434
885.148	20419
885.274	20419
885.399	20465
885.524	20339
885.65	20259
885.775	20282
885.9	20210
886.025	20313
886.15	20385
886.275	20206
886.4	20199
886.525	20301
886.65	20438
886.775	20176
886.9	20404
887.025	20549
887.149	20210
887.274	20180
887.399	20058
887.523	20103
887.648	20119
887.773	19974
887.897	20191
888.021	20043
888.146	20111
888.27	20107
888.395	20126
888.519	20130
888.643	20100
888.767	20122
888.891	19947
889.015	19932
889.139	20050
889.263	19890
889.387	20005
889.511	20084
889.635	20073
889.759	19868
889.883	19909
890.006	19913
890.13	19902
890.254	19681
890.377	19947
890.501	19651
890.624	19597
890.748	19780
890.871	19537
890.995	19464
891.118	19346
891.241	19533
891.364	19506
891.488	19616
891.611	19510
891.734	19487
891.857	19563
891.98	19403
892.103	19506
892.226	19426
892.349	19396
892.471	19179
892.594	19403
892.717	19419
892.839	19362
892.962	19460
893.085	19559
893.207	19377
893.33	19308
893.452	19369
893.575	19472
893.697	19453
893.819	19586
893.941	19693
894.064	19521
894.186	19316
894.308	19419
894.43	19510
894.552	19597
894.674	19571
894.796	19415
894.918	19388
895.04	19537
895.161	19460
895.283	19373
895.405	19441
895.526	19426
895.648	19415
895.769	19289
895.891	19422
896.012	19415
896.134	19449
896.255	19426
896.376	19331
896.498	19540
896.619	19491
896.74	19464
896.861	19419
896.982	19731
897.103	19833
897.224	19655
897.345	19552
897.466	19613
897.587	19537
897.708	19818
897.828	19704
897.949	19594
898.07	19533
898.19	19502
898.311	19582
898.431	19616
898.552	19613
898.672	19613
898.792	19666
898.913	19605
899.033	19533
899.153	19331
899.273	19369
899.393	19483
899.513	19358
899.633	19502
899.753	19297
899.873	19316
899.993	19491
900.113	19263
900.232	19396
900.352	19358
900.472	19282
900.591	19065
900.711	19228
900.83	19160
900.95	19213
901.069	19259
901.189	18973
901.308	18875
901.427	18703
901.546	18768
901.665	18772
901.784	18802
901.904	18593
902.023	18528
902.141	18376
902.26	18224
902.379	18391
902.498	18277
902.617	18110
902.735	18365
902.854	18254
902.973	18182
903.091	17946
903.21	17965
903.328	17935
903.446	17863
903.565	17802
903.683	17722
903.801	17737
903.919	17843
904.038	17752
904.156	17524
904.274	17661
904.392	17493
904.51	17611
904.627	17509
904.745	17642
904.863	17581
904.981	17315
905.098	17265
905.216	17277
905.334	17330
905.451	17258
905.569	17151
905.686	17299
905.803	17273
905.921	17045
906.038	17185
906.155	16972
906.272	16995
906.389	16915
906.506	16774
906.623	16850
906.74	16828
906.857	16729
906.974	16763
907.091	16904
907.208	16946
907.324	16778
907.441	16698
907.557	16577
907.674	16577
907.79	16466
907.907	16512
908.023	16584
908.139	16523
908.256	16470
908.372	16367
908.488	16405
908.604	16306
908.72	16192
908.836	16215
908.952	16238
909.068	16253
909.184	16428
909.3	16200
909.415	16299
909.531	16223
909.647	15964
909.762	15899
909.878	15838
909.993	15907
910.108	15838
910.224	15949
910.339	15937
910.454	15812
910.57	15797
910.685	15679
910.8	15945
910.915	15934
911.03	15869
911.145	15717
911.259	15652
911.374	15545
911.489	15515
911.604	15401
911.718	15302
911.833	15317
911.947	15237
912.062	15165
912.176	15249
912.291	15260
912.405	15214
912.519	15500
912.633	15545
912.748	15359
912.862	15252
912.976	15138
913.09	15055
913.204	15074
913.318	15135
913.431	15218
913.545	15173
913.659	15256
913.772	15146
913.886	15047
914	14963
914.113	15005
914.226	15039
914.34	15070
914.453	14853
914.566	15047
914.68	14811
914.793	14887
914.906	14716
915.019	14522
915.132	14533
915.245	14537
915.358	14621
915.47	14587
915.583	14549
915.696	14621
915.809	14720
915.921	14720
916.034	14480
916.146	14469
916.259	14442
916.371	14473
916.483	14568
916.595	14454
916.708	14495
916.82	14412
916.932	14370
917.044	14412
917.156	14320
917.268	14290
917.38	14275
917.491	14298
917.603	14240
917.715	14298
917.826	14328
917.938	14142
918.049	14149
918.161	14206
918.272	14343
918.384	14290
918.495	14134
918.606	14084
918.717	14001
918.828	14058
918.939	14073
919.05	13852
919.161	14031
919.272	13788
919.383	13879
919.494	13970
919.604	14214
919.715	13997
919.826	13898
919.936	13959
920.047	14084
920.157	14027
920.267	14161
920.378	14024
920.488	13967
920.598	14130
920.708	14267
920.818	14180
920.928	14050
921.038	14301
921.148	14240
921.258	14027
921.368	13909
921.477	13731
921.587	13689
921.697	13601
921.806	13636
921.916	13624
922.025	13438
922.134	13400
922.244	13289
922.353	13411
922.462	13392
922.571	13141
922.68	13042
922.789	13137
922.898	13012
923.007	12985
923.116	13076
923.224	13065
923.333	13019
923.442	12890
923.55	12920
923.659	12897
923.767	12909
923.876	12768
923.984	12951
924.092	12817
924.201	12882
924.309	12821
924.417	12798
924.525	12738
924.633	12715
924.741	13521
924.849	12494
924.956	12700
925.064	12532
925.172	12437
925.279	12452
925.387	12483
925.494	12448
925.602	12608
925.709	12563
925.816	12418
925.924	12456
926.031	12506
926.138	12506
926.245	12513
926.352	12323
926.459	12433
926.566	12471
926.673	12388
926.779	12182
926.886	12327
926.993	12144
927.099	12060
927.206	12015
927.312	12011
927.419	12125
927.525	11996
927.631	12129
927.737	11908
927.843	11863
927.95	11775
928.056	11882
928.162	11885
928.267	11958
928.373	12555
928.479	11988
928.585	11786
928.69	11935
928.796	11961
928.901	11729
929.007	11554
929.112	11836
929.218	11703
929.323	11638
929.428	11653
929.533	11817
929.638	11551
929.743	11570
929.848	11680
929.953	11623
930.058	11425
930.163	11322
930.267	11387
930.372	11490
930.477	11345
930.581	11543
930.685	11379
930.79	11254
930.894	11292
930.998	11197
931.103	11368
931.207	10984
931.311	10927
931.415	10881
931.519	10706
931.623	10656
