Data from test_V78500241_1274.txt Node
Date: Fri Mar 25 15:18:43 CST 2022
User: usil
Spectrometer: V785-0024
Trigger mode: 0
Integration Time (sec): 4.000000E-1
Scans to average: 1
Nonlinearity correction enabled: false
Boxcar width: 0
Storing dark spectrum: false
XAxis mode: Wavelengths
Number of Pixels in Spectrum: 1024
>>>>>Begin Spectral Data<<<<<
801.071	28055
801.214	27816
801.356	27698
801.499	27656
801.641	27488
801.783	27583
801.926	27618
802.068	27564
802.211	27473
802.353	27405
802.496	27230
802.638	27192
802.78	27233
802.923	27138
803.065	27051
803.208	27135
803.35	27275
803.492	27317
803.635	27359
803.777	27226
803.919	27450
804.061	27812
804.204	27526
804.346	27393
804.488	27275
804.63	27458
804.773	27401
804.915	27447
805.057	27542
805.199	27572
805.341	27652
805.483	27519
805.626	27420
805.768	27553
805.91	27564
806.052	27656
806.194	27485
806.336	27739
806.478	27633
806.62	27610
806.762	27766
806.904	27793
807.046	28109
807.188	27876
807.33	27998
807.472	28051
807.614	27907
807.756	27873
807.898	27770
808.04	27819
808.182	27854
808.324	28002
808.465	27755
808.607	28128
808.749	28219
808.891	28382
809.033	28325
809.174	28261
809.316	28276
809.458	28280
809.6	28265
809.741	28356
809.883	28379
810.025	28531
810.166	28679
810.308	28424
810.45	28542
810.591	28360
810.733	28329
810.875	28253
811.016	28196
811.158	28223
811.299	28207
811.441	28504
811.582	28455
811.724	28124
811.865	28090
812.007	28166
812.148	28177
812.29	28112
812.431	28325
812.573	28588
812.714	28649
812.855	28866
812.997	28896
813.138	29033
813.279	28831
813.421	28816
813.562	28744
813.703	28538
813.845	28485
813.986	28246
814.127	28101
814.268	28025
814.41	27903
814.551	27930
814.692	27979
814.833	27854
814.974	27884
815.115	27907
815.256	27759
815.397	27899
815.539	27778
815.68	27724
815.821	27705
815.962	27614
816.103	27755
816.244	27781
816.385	27667
816.526	27420
816.666	27374
816.807	27313
816.948	27226
817.089	27348
817.23	27283
817.371	27260
817.512	27165
817.653	27386
817.793	27077
817.934	27336
818.075	27291
818.216	27306
818.356	27260
818.497	27009
818.638	27146
818.778	27039
818.919	26952
819.06	27104
819.2	27131
819.341	27317
819.481	27195
819.622	27287
819.762	27507
819.903	27515
820.043	27431
820.184	27458
820.324	27397
820.465	27473
820.605	27408
820.746	27233
820.886	27256
821.026	27363
821.167	27317
821.307	27363
821.447	27142
821.588	27218
821.728	27074
821.868	26933
822.008	26720
822.149	26834
822.289	26811
822.429	26511
822.569	26412
822.709	26434
822.849	26324
822.99	26339
823.13	26145
823.27	26149
823.41	26043
823.55	25742
823.69	26142
823.83	25963
823.97	25955
824.11	25807
824.25	25807
824.389	25917
824.529	26005
824.669	26012
824.809	26081
824.949	26065
825.089	25966
825.228	25978
825.368	25814
825.508	25734
825.648	25677
825.787	25681
825.927	25936
826.067	25780
826.206	25772
826.346	25803
826.485	25807
826.625	25715
826.765	25963
826.904	25746
827.044	25563
827.183	25472
827.323	25468
827.462	25609
827.601	25518
827.741	25502
827.88	25468
828.02	25259
828.159	25434
828.298	25468
828.437	25514
828.577	25388
828.716	25613
828.855	25308
828.994	25308
829.134	25209
829.273	25274
829.412	25076
829.551	25038
829.69	25213
829.829	25107
829.968	25209
830.107	25255
830.246	25137
830.385	25217
830.524	25209
830.663	24913
830.802	24814
830.941	24764
831.08	24821
831.219	24833
831.357	24882
831.496	25080
831.635	24833
831.774	24688
831.913	24692
832.051	24623
832.19	24612
832.329	24768
832.467	24410
832.606	24407
832.744	24418
832.883	24388
833.022	24452
833.16	24410
833.299	24426
833.437	24490
833.576	24502
833.714	24574
833.852	24639
833.991	24608
834.129	24578
834.267	24734
834.406	24608
834.544	24547
834.682	24745
834.821	24502
834.959	24635
835.097	24441
835.235	24536
835.373	24528
835.511	24502
835.65	24372
835.788	24410
835.926	24338
836.064	24327
836.202	24239
836.34	24388
836.478	24486
836.615	24273
836.753	24365
836.891	24388
837.029	24403
837.167	24178
837.305	24281
837.443	24239
837.58	24140
837.718	24296
837.856	24319
837.993	24178
838.131	24228
838.269	24007
838.406	24190
838.544	24102
838.681	23927
838.819	23798
838.956	23672
839.094	23646
839.231	23638
839.369	23752
839.506	24102
839.643	23893
839.781	23558
839.918	23547
840.055	23695
840.193	23729
840.33	23668
840.467	23611
840.604	23630
840.742	23824
840.879	23398
841.016	23486
841.153	23535
841.29	23733
841.427	23554
841.564	23543
841.701	23566
841.838	23467
841.975	23463
842.112	23490
842.249	23440
842.385	23372
842.522	23516
842.659	23273
842.796	23353
842.933	23364
843.069	23353
843.206	23208
843.343	23315
843.479	23269
843.616	23284
843.752	23185
843.889	23147
844.025	23284
844.162	23193
844.298	23250
844.435	23197
844.571	23117
844.708	23216
844.844	23318
844.98	23231
845.117	23239
845.253	23178
845.389	22968
845.525	23033
845.661	22987
845.798	22892
845.934	22869
846.07	22759
846.206	22953
846.342	22904
846.478	22790
846.614	22656
846.75	22436
846.886	22538
847.022	22691
847.158	22565
847.294	22660
847.429	22706
847.565	22580
847.701	22839
847.837	22181
847.972	22257
848.108	22299
848.244	22329
848.379	22177
848.515	22215
848.65	22268
848.786	22215
848.921	22086
849.057	22310
849.192	22367
849.328	22284
849.463	22200
849.598	22090
849.734	22055
849.869	22059
850.004	21930
850.14	22093
850.275	21975
850.41	21888
850.545	21895
850.68	21873
850.815	21968
850.95	21953
851.085	22158
851.22	22002
851.355	21945
851.49	21895
851.625	21941
851.76	21915
851.895	21838
852.03	21831
852.165	21876
852.299	21918
852.434	21960
852.569	21880
852.703	22006
852.838	22029
852.973	22082
853.107	22154
853.242	21930
853.376	21827
853.511	21679
853.645	21701
853.78	21789
853.914	21808
854.048	21652
854.183	21816
854.317	21717
854.451	21972
854.585	21804
854.72	21873
854.854	21785
854.988	21682
855.122	21675
855.256	21663
855.39	21682
855.524	21705
855.658	21747
855.792	21823
855.926	21808
856.06	21816
856.194	21751
856.327	21759
856.461	21739
856.595	21751
856.729	21701
856.862	21915
856.996	21755
857.13	21907
857.263	21850
857.397	21789
857.53	21888
857.664	21648
857.797	21812
857.931	21926
858.064	21835
858.197	21895
858.331	21766
858.464	21675
858.597	21713
858.731	21724
858.864	21724
858.997	21720
859.13	21759
859.263	21755
859.396	21766
859.529	21789
859.662	21800
859.795	21576
859.928	21808
860.061	21857
860.194	22029
860.327	21812
860.46	21762
860.592	21819
860.725	21899
860.858	21888
860.99	21816
861.123	21652
861.256	21751
861.388	21793
861.521	22394
861.653	21606
861.786	21564
861.918	21583
862.05	21637
862.183	21682
862.315	21671
862.447	21819
862.58	21705
862.712	21344
862.844	21431
862.976	21515
863.108	21488
863.24	21861
863.372	21416
863.504	21389
863.636	21450
863.768	21408
863.9	21382
864.032	21374
864.164	21272
864.296	21431
864.428	21469
864.559	21652
864.691	21496
864.823	21526
864.954	21450
865.086	21424
865.217	21363
865.349	21256
865.48	21393
865.612	21310
865.743	21496
865.875	21382
866.006	21283
866.137	21439
866.269	21344
866.4	21302
866.531	21237
866.662	21272
866.793	21173
866.924	21260
867.055	21245
867.186	21359
867.317	21214
867.448	21146
867.579	21336
867.71	21093
867.841	21176
867.972	21329
868.103	21203
868.233	21355
868.364	21192
868.495	21363
868.625	21496
868.756	21637
868.886	21431
869.017	21401
869.147	21507
869.278	21507
869.408	21591
869.539	21523
869.669	21485
869.799	21511
869.929	21743
870.06	21549
870.19	21880
870.32	21892
870.45	21854
870.58	21975
870.71	21876
870.84	21941
870.97	21964
871.1	21998
871.23	22120
871.36	22173
871.489	21964
871.619	22139
871.749	21911
871.879	22173
872.008	22162
872.138	22150
872.267	22181
872.397	21949
872.526	21903
872.656	21998
872.785	21972
872.915	22067
873.044	22139
873.173	22097
873.303	22131
873.432	22230
873.561	22185
873.69	22078
873.819	22082
873.948	22181
874.077	22036
874.206	22082
874.335	22120
874.464	22291
874.593	22375
874.722	22253
874.851	22314
874.979	22417
875.108	22325
875.237	22268
875.365	22223
875.494	22230
875.623	22417
875.751	22367
875.88	22337
876.008	22382
876.136	22424
876.265	22736
876.393	22778
876.521	22740
876.65	22854
876.778	22637
876.906	22653
877.034	22752
877.162	22672
877.29	22622
877.418	22630
877.546	22717
877.674	22626
877.802	22672
877.93	22634
878.058	22550
878.185	22565
878.313	22634
878.441	22672
878.568	22519
878.696	22607
878.824	22691
878.951	22683
879.079	22885
879.206	22889
879.333	22698
879.461	22759
879.588	22774
879.715	22843
879.842	22930
879.97	22816
880.097	22599
880.224	22516
880.351	22497
880.478	22504
880.605	22447
880.732	22500
880.859	22706
880.986	22455
881.112	22500
881.239	22451
881.366	22325
881.493	21991
881.619	22051
881.746	22036
881.872	22150
881.999	21941
882.125	22032
882.252	22021
882.378	21987
882.505	22055
882.631	21983
882.757	21781
882.883	21915
883.01	21770
883.136	21789
883.262	21675
883.388	21545
883.514	21728
883.64	21838
883.766	21728
883.892	21675
884.018	21663
884.143	21736
884.269	21728
884.395	21523
884.52	21386
884.646	21435
884.772	21439
884.897	21306
885.023	21439
885.148	21492
885.274	21591
885.399	21511
885.524	21359
885.65	21408
885.775	21370
885.9	21351
886.025	21603
886.15	21481
886.275	21237
886.4	21313
886.525	21378
886.65	21428
886.775	21306
886.9	21526
887.025	21610
887.149	21313
887.274	21313
887.399	21123
887.523	21055
887.648	21116
887.773	20944
887.897	21241
888.021	21272
888.146	21173
888.27	21260
888.395	21180
888.519	21226
888.643	21218
888.767	21184
888.891	21020
889.015	20891
889.139	21180
889.263	20830
889.387	21074
889.511	21138
889.635	21039
889.759	20979
889.883	21005
890.006	21047
890.13	21024
890.254	20868
890.377	20876
890.501	20724
890.624	20804
890.748	20773
890.871	20659
890.995	20651
891.118	20537
891.241	20473
891.364	20571
891.488	20659
891.611	20457
891.734	20594
891.857	20602
891.98	20431
892.103	20587
892.226	20613
892.349	20328
892.471	20324
892.594	20442
892.717	20541
892.839	20465
892.962	20503
893.085	20530
893.207	20457
893.33	20278
893.452	20347
893.575	20442
893.697	20480
893.819	20442
893.941	20522
894.064	20579
894.186	20320
894.308	20434
894.43	20530
894.552	20552
894.674	20564
894.796	20256
894.918	20503
895.04	20381
895.161	20476
895.283	20389
895.405	20294
895.526	20423
895.648	20351
895.769	20594
895.891	20495
896.012	20419
896.134	20480
896.255	20332
896.376	20366
896.498	20419
896.619	20431
896.74	20431
896.861	20530
896.982	20769
897.103	20792
897.224	20598
897.345	20552
897.466	20594
897.587	20648
897.708	20788
897.828	20629
897.949	20609
898.07	20465
898.19	20549
898.311	20568
898.431	20579
898.552	20579
898.672	20655
898.792	20651
898.913	20609
899.033	20507
899.153	20412
899.273	20286
899.393	20438
899.513	20351
899.633	20408
899.753	20324
899.873	20244
899.993	20328
900.113	20381
900.232	20415
900.352	20336
900.472	20176
900.591	20039
900.711	20168
900.83	20107
900.95	20218
901.069	20138
901.189	19951
901.308	19734
901.427	19693
901.546	19658
901.665	19689
901.784	19704
901.904	19563
902.023	19476
902.141	19369
902.26	19217
902.379	19377
902.498	19293
902.617	19175
902.735	19259
902.854	19171
902.973	19156
903.091	18837
903.21	18829
903.328	18867
903.446	18825
903.565	18730
903.683	18760
903.801	18593
903.919	18719
904.038	18635
904.156	18506
904.274	18559
904.392	18426
904.51	18486
904.627	18467
904.745	18513
904.863	18467
904.981	18391
905.098	18178
905.216	18171
905.334	18228
905.451	18289
905.569	18110
905.686	18125
905.803	18087
905.921	17870
906.038	17996
906.155	17977
906.272	17798
906.389	17851
906.506	17737
906.623	17703
906.74	17707
906.857	17596
906.974	17581
907.091	17642
907.208	17805
907.324	17764
907.441	17573
907.557	17444
907.674	17436
907.79	17360
907.907	17433
908.023	17395
908.139	17360
908.256	17440
908.372	17220
908.488	17258
908.604	17181
908.72	17083
908.836	17132
908.952	17102
909.068	17052
909.184	17132
909.3	17067
909.415	17189
909.531	17041
909.647	16835
909.762	16774
909.878	16736
909.993	16790
910.108	16824
910.224	16748
910.339	16835
910.454	16603
910.57	16611
910.685	16489
910.8	16782
910.915	16797
911.03	16615
911.145	16500
911.259	16424
911.374	16470
911.489	16226
911.604	16348
911.718	16131
911.833	16234
911.947	16055
912.062	16036
912.176	16078
912.291	16162
912.405	16147
912.519	16356
912.633	16242
912.748	16173
912.862	16135
912.976	15869
913.09	15876
913.204	15953
913.318	15960
913.431	16029
913.545	16010
913.659	16010
913.772	15846
913.886	15800
914	15785
914.113	15857
914.226	15823
914.34	15854
914.453	15663
914.566	15850
914.68	15724
914.793	15637
914.906	15473
915.019	15336
915.132	15363
915.245	15344
915.358	15443
915.47	15310
915.583	15359
915.696	15329
915.809	15485
915.921	15519
916.034	15332
916.146	15214
916.259	15169
916.371	15340
916.483	15279
916.595	15146
916.708	15203
916.82	15180
916.932	15047
917.044	15097
917.156	15123
917.268	15001
917.38	15005
917.491	14975
917.603	15043
917.715	15097
917.826	15043
917.938	14925
918.049	14861
918.161	14971
918.272	15085
918.384	15097
918.495	14887
918.606	14754
918.717	14727
918.828	14800
918.939	14765
919.05	14689
919.161	14758
919.272	14564
919.383	14606
919.494	14701
919.604	14925
919.715	14830
919.826	14640
919.936	14693
920.047	14735
920.157	14629
920.267	14967
920.378	14693
920.488	14724
920.598	14868
920.708	15116
920.818	14906
920.928	14861
921.038	15005
921.148	14838
921.258	14594
921.368	14625
921.477	14556
921.587	14351
921.697	14286
921.806	14530
921.916	14278
922.025	14210
922.134	14046
922.244	14069
922.353	14111
922.462	13898
922.571	13830
922.68	13723
922.789	13746
922.898	13788
923.007	13639
923.116	13689
923.224	13753
923.333	13696
923.442	13613
923.55	13472
923.659	13518
923.767	13712
923.876	13495
923.984	13655
924.092	13445
924.201	13415
924.309	13369
924.417	13476
924.525	13438
924.633	13377
924.741	14195
924.849	13183
924.956	13297
925.064	13122
925.172	13088
925.279	13076
925.387	13194
925.494	13156
925.602	13236
925.709	13187
925.816	13053
925.924	13091
926.031	13099
926.138	13053
926.245	13122
926.352	12977
926.459	13076
926.566	13099
926.673	12928
926.779	12795
926.886	12909
926.993	12707
927.099	12703
927.206	12715
927.312	12658
927.419	12684
927.525	12563
927.631	12662
927.737	12662
927.843	12506
927.95	12429
928.056	12445
928.162	12513
928.267	12593
928.373	13149
928.479	12563
928.585	12266
928.69	12369
928.796	12525
928.901	12380
929.007	12277
929.112	12266
929.218	12300
929.323	12300
929.428	12247
929.533	12357
929.638	12144
929.743	12171
929.848	12201
929.953	12209
930.058	12060
930.163	11874
930.267	11840
930.372	12083
930.477	11878
930.581	12057
930.685	11954
930.79	11817
930.894	11897
930.998	11790
931.103	11836
931.207	11596
931.311	11414
931.415	11368
931.519	11239
931.623	11178
