Data from test_V78500241_3529.txt Node
Date: Fri Mar 25 15:34:25 CST 2022
User: usil
Spectrometer: V785-0024
Trigger mode: 0
Integration Time (sec): 4.000000E-1
Scans to average: 1
Nonlinearity correction enabled: false
Boxcar width: 0
Storing dark spectrum: false
XAxis mode: Wavelengths
Number of Pixels in Spectrum: 1024
>>>>>Begin Spectral Data<<<<<
801.071	27287
801.214	27313
801.356	26990
801.499	27024
801.641	26963
801.783	26986
801.926	26956
802.068	26971
802.211	26815
802.353	26902
802.496	26590
802.638	26617
802.78	26476
802.923	26446
803.065	26362
803.208	26442
803.35	26484
803.492	26651
803.635	26705
803.777	26655
803.919	26853
804.061	27203
804.204	26811
804.346	26686
804.488	26663
804.63	26682
804.773	26488
804.915	26914
805.057	26853
805.199	26735
805.341	26735
805.483	26940
805.626	26883
805.768	26792
805.91	26853
806.052	26929
806.194	26727
806.336	26925
806.478	26880
806.62	26994
806.762	27135
806.904	27108
807.046	27325
807.188	27275
807.33	27313
807.472	27321
807.614	27138
807.756	27310
807.898	26982
808.04	27039
808.182	26944
808.324	27188
808.465	27180
808.607	27241
808.749	27405
808.891	27500
809.033	27717
809.174	27519
809.316	27348
809.458	27450
809.6	27374
809.741	27431
809.883	27473
810.025	27762
810.166	27603
810.308	27686
810.45	27747
810.591	27637
810.733	27523
810.875	27397
811.016	27344
811.158	27332
811.299	27466
811.441	27572
811.582	27500
811.724	27382
811.865	27397
812.007	27462
812.148	27393
812.29	27469
812.431	27553
812.573	27739
812.714	27831
812.855	27880
812.997	27907
813.138	28154
813.279	28150
813.421	27911
813.562	27968
813.703	27728
813.845	27690
813.986	27279
814.127	27291
814.268	27116
814.41	27142
814.551	27127
814.692	27233
814.833	27138
814.974	27009
815.115	27123
815.256	27001
815.397	26861
815.539	27017
815.68	26975
815.821	26701
815.962	26849
816.103	26819
816.244	26678
816.385	26758
816.526	26609
816.666	26617
816.807	26522
816.948	26423
817.089	26476
817.23	26282
817.371	26328
817.512	26298
817.653	26317
817.793	26355
817.934	26343
818.075	26377
818.216	26453
818.356	26317
818.497	26298
818.638	26221
818.778	26016
818.919	26153
819.06	26187
819.2	26290
819.341	26263
819.481	26332
819.622	26579
819.762	26743
819.903	26689
820.043	26640
820.184	26434
820.324	26457
820.465	26556
820.605	26587
820.746	26469
820.886	26240
821.026	26511
821.167	26320
821.307	26404
821.447	26408
821.588	26305
821.728	26119
821.868	25955
822.008	25856
822.149	25947
822.289	25852
822.429	25662
822.569	25571
822.709	25552
822.849	25445
822.99	25320
823.13	25308
823.27	25384
823.41	25069
823.55	25034
823.69	25126
823.83	25065
823.97	25217
824.11	24882
824.25	24962
824.389	24943
824.529	24951
824.669	25046
824.809	25206
824.949	25137
825.089	25027
825.228	24970
825.368	24852
825.508	24913
825.648	24920
825.787	24878
825.927	24871
826.067	24825
826.206	24875
826.346	24894
826.485	24932
826.625	24905
826.765	24970
826.904	24901
827.044	24722
827.183	24715
827.323	24631
827.462	24719
827.601	24635
827.741	24483
827.88	24654
828.02	24422
828.159	24422
828.298	24673
828.437	24726
828.577	24395
828.716	24604
828.855	24559
828.994	24304
829.134	24380
829.273	24292
829.412	24281
829.551	24334
829.69	24251
829.829	24372
829.968	24338
830.107	24346
830.246	24239
830.385	24315
830.524	24190
830.663	24125
830.802	24072
830.941	23908
831.08	23878
831.219	23882
831.357	24034
831.496	24102
831.635	23847
831.774	23779
831.913	23786
832.051	23657
832.19	23531
832.329	23707
832.467	23630
832.606	23482
832.744	23520
832.883	23478
833.022	23505
833.16	23581
833.299	23539
833.437	23596
833.576	23512
833.714	23646
833.852	23703
833.991	23798
834.129	23760
834.267	23729
834.406	23695
834.544	23695
834.682	23619
834.821	23535
834.959	23756
835.097	23817
835.235	23707
835.373	23585
835.511	23672
835.65	23493
835.788	23516
835.926	23520
836.064	23402
836.202	23353
836.34	23356
836.478	23615
836.615	23398
836.753	23577
836.891	23577
837.029	23486
837.167	23459
837.305	23387
837.443	23376
837.58	23334
837.718	23486
837.856	23288
837.993	23277
838.131	23227
838.269	23208
838.406	23265
838.544	23140
838.681	23018
838.819	22980
838.956	22934
839.094	22911
839.231	22858
839.369	23006
839.506	23197
839.643	23064
839.781	22835
839.918	22782
840.055	22767
840.193	22778
840.33	22850
840.467	22831
840.604	22729
840.742	23109
840.879	22542
841.016	22755
841.153	22584
841.29	22797
841.427	22778
841.564	22965
841.701	22847
841.838	22721
841.975	22717
842.112	22561
842.249	22592
842.385	22481
842.522	22782
842.659	22428
842.796	22485
842.933	22577
843.069	22485
843.206	22535
843.343	22607
843.479	22535
843.616	22630
843.752	22344
843.889	22398
844.025	22405
844.162	22329
844.298	22436
844.435	22314
844.571	22257
844.708	22246
844.844	22485
844.98	22432
845.117	22538
845.253	22306
845.389	22139
845.525	22325
845.661	22226
845.798	22078
845.934	22105
846.07	21937
846.206	22158
846.342	22192
846.478	22017
846.614	21759
846.75	21835
846.886	21785
847.022	21797
847.158	21861
847.294	21819
847.429	21808
847.565	21816
847.701	22177
847.837	21656
847.972	21443
848.108	21568
848.244	21595
848.379	21443
848.515	21386
848.65	21310
848.786	21416
848.921	21431
849.057	21397
849.192	21507
849.328	21424
849.463	21298
849.598	21306
849.734	21192
849.869	21287
850.004	21093
850.14	21218
850.275	21188
850.41	21104
850.545	21135
850.68	21005
850.815	21173
850.95	21020
851.085	21363
851.22	21363
851.355	21184
851.49	21116
851.625	21074
851.76	21089
851.895	21013
852.03	21047
852.165	21135
852.299	21157
852.434	21195
852.569	21173
852.703	21226
852.838	21173
852.973	21214
853.107	21138
853.242	21036
853.376	20895
853.511	20823
853.645	20750
853.78	21013
853.914	20925
854.048	20952
854.183	20921
854.317	20975
854.451	21165
854.585	20986
854.72	20986
854.854	20948
854.988	20880
855.122	21024
855.256	20788
855.39	21028
855.524	21028
855.658	21077
855.792	20971
855.926	21070
856.06	21077
856.194	21096
856.327	20845
856.461	20857
856.595	20895
856.729	20914
856.862	21112
856.996	20960
857.13	21017
857.263	21081
857.397	20960
857.53	20952
857.664	20986
857.797	20952
857.931	21074
858.064	20998
858.197	21005
858.331	20918
858.464	20887
858.597	20845
858.731	20952
858.864	20944
858.997	20899
859.13	21070
859.263	20960
859.396	20944
859.529	20853
859.662	20925
859.795	20906
859.928	20910
860.061	21028
860.194	21074
860.327	21051
860.46	21039
860.592	21074
860.725	20971
860.858	21047
860.99	20899
861.123	20826
861.256	20743
861.388	20944
861.521	21762
861.653	20899
861.786	20693
861.918	20804
862.05	20902
862.183	20902
862.315	20906
862.447	20937
862.58	20845
862.712	20613
862.844	20606
862.976	20845
863.108	20754
863.24	21146
863.372	20609
863.504	20724
863.636	20590
863.768	20648
863.9	20564
864.032	20609
864.164	20575
864.296	20651
864.428	20834
864.559	20750
864.691	20731
864.823	20800
864.954	20693
865.086	20625
865.217	20636
865.349	20434
865.48	20632
865.612	20598
865.743	20625
865.875	20533
866.006	20530
866.137	20530
866.269	20549
866.4	20549
866.531	20590
866.662	20484
866.793	20526
866.924	20530
867.055	20697
867.186	20476
867.317	20415
867.448	20552
867.579	20556
867.71	20294
867.841	20480
867.972	20442
868.103	20530
868.233	20556
868.364	20579
868.495	20644
868.625	20708
868.756	20826
868.886	20518
869.017	20785
869.147	20826
869.278	20811
869.408	20830
869.539	20762
869.669	20876
869.799	20781
869.929	20800
870.06	20895
870.19	21055
870.32	20994
870.45	21036
870.58	21222
870.71	21184
870.84	21089
870.97	21119
871.1	21146
871.23	21233
871.36	21344
871.489	21237
871.619	21336
871.749	21401
871.879	21450
872.008	21359
872.138	21393
872.267	21272
872.397	21135
872.526	21138
872.656	21142
872.785	21150
872.915	21412
873.044	21469
873.173	21359
873.303	21397
873.432	21477
873.561	21576
873.69	21378
873.819	21443
873.948	21469
874.077	21397
874.206	21344
874.335	21344
874.464	21363
874.593	21553
874.722	21614
874.851	21568
874.979	21667
875.108	21526
875.237	21622
875.365	21538
875.494	21511
875.623	21747
875.751	21633
875.88	21762
876.008	21774
876.136	21823
876.265	22051
876.393	22048
876.521	22048
876.65	22086
876.778	21998
876.906	21937
877.034	21926
877.162	22048
877.29	21895
877.418	22044
877.546	22036
877.674	21979
877.802	21934
877.93	21884
878.058	21941
878.185	21876
878.313	21838
878.441	22082
878.568	21705
878.696	22006
878.824	22017
878.951	22051
879.079	22166
879.206	22310
879.333	22128
879.461	21922
879.588	22135
879.715	22147
879.842	22306
879.97	21998
880.097	21778
880.224	21774
880.351	21812
880.478	21831
880.605	21835
880.732	21846
880.859	21968
880.986	21846
881.112	21770
881.239	21660
881.366	21519
881.493	21545
881.619	21378
881.746	21420
881.872	21351
881.999	21317
882.125	21302
882.252	21351
882.378	21405
882.505	21439
882.631	21256
882.757	21043
882.883	21093
883.01	21028
883.136	20933
883.262	20979
883.388	20921
883.514	21051
883.64	21081
883.766	20899
883.892	20826
884.018	20937
884.143	20891
884.269	20990
884.395	20800
884.52	20735
884.646	20758
884.772	20689
884.897	20667
885.023	20663
885.148	20811
885.274	20838
885.399	20804
885.524	20663
885.65	20670
885.775	20788
885.9	20625
886.025	20918
886.15	20708
886.275	20659
886.4	20609
886.525	20697
886.65	20663
886.775	20617
886.9	20853
887.025	20895
887.149	20655
887.274	20492
887.399	20503
887.523	20385
887.648	20613
887.773	20423
887.897	20625
888.021	20465
888.146	20377
888.27	20651
888.395	20571
888.519	20530
888.643	20492
888.767	20503
888.891	20339
889.015	20339
889.139	20263
889.263	20362
889.387	20469
889.511	20450
889.635	20370
889.759	20259
889.883	20320
890.006	20252
890.13	20370
890.254	20248
890.377	20229
890.501	19982
890.624	19951
890.748	20134
890.871	20008
890.995	19761
891.118	19818
891.241	19868
891.364	19909
891.488	19986
891.611	19879
891.734	19887
891.857	20005
891.98	19784
892.103	19906
892.226	19868
892.349	19826
892.471	19670
892.594	19704
892.717	19795
892.839	19597
892.962	19875
893.085	19833
893.207	19833
893.33	19635
893.452	19826
893.575	19902
893.697	19750
893.819	19879
893.941	19940
894.064	19940
894.186	19746
894.308	19632
894.43	19860
894.552	19986
894.674	19864
894.796	19563
894.918	19811
895.04	19620
895.161	19936
895.283	19822
895.405	19712
895.526	19830
895.648	19769
895.769	19841
895.891	19860
896.012	19898
896.134	19845
896.255	19833
896.376	19753
896.498	19784
896.619	19894
896.74	19822
896.861	19830
896.982	19997
897.103	20343
897.224	20020
897.345	20043
897.466	19814
897.587	19993
897.708	20054
897.828	20035
897.949	19936
898.07	19852
898.19	19837
898.311	20035
898.431	20008
898.552	20001
898.672	20122
898.792	20107
898.913	20069
899.033	19974
899.153	19742
899.273	19780
899.393	19814
899.513	19795
899.633	19674
899.753	19902
899.873	19571
899.993	19898
900.113	19734
900.232	19677
900.352	19738
900.472	19556
900.591	19533
900.711	19533
900.83	19434
900.95	19635
901.069	19567
901.189	19324
901.308	19209
901.427	19183
901.546	19164
901.665	19164
901.784	19171
901.904	18977
902.023	18848
902.141	18681
902.26	18707
902.379	18814
902.498	18734
902.617	18650
902.735	18665
902.854	18479
902.973	18612
903.091	18308
903.21	18308
903.328	18327
903.446	18178
903.565	18213
903.683	18083
903.801	18038
903.919	18171
904.038	17996
904.156	17901
904.274	18041
904.392	17935
904.51	17885
904.627	17874
904.745	17916
904.863	17942
904.981	17570
905.098	17554
905.216	17501
905.334	17592
905.451	17596
905.569	17566
905.686	17684
905.803	17566
905.921	17360
906.038	17528
906.155	17398
906.272	17288
906.389	17231
906.506	17170
906.623	17048
906.74	17052
906.857	16919
906.974	16946
907.091	17181
907.208	17231
907.324	17121
907.441	17045
907.557	16889
907.674	16850
907.79	16721
907.907	16809
908.023	16961
908.139	16858
908.256	16748
908.372	16736
908.488	16691
908.604	16637
908.72	16622
908.836	16550
908.952	16493
909.068	16611
909.184	16592
909.3	16523
909.415	16603
909.531	16523
909.647	16329
909.762	16329
909.878	16287
909.993	16318
910.108	16329
910.224	16246
910.339	16154
910.454	16063
910.57	16093
910.685	16051
910.8	16238
910.915	16185
911.03	16105
911.145	15907
911.259	15865
911.374	15884
911.489	15793
911.604	15732
911.718	15606
911.833	15610
911.947	15572
912.062	15519
912.176	15671
912.291	15637
912.405	15667
912.519	15857
912.633	15808
912.748	15622
912.862	15561
912.976	15420
913.09	15264
913.204	15458
913.318	15370
913.431	15519
913.545	15477
913.659	15591
913.772	15401
913.886	15348
914	15195
914.113	15287
914.226	15283
914.34	15302
914.453	15135
914.566	15382
914.68	15169
914.793	15135
914.906	14925
915.019	14868
915.132	14796
915.245	14735
915.358	14796
915.47	14872
915.583	14781
915.696	14914
915.809	14944
915.921	15013
916.034	14781
916.146	14667
916.259	14727
916.371	14834
916.483	14735
916.595	14720
916.708	14644
916.82	14625
916.932	14701
917.044	14644
917.156	14636
917.268	14450
917.38	14575
917.491	14465
917.603	14484
917.715	14556
917.826	14625
917.938	14461
918.049	14355
918.161	14537
918.272	14590
918.384	14693
918.495	14571
918.606	14336
918.717	14221
918.828	14351
918.939	14275
919.05	14172
919.161	14206
919.272	14043
919.383	14115
919.494	14317
919.604	14499
919.715	14244
919.826	14123
919.936	14263
920.047	14278
920.157	14290
920.267	14423
920.378	14244
920.488	14115
920.598	14446
920.708	14465
920.818	14347
920.928	14275
921.038	14552
921.148	14423
921.258	14199
921.368	14081
921.477	14046
921.587	13982
921.697	13898
921.806	13982
921.916	13879
922.025	13727
922.134	13609
922.244	13594
922.353	13636
922.462	13510
922.571	13419
922.68	13327
922.789	13274
922.898	13369
923.007	13278
923.116	13293
923.224	13217
923.333	13175
923.442	13171
923.55	13118
923.659	13145
923.767	13209
923.876	13118
923.984	13091
924.092	12939
924.201	13156
924.309	13103
924.417	13023
924.525	12890
924.633	12989
924.741	13655
924.849	12760
924.956	12886
925.064	12688
925.172	12532
925.279	12681
925.387	12681
925.494	12745
925.602	12821
925.709	12703
925.816	12536
925.924	12631
926.031	12768
926.138	12703
926.245	12642
926.352	12642
926.459	12627
926.566	12669
926.673	12635
926.779	12479
926.886	12445
926.993	12270
927.099	12216
927.206	12254
927.312	12224
927.419	12262
927.525	12281
927.631	12372
927.737	12197
927.843	12167
927.95	11973
928.056	12091
928.162	12083
928.267	12178
928.373	12612
928.479	12201
928.585	11946
928.69	12125
928.796	12053
928.901	11916
929.007	11813
929.112	12068
929.218	11927
929.323	11866
929.428	11893
929.533	11999
929.638	11722
929.743	11824
929.848	11832
929.953	11889
930.058	11756
930.163	11547
930.267	11524
930.372	11646
930.477	11444
930.581	11722
930.685	11547
930.79	11398
930.894	11425
930.998	11436
931.103	11539
931.207	11162
931.311	11056
931.415	11006
931.519	10900
931.623	10824
