Data from test_V78500241_1364.txt Node
Date: Fri Mar 25 15:19:21 CST 2022
User: usil
Spectrometer: V785-0024
Trigger mode: 0
Integration Time (sec): 4.000000E-1
Scans to average: 1
Nonlinearity correction enabled: false
Boxcar width: 0
Storing dark spectrum: false
XAxis mode: Wavelengths
Number of Pixels in Spectrum: 1024
>>>>>Begin Spectral Data<<<<<
801.071	28070
801.214	28086
801.356	27827
801.499	27888
801.641	27561
801.783	27743
801.926	27747
802.068	27701
802.211	27583
802.353	27454
802.496	27534
802.638	27287
802.78	27321
802.923	27306
803.065	27154
803.208	27161
803.35	27302
803.492	27439
803.635	27431
803.777	27374
803.919	27504
804.061	27812
804.204	27580
804.346	27538
804.488	27481
804.63	27553
804.773	27393
804.915	27641
805.057	27720
805.199	27488
805.341	27755
805.483	27610
805.626	27770
805.768	27614
805.91	27671
806.052	27766
806.194	27629
806.336	27869
806.478	27808
806.62	27842
806.762	27907
806.904	27884
807.046	28128
807.188	28257
807.33	28048
807.472	28158
807.614	28059
807.756	28147
807.898	27945
808.04	27956
808.182	27876
808.324	27934
808.465	27930
808.607	28147
808.749	28287
808.891	28493
809.033	28478
809.174	28413
809.316	28265
809.458	28371
809.6	28325
809.741	28325
809.883	28394
810.025	28607
810.166	28649
810.308	28733
810.45	28557
810.591	28527
810.733	28363
810.875	28371
811.016	28177
811.158	28253
811.299	28455
811.441	28535
811.582	28489
811.724	28379
811.865	28382
812.007	28382
812.148	28272
812.29	28238
812.431	28569
812.573	28687
812.714	28763
812.855	28801
812.997	28968
813.138	29086
813.279	28999
813.421	28919
813.562	28904
813.703	28645
813.845	28618
813.986	28386
814.127	28029
814.268	28021
814.41	28101
814.551	28013
814.692	28051
814.833	27987
814.974	27975
815.115	28017
815.256	27850
815.397	27930
815.539	27903
815.68	27869
815.821	27869
815.962	27880
816.103	27880
816.244	27743
816.385	27652
816.526	27701
816.666	27233
816.807	27264
816.948	27397
817.089	27488
817.23	27389
817.371	27401
817.512	27359
817.653	27348
817.793	27173
817.934	27344
818.075	27424
818.216	27256
818.356	27340
818.497	27188
818.638	27104
818.778	27195
818.919	27112
819.06	27214
819.2	27135
819.341	27283
819.481	27389
819.622	27477
819.762	27542
819.903	27591
820.043	27534
820.184	27412
820.324	27450
820.465	27641
820.605	27530
820.746	27530
820.886	27268
821.026	27405
821.167	27359
821.307	27481
821.447	27313
821.588	27313
821.728	27131
821.868	26948
822.008	26899
822.149	26815
822.289	26872
822.429	26522
822.569	26480
822.709	26404
822.849	26404
822.99	26492
823.13	26343
823.27	26301
823.41	26157
823.55	26069
823.69	26199
823.83	26153
823.97	26157
824.11	25921
824.25	25993
824.389	25986
824.529	26027
824.669	25986
824.809	26084
824.949	26031
825.089	26077
825.228	26142
825.368	25871
825.508	25833
825.648	25849
825.787	25944
825.927	25951
826.067	25849
826.206	25947
826.346	25772
826.485	26001
826.625	25890
826.765	25978
826.904	26050
827.044	25628
827.183	25613
827.323	25620
827.462	25616
827.601	25548
827.741	25453
827.88	25586
828.02	25483
828.159	25559
828.298	25647
828.437	25514
828.577	25548
828.716	25662
828.855	25407
828.994	25285
829.134	25240
829.273	25369
829.412	25190
829.551	25183
829.69	25228
829.829	25350
829.968	25350
830.107	25179
830.246	25251
830.385	25304
830.524	25194
830.663	25095
830.802	25046
830.941	24837
831.08	24840
831.219	24932
831.357	24814
831.496	25187
831.635	24970
831.774	24779
831.913	24749
832.051	24665
832.19	24768
832.329	24745
832.467	24601
832.606	24452
832.744	24551
832.883	24604
833.022	24498
833.16	24627
833.299	24635
833.437	24635
833.576	24711
833.714	24608
833.852	24707
833.991	24623
834.129	24764
834.267	24650
834.406	24665
834.544	24623
834.682	24525
834.821	24555
834.959	24753
835.097	24566
835.235	24779
835.373	24593
835.511	24681
835.65	24540
835.788	24384
835.926	24330
836.064	24247
836.202	24311
836.34	24521
836.478	24525
836.615	24429
836.753	24445
836.891	24441
837.029	24544
837.167	24399
837.305	24437
837.443	24216
837.58	24407
837.718	24357
837.856	24292
837.993	24102
838.131	24281
838.269	24315
838.406	24197
838.544	24091
838.681	23878
838.819	23999
838.956	23794
839.094	23771
839.231	23802
839.369	23813
839.506	24171
839.643	23992
839.781	23923
839.918	23611
840.055	23661
840.193	23707
840.33	23703
840.467	23722
840.604	23668
840.742	23878
840.879	23501
841.016	23657
841.153	23516
841.29	23748
841.427	23642
841.564	23684
841.701	23573
841.838	23490
841.975	23619
842.112	23653
842.249	23433
842.385	23307
842.522	23604
842.659	23349
842.796	23425
842.933	23493
843.069	23345
843.206	23383
843.343	23505
843.479	23486
843.616	23391
843.752	23337
843.889	23204
844.025	23368
844.162	23178
844.298	23269
844.435	23113
844.571	23109
844.708	23242
844.844	23353
844.98	23425
845.117	23200
845.253	23113
845.389	22900
845.525	23075
845.661	23064
845.798	22919
845.934	22961
846.07	22805
846.206	22866
846.342	23113
846.478	22847
846.614	22653
846.75	22637
846.886	22622
847.022	22740
847.158	22687
847.294	22607
847.429	22588
847.565	22653
847.701	22885
847.837	22371
847.972	22421
848.108	22512
848.244	22428
848.379	22333
848.515	22226
848.65	22303
848.786	22257
848.921	22295
849.057	22318
849.192	22234
849.328	22147
849.463	22280
849.598	22257
849.734	22082
849.869	22063
850.004	21998
850.14	22059
850.275	22025
850.41	21941
850.545	21918
850.68	21899
850.815	21972
850.95	22158
851.085	22139
851.22	22036
851.355	22067
851.49	21987
851.625	21873
851.76	22063
851.895	21926
852.03	21937
852.165	21964
852.299	21945
852.434	22067
852.569	22002
852.703	22090
852.838	22063
852.973	22150
853.107	22063
853.242	21793
853.376	21972
853.511	21766
853.645	21709
853.78	22017
853.914	21873
854.048	21827
854.183	21812
854.317	21823
854.451	22021
854.585	21831
854.72	21911
854.854	21812
854.988	21781
855.122	21865
855.256	21686
855.39	21816
855.524	21926
855.658	21835
855.792	21751
855.926	21816
856.06	21865
856.194	21926
856.327	21819
856.461	21812
856.595	21778
856.729	21797
856.862	21895
856.996	21983
857.13	21846
857.263	21998
857.397	21953
857.53	21789
857.664	21838
857.797	21835
857.931	21918
858.064	21884
858.197	21857
858.331	21736
858.464	21739
858.597	21637
858.731	21854
858.864	21778
858.997	21789
859.13	21793
859.263	21789
859.396	21880
859.529	21797
859.662	21816
859.795	21800
859.928	21835
860.061	22006
860.194	22048
860.327	21880
860.46	21918
860.592	21888
860.725	22036
860.858	21907
860.99	21774
861.123	21793
861.256	21720
861.388	21899
861.521	22375
861.653	21770
861.786	21576
861.918	21519
862.05	21739
862.183	21633
862.315	21816
862.447	21857
862.58	21720
862.712	21519
862.844	21511
862.976	21694
863.108	21595
863.24	22002
863.372	21473
863.504	21587
863.636	21447
863.768	21606
863.9	21424
864.032	21504
864.164	21488
864.296	21618
864.428	21709
864.559	21637
864.691	21663
864.823	21511
864.954	21614
865.086	21477
865.217	21374
865.349	21431
865.48	21454
865.612	21542
865.743	21435
865.875	21386
866.006	21351
866.137	21359
866.269	21462
866.4	21435
866.531	21313
866.662	21264
866.793	21252
866.924	21397
867.055	21291
867.186	21321
867.317	21332
867.448	21256
867.579	21317
867.71	21188
867.841	21275
867.972	21222
868.103	21439
868.233	21283
868.364	21382
868.495	21393
868.625	21557
868.756	21595
868.886	21515
869.017	21561
869.147	21690
869.278	21671
869.408	21648
869.539	21561
869.669	21679
869.799	21614
869.929	21743
870.06	21736
870.19	21911
870.32	21827
870.45	21835
870.58	21972
870.71	22074
870.84	22010
870.97	21998
871.1	22013
871.23	22181
871.36	22280
871.489	22169
871.619	22169
871.749	22131
871.879	22257
872.008	22249
872.138	22196
872.267	22204
872.397	22040
872.526	22059
872.656	21960
872.785	21983
872.915	22124
873.044	22318
873.173	22158
873.303	22253
873.432	22181
873.561	22295
873.69	22219
873.819	22086
873.948	22230
874.077	22242
874.206	22025
874.335	22246
874.464	22257
874.593	22398
874.722	22295
874.851	22424
874.979	22470
875.108	22459
875.237	22215
875.365	22303
875.494	22440
875.623	22470
875.751	22413
875.88	22398
876.008	22466
876.136	22596
876.265	22835
876.393	22908
876.521	22847
876.65	22957
876.778	22881
876.906	22649
877.034	22759
877.162	22725
877.29	22771
877.418	22812
877.546	22744
877.674	22725
877.802	22736
877.93	22725
878.058	22771
878.185	22763
878.313	22615
878.441	22755
878.568	22577
878.696	22759
878.824	22816
878.951	22774
879.079	22949
879.206	23025
879.333	22961
879.461	22869
879.588	22839
879.715	22889
879.842	23033
879.97	22809
880.097	22615
880.224	22615
880.351	22713
880.478	22546
880.605	22535
880.732	22466
880.859	22725
880.986	22618
881.112	22485
881.239	22303
881.366	22291
881.493	22207
881.619	22246
881.746	22211
881.872	22204
881.999	22109
882.125	22105
882.252	22207
882.378	22188
882.505	22185
882.631	21994
882.757	21838
882.883	21804
883.01	21781
883.136	21770
883.262	21690
883.388	21732
883.514	21804
883.64	21895
883.766	21770
883.892	21599
884.018	21652
884.143	21778
884.269	21903
884.395	21469
884.52	21412
884.646	21530
884.772	21363
884.897	21306
885.023	21553
885.148	21424
885.274	21511
885.399	21587
885.524	21496
885.65	21378
885.775	21542
885.9	21523
886.025	21682
886.15	21603
886.275	21466
886.4	21389
886.525	21469
886.65	21389
886.775	21340
886.9	21504
887.025	21648
887.149	21473
887.274	21298
887.399	21233
887.523	21260
887.648	21085
887.773	21138
887.897	21420
888.021	21325
888.146	21214
888.27	21287
888.395	21329
888.519	21237
888.643	21180
888.767	21462
888.891	21119
889.015	21135
889.139	21127
889.263	20956
889.387	21127
889.511	21192
889.635	21203
889.759	20895
889.883	21013
890.006	21074
890.13	21024
890.254	21047
890.377	20819
890.501	20735
890.624	20674
890.748	20800
890.871	20598
890.995	20640
891.118	20636
891.241	20598
891.364	20571
891.488	20701
891.611	20655
891.734	20587
891.857	20632
891.98	20568
892.103	20625
892.226	20579
892.349	20480
892.471	20377
892.594	20590
892.717	20545
892.839	20499
892.962	20613
893.085	20537
893.207	20434
893.33	20332
893.452	20400
893.575	20533
893.697	20499
893.819	20602
893.941	20746
894.064	20590
894.186	20518
894.308	20427
894.43	20507
894.552	20663
894.674	20518
894.796	20537
894.918	20511
895.04	20438
895.161	20571
895.283	20518
895.405	20336
895.526	20537
895.648	20370
895.769	20454
895.891	20522
896.012	20427
896.134	20438
896.255	20488
896.376	20431
896.498	20408
896.619	20434
896.74	20469
896.861	20575
896.982	20857
897.103	20925
897.224	20651
897.345	20613
897.466	20712
897.587	20708
897.708	20716
897.828	20807
897.949	20746
898.07	20431
898.19	20549
898.311	20743
898.431	20514
898.552	20648
898.672	20796
898.792	20792
898.913	20613
899.033	20469
899.153	20571
899.273	20408
899.393	20400
899.513	20461
899.633	20358
899.753	20454
899.873	20434
899.993	20454
900.113	20381
900.232	20351
900.352	20351
900.472	20366
900.591	20096
900.711	20168
900.83	20142
900.95	20195
901.069	20282
901.189	20073
901.308	19967
901.427	19788
901.546	19742
901.665	19814
901.784	19742
901.904	19578
902.023	19582
902.141	19266
902.26	19312
902.379	19403
902.498	19278
902.617	19232
902.735	19369
902.854	19282
902.973	19282
903.091	18920
903.21	18928
903.328	18890
903.446	18856
903.565	18791
903.683	18757
903.801	18665
903.919	18734
904.038	18646
904.156	18540
904.274	18502
904.392	18563
904.51	18429
904.627	18437
904.745	18498
904.863	18486
904.981	18270
905.098	18205
905.216	18159
905.334	18289
905.451	18258
905.569	18243
905.686	18330
905.803	18133
905.921	18011
906.038	18011
906.155	18041
906.272	17866
906.389	17821
906.506	17786
906.623	17672
906.74	17687
906.857	17665
906.974	17630
907.091	17760
907.208	17874
907.324	17764
907.441	17600
907.557	17490
907.674	17452
907.79	17474
907.907	17436
908.023	17490
908.139	17436
908.256	17421
908.372	17235
908.488	17250
908.604	17254
908.72	17113
908.836	17212
908.952	17010
909.068	17102
909.184	17261
909.3	17185
909.415	17117
909.531	17261
909.647	16972
909.762	16835
909.878	16831
909.993	16930
910.108	16801
910.224	16763
910.339	16733
910.454	16755
910.57	16691
910.685	16569
910.8	16828
910.915	16790
911.03	16702
911.145	16527
911.259	16402
911.374	16394
911.489	16398
911.604	16344
911.718	16196
911.833	16223
911.947	16109
912.062	16025
912.176	16196
912.291	16093
912.405	16181
912.519	16310
912.633	16337
912.748	16158
912.862	16204
912.976	15945
913.09	15941
913.204	15926
913.318	15987
913.431	16097
913.545	16013
913.659	16124
913.772	15960
913.886	15774
914	15713
914.113	15816
914.226	15918
914.34	15778
914.453	15633
914.566	15922
914.68	15720
914.793	15599
914.906	15374
915.019	15340
915.132	15340
915.245	15351
915.358	15469
915.47	15359
915.583	15370
915.696	15355
915.809	15500
915.921	15500
916.034	15302
916.146	15252
916.259	15256
916.371	15332
916.483	15226
916.595	15161
916.708	15157
916.82	15184
916.932	15214
917.044	15146
917.156	15127
917.268	15097
917.38	15070
917.491	15055
917.603	15070
917.715	15123
917.826	15165
917.938	14960
918.049	14895
918.161	14963
918.272	14998
918.384	15047
918.495	14933
918.606	14861
918.717	14754
918.828	14739
918.939	14872
919.05	14678
919.161	14697
919.272	14625
919.383	14754
919.494	14804
919.604	15013
919.715	14765
919.826	14712
919.936	14788
920.047	14868
920.157	14746
920.267	14906
920.378	14735
920.488	14689
920.598	14880
920.708	15070
920.818	14849
920.928	14895
921.038	15051
921.148	14895
921.258	14693
921.368	14587
921.477	14503
921.587	14362
921.697	14336
921.806	14503
921.916	14324
922.025	14214
922.134	14183
922.244	14020
922.353	14126
922.462	13932
922.571	13902
922.68	13700
922.789	13811
922.898	13674
923.007	13723
923.116	13757
923.224	13719
923.333	13791
923.442	13689
923.55	13563
923.659	13632
923.767	13567
923.876	13407
923.984	13575
924.092	13441
924.201	13518
924.309	13506
924.417	13666
924.525	13396
924.633	13533
924.741	14157
924.849	13221
924.956	13358
925.064	13225
925.172	13149
925.279	13107
925.387	13232
925.494	13137
925.602	13282
925.709	13232
925.816	12981
925.924	13080
926.031	13164
926.138	13118
926.245	13145
926.352	13004
926.459	13110
926.566	13206
926.673	12993
926.779	12897
926.886	12890
926.993	12852
927.099	12779
927.206	12711
927.312	12642
927.419	12779
927.525	12692
927.631	12688
927.737	12650
927.843	12570
927.95	12467
928.056	12475
928.162	12547
928.267	12612
928.373	13129
928.479	12604
928.585	12296
928.69	12475
928.796	12414
928.901	12338
929.007	12273
929.112	12410
929.218	12361
929.323	12213
929.428	12194
929.533	12403
929.638	12197
929.743	12224
929.848	12251
929.953	12216
930.058	12091
930.163	11942
930.267	11958
930.372	12030
930.477	11847
930.581	12057
930.685	11988
930.79	11824
930.894	11874
930.998	11843
931.103	11958
931.207	11512
931.311	11425
931.415	11417
931.519	11254
931.623	11197
