Data from test_V78500241_2081.txt Node
Date: Fri Mar 25 15:24:20 CST 2022
User: usil
Spectrometer: V785-0024
Trigger mode: 0
Integration Time (sec): 4.000000E-1
Scans to average: 1
Nonlinearity correction enabled: false
Boxcar width: 0
Storing dark spectrum: false
XAxis mode: Wavelengths
Number of Pixels in Spectrum: 1024
>>>>>Begin Spectral Data<<<<<
801.071	27774
801.214	27633
801.356	27473
801.499	27473
801.641	27367
801.783	27393
801.926	27336
802.068	27355
802.211	27287
802.353	27138
802.496	27039
802.638	27036
802.78	27119
802.923	26876
803.065	26849
803.208	26796
803.35	27077
803.492	27112
803.635	27116
803.777	27032
803.919	27116
804.061	27427
804.204	27226
804.346	27138
804.488	27112
804.63	27169
804.773	27051
804.915	27161
805.057	27313
805.199	27081
805.341	27157
805.483	27340
805.626	27294
805.768	27180
805.91	27313
806.052	27420
806.194	27188
806.336	27439
806.478	27218
806.62	27123
806.762	27443
806.904	27469
807.046	27690
807.188	27854
807.33	27720
807.472	27880
807.614	27614
807.756	27713
807.898	27629
808.04	27488
808.182	27530
808.324	27599
808.465	27564
808.607	27736
808.749	27987
808.891	28147
809.033	27937
809.174	28040
809.316	27797
809.458	27968
809.6	27926
809.741	28055
809.883	28090
810.025	28272
810.166	28207
810.308	28333
810.45	28154
810.591	28131
810.733	27865
810.875	27934
811.016	27808
811.158	27762
811.299	28032
811.441	28013
811.582	28048
811.724	27922
811.865	27671
812.007	27838
812.148	27968
812.29	27926
812.431	28131
812.573	28234
812.714	28440
812.855	28462
812.997	28485
813.138	28664
813.279	28626
813.421	28371
813.562	28303
813.703	28284
813.845	28067
813.986	27937
814.127	27698
814.268	27504
814.41	27576
814.551	27351
814.692	27781
814.833	27549
814.974	27580
815.115	27606
815.256	27393
815.397	27496
815.539	27370
815.68	27336
815.821	27348
815.962	27336
816.103	27310
816.244	27313
816.385	27272
816.526	27176
816.666	27051
816.807	26826
816.948	26876
817.089	26979
817.23	27093
817.371	26792
817.512	26872
817.653	26853
817.793	26853
817.934	26834
818.075	26845
818.216	26921
818.356	26868
818.497	26777
818.638	26693
818.778	26693
818.919	26568
819.06	26625
819.2	26807
819.341	26876
819.481	26735
819.622	27081
819.762	27340
819.903	27165
820.043	27104
820.184	26914
820.324	27104
820.465	27039
820.605	26982
820.746	26986
820.886	26773
821.026	27081
821.167	26857
821.307	26986
821.447	26975
821.588	26686
821.728	26625
821.868	26415
822.008	26461
822.149	26423
822.289	26263
822.429	26088
822.569	26027
822.709	25898
822.849	25811
822.99	25890
823.13	25860
823.27	25784
823.41	25674
823.55	25426
823.69	25731
823.83	25708
823.97	25620
824.11	25514
824.25	25518
824.389	25403
824.529	25689
824.669	25438
824.809	25689
824.949	25499
825.089	25499
825.228	25499
825.368	25301
825.508	25396
825.648	25400
825.787	25282
825.927	25373
826.067	25225
826.206	25282
826.346	25426
826.485	25381
826.625	25304
826.765	25464
826.904	25483
827.044	25168
827.183	25175
827.323	25042
827.462	25202
827.601	24989
827.741	24935
827.88	25122
828.02	25027
828.159	24977
828.298	25137
828.437	25175
828.577	25152
828.716	25198
828.855	25057
828.994	24776
829.134	24703
829.273	24776
829.412	24608
829.551	24730
829.69	24719
829.829	24875
829.968	24920
830.107	24867
830.246	24939
830.385	24601
830.524	24627
830.663	24521
830.802	24517
830.941	24426
831.08	24262
831.219	24486
831.357	24338
831.496	24540
831.635	24330
831.774	24235
831.913	24254
832.051	24136
832.19	24057
832.329	24102
832.467	24114
832.606	23912
832.744	24049
832.883	23950
833.022	23999
833.16	24213
833.299	24129
833.437	24049
833.576	24133
833.714	24102
833.852	24095
833.991	24087
834.129	24140
834.267	24159
834.406	24152
834.544	24064
834.682	24228
834.821	23969
834.959	24262
835.097	23969
835.235	24228
835.373	24106
835.511	23999
835.65	24076
835.788	24026
835.926	23794
836.064	23813
836.202	23684
836.34	24091
836.478	24072
836.615	23775
836.753	23973
836.891	23969
837.029	23817
837.167	23847
837.305	23805
837.443	23813
837.58	23794
837.718	23897
837.856	23790
837.993	23741
838.131	23691
838.269	23718
838.406	23824
838.544	23566
838.681	23478
838.819	23417
838.956	23239
839.094	23227
839.231	23220
839.369	23288
839.506	23638
839.643	23486
839.781	23269
839.918	23220
840.055	23353
840.193	23060
840.33	23162
840.467	23178
840.604	23269
840.742	23315
840.879	23037
841.016	23033
841.153	22934
841.29	23273
841.427	23193
841.564	23128
841.701	22995
841.838	23083
841.975	22968
842.112	22927
842.249	22904
842.385	22904
842.522	23197
842.659	22965
842.796	22972
842.933	23025
843.069	22877
843.206	22885
843.343	23029
843.479	22923
843.616	22968
843.752	22710
843.889	22740
844.025	22790
844.162	22786
844.298	22748
844.435	22607
844.571	22611
844.708	22626
844.844	22793
844.98	22748
845.117	22752
845.253	22668
845.389	22466
845.525	22630
845.661	22569
845.798	22333
845.934	22584
846.07	22417
846.206	22379
846.342	22390
846.478	22398
846.614	22382
846.75	22131
846.886	22135
847.022	22192
847.158	22135
847.294	22154
847.429	22268
847.565	22169
847.701	22394
847.837	21880
847.972	21800
848.108	21945
848.244	21869
848.379	21823
848.515	21755
848.65	21675
848.786	21747
848.921	21789
849.057	21823
849.192	21819
849.328	21785
849.463	21751
849.598	21633
849.734	21599
849.869	21557
850.004	21523
850.14	21549
850.275	21538
850.41	21310
850.545	21485
850.68	21355
850.815	21481
850.95	21374
851.085	21675
851.22	21686
851.355	21542
851.49	21412
851.625	21511
851.76	21431
851.895	21447
852.03	21374
852.165	21568
852.299	21549
852.434	21587
852.569	21511
852.703	21439
852.838	21564
852.973	21545
853.107	21606
853.242	21363
853.376	21321
853.511	21233
853.645	21252
853.78	21405
853.914	21348
854.048	21397
854.183	21256
854.317	21378
854.451	21530
854.585	21401
854.72	21203
854.854	21428
854.988	21230
855.122	21306
855.256	21127
855.39	21203
855.524	21378
855.658	21321
855.792	21443
855.926	21294
856.06	21313
856.194	21412
856.327	21150
856.461	21439
856.595	21348
856.729	21313
856.862	21405
856.996	21397
857.13	21313
857.263	21473
857.397	21496
857.53	21378
857.664	21272
857.797	21329
857.931	21405
858.064	21359
858.197	21454
858.331	21382
858.464	21332
858.597	21138
858.731	21302
858.864	21344
858.997	21298
859.13	21466
859.263	21393
859.396	21275
859.529	21233
859.662	21329
859.795	21237
859.928	21275
860.061	21523
860.194	21473
860.327	21226
860.46	21245
860.592	21462
860.725	21378
860.858	21450
860.99	21340
861.123	21211
861.256	21317
861.388	21226
861.521	21972
861.653	21123
861.786	21154
861.918	21032
862.05	21100
862.183	21294
862.315	21192
862.447	21329
862.58	21154
862.712	21039
862.844	21001
862.976	21104
863.108	21074
863.24	21393
863.372	21047
863.504	21017
863.636	20948
863.768	21058
863.9	21116
864.032	20941
864.164	21024
864.296	21070
864.428	21127
864.559	21093
864.691	21123
864.823	21077
864.954	21039
865.086	21203
865.217	21055
865.349	20792
865.48	20781
865.612	20845
865.743	21169
865.875	20941
866.006	20895
866.137	20849
866.269	20891
866.4	20845
866.531	20899
866.662	20743
866.793	20743
866.924	20861
867.055	20876
867.186	20921
867.317	20849
867.448	20655
867.579	20762
867.71	20716
867.841	20792
867.972	20826
868.103	20880
868.233	20861
868.364	20944
868.495	21013
868.625	21135
868.756	21161
868.886	21020
869.017	21077
869.147	21180
869.278	21131
869.408	21233
869.539	21043
869.669	21199
869.799	21161
869.929	21222
870.06	21180
870.19	21447
870.32	21454
870.45	21405
870.58	21507
870.71	21481
870.84	21629
870.97	21424
871.1	21340
871.23	21641
871.36	21694
871.489	21523
871.619	21675
871.749	21751
871.879	21747
872.008	21880
872.138	21770
872.267	21701
872.397	21538
872.526	21523
872.656	21443
872.785	21622
872.915	21770
873.044	21789
873.173	21739
873.303	21724
873.432	21679
873.561	21778
873.69	21785
873.819	21736
873.948	21819
874.077	21739
874.206	21587
874.335	21675
874.464	21770
874.593	21888
874.722	21861
874.851	21941
874.979	22090
875.108	21907
875.237	21895
875.365	21865
875.494	21903
875.623	22082
875.751	21915
875.88	21979
876.008	22048
876.136	22147
876.265	22398
876.393	22554
876.521	22390
876.65	22356
876.778	22394
876.906	22284
877.034	22257
877.162	22322
877.29	22196
877.418	22200
877.546	22223
877.674	22360
877.802	22310
877.93	22299
878.058	22299
878.185	22162
878.313	22268
878.441	22242
878.568	22185
878.696	22139
878.824	22287
878.951	22261
879.079	22493
879.206	22599
879.333	22462
879.461	22207
879.588	22371
879.715	22474
879.842	22523
879.97	22382
880.097	22063
880.224	22101
880.351	22219
880.478	22036
880.605	22143
880.732	22051
880.859	22276
880.986	22185
881.112	22147
881.239	22021
881.366	21888
881.493	21793
881.619	21583
881.746	21739
881.872	21751
881.999	21652
882.125	21534
882.252	21667
882.378	21804
882.505	21793
882.631	21511
882.757	21473
882.883	21492
883.01	21378
883.136	21397
883.262	21340
883.388	21184
883.514	21294
883.64	21382
883.766	21310
883.892	21142
884.018	21203
884.143	21367
884.269	21355
884.395	21093
884.52	21051
884.646	21104
884.772	20933
884.897	20975
885.023	21024
885.148	20975
885.274	21150
885.399	21051
885.524	21013
885.65	21051
885.775	21165
885.9	20899
886.025	21058
886.15	21180
886.275	20933
886.4	20887
886.525	21013
886.65	20929
886.775	20967
886.9	20990
887.025	21188
887.149	20941
887.274	20781
887.399	20777
887.523	20746
887.648	20758
887.773	20739
887.897	20769
888.021	20815
888.146	20785
888.27	20982
888.395	20899
888.519	20781
888.643	20712
888.767	20883
888.891	20746
889.015	20644
889.139	20648
889.263	20697
889.387	20629
889.511	20731
889.635	20663
889.759	20629
889.883	20507
890.006	20549
890.13	20800
890.254	20492
890.377	20545
890.501	20381
890.624	20233
890.748	20442
890.871	20142
890.995	20317
891.118	20206
891.241	20096
891.364	20153
891.488	20358
891.611	20237
891.734	20206
891.857	20225
891.98	20111
892.103	20218
892.226	20134
892.349	20027
892.471	20031
892.594	20130
892.717	20164
892.839	20157
892.962	20054
893.085	20191
893.207	20142
893.33	19833
893.452	19940
893.575	20001
893.697	20024
893.819	20168
893.941	20298
894.064	20237
894.186	19963
894.308	19917
894.43	20161
894.552	20313
894.674	20225
894.796	19928
894.918	20008
895.04	20039
895.161	20084
895.283	20008
895.405	20016
895.526	20039
895.648	20050
895.769	20130
895.891	20096
896.012	20256
896.134	20161
896.255	20020
896.376	20046
896.498	20035
896.619	20027
896.74	20043
896.861	20161
896.982	20415
897.103	20473
897.224	20313
897.345	20259
897.466	20191
897.587	20393
897.708	20393
897.828	20221
897.949	20233
898.07	20058
898.19	20313
898.311	20278
898.431	20206
898.552	20256
898.672	20218
898.792	20343
898.913	20374
899.033	20176
899.153	20073
899.273	20001
899.393	20164
899.513	20069
899.633	20039
899.753	20092
899.873	20005
899.993	20088
900.113	19997
900.232	20043
900.352	20031
900.472	19772
900.591	19822
900.711	19852
900.83	19753
900.95	19921
901.069	19944
901.189	19727
901.308	19521
901.427	19373
901.546	19339
901.665	19377
901.784	19392
901.904	19225
902.023	19228
902.141	18958
902.26	18901
902.379	19107
902.498	18920
902.617	18871
902.735	18901
902.854	18776
902.973	18863
903.091	18570
903.21	18517
903.328	18639
903.446	18574
903.565	18338
903.683	18540
903.801	18247
903.919	18388
904.038	18330
904.156	18201
904.274	18178
904.392	18243
904.51	18159
904.627	18129
904.745	18186
904.863	18148
904.981	17882
905.098	17718
905.216	17832
905.334	17817
905.451	17897
905.569	17676
905.686	17859
905.803	17813
905.921	17573
906.038	17726
906.155	17558
906.272	17505
906.389	17486
906.506	17455
906.623	17334
906.74	17322
906.857	17250
906.974	17265
907.091	17417
907.208	17474
907.324	17368
907.441	17200
907.557	17121
907.674	17037
907.79	16987
907.907	17079
908.023	17056
908.139	17147
908.256	16961
908.372	17006
908.488	16866
908.604	16908
908.72	16664
908.836	16767
908.952	16816
909.068	16725
909.184	16877
909.3	16854
909.415	16915
909.531	16862
909.647	16580
909.762	16478
909.878	16592
909.993	16481
910.108	16436
910.224	16432
910.339	16447
910.454	16341
910.57	16322
910.685	16211
910.8	16523
910.915	16409
911.03	16268
911.145	16143
911.259	16063
911.374	16101
911.489	16101
911.604	16074
911.718	15774
911.833	15869
911.947	15713
912.062	15599
912.176	15819
912.291	15816
912.405	15793
912.519	16002
912.633	16025
912.748	15812
912.862	15720
912.976	15549
913.09	15694
913.204	15606
913.318	15679
913.431	15838
913.545	15816
913.659	15755
913.772	15644
913.886	15629
914	15435
914.113	15595
914.226	15652
914.34	15439
914.453	15268
914.566	15481
914.68	15348
914.793	15272
914.906	15180
915.019	15028
915.132	15013
915.245	15020
915.358	15081
915.47	15131
915.583	15222
915.696	15104
915.809	15165
915.921	15112
916.034	14971
916.146	15085
916.259	14921
916.371	15058
916.483	14982
916.595	14861
916.708	14906
916.82	14887
916.932	14891
917.044	14823
917.156	14815
917.268	14781
917.38	14716
917.491	14663
917.603	14811
917.715	14861
917.826	14838
917.938	14579
918.049	14545
918.161	14670
918.272	14682
918.384	14819
918.495	14667
918.606	14492
918.717	14507
918.828	14473
918.939	14556
919.05	14381
919.161	14454
919.272	14320
919.383	14298
919.494	14522
919.604	14701
919.715	14526
919.826	14317
919.936	14427
920.047	14492
920.157	14454
920.267	14522
920.378	14393
920.488	14461
920.598	14549
920.708	14849
920.818	14507
920.928	14556
921.038	14686
921.148	14682
921.258	14446
921.368	14290
921.477	14328
921.587	14271
921.697	14069
921.806	14180
921.916	14039
922.025	13986
922.134	13932
922.244	13822
922.353	13837
922.462	13696
922.571	13620
922.68	13563
922.789	13529
922.898	13495
923.007	13419
923.116	13419
923.224	13453
923.333	13388
923.442	13331
923.55	13263
923.659	13308
923.767	13400
923.876	13221
923.984	13308
924.092	13133
924.201	13285
924.309	13259
924.417	13213
924.525	13091
924.633	13190
924.741	13807
924.849	12954
924.956	13004
925.064	12962
925.172	12844
925.279	12814
925.387	12890
925.494	12852
925.602	12954
925.709	12901
925.816	12829
925.924	12798
926.031	12989
926.138	12833
926.245	12844
926.352	12738
926.459	12901
926.566	12916
926.673	12707
926.779	12639
926.886	12589
926.993	12509
927.099	12536
927.206	12437
927.312	12353
927.419	12517
927.525	12433
927.631	12456
927.737	12399
927.843	12346
927.95	12327
928.056	12262
928.162	12334
928.267	12369
928.373	12935
928.479	12369
928.585	12114
928.69	12216
928.796	12300
928.901	12091
929.007	12011
929.112	12136
929.218	12129
929.323	12106
929.428	11984
929.533	12148
929.638	11920
929.743	11977
929.848	11984
929.953	12011
930.058	11805
930.163	11737
930.267	11790
930.372	11752
930.477	11760
930.581	11851
930.685	11779
930.79	11600
930.894	11589
930.998	11436
931.103	11703
931.207	11410
931.311	11322
931.415	11147
931.519	10999
931.623	10930
