Data from test_V78500241_3417.txt Node
Date: Fri Mar 25 15:33:39 CST 2022
User: usil
Spectrometer: V785-0024
Trigger mode: 0
Integration Time (sec): 4.000000E-1
Scans to average: 1
Nonlinearity correction enabled: false
Boxcar width: 0
Storing dark spectrum: false
XAxis mode: Wavelengths
Number of Pixels in Spectrum: 1024
>>>>>Begin Spectral Data<<<<<
801.071	27321
801.214	27214
801.356	26990
801.499	26788
801.641	26712
801.783	26769
801.926	26819
802.068	26750
802.211	26720
802.353	26727
802.496	26377
802.638	26442
802.78	26412
802.923	26324
803.065	26248
803.208	26313
803.35	26480
803.492	26609
803.635	26621
803.777	26362
803.919	26492
804.061	26838
804.204	26686
804.346	26617
804.488	26518
804.63	26476
804.773	26415
804.915	26613
805.057	26659
805.199	26495
805.341	26533
805.483	26720
805.626	26640
805.768	26533
805.91	26716
806.052	26701
806.194	26583
806.336	26777
806.478	26651
806.62	26609
806.762	26773
806.904	26800
807.046	27104
807.188	27043
807.33	27131
807.472	27074
807.614	27074
807.756	26902
807.898	26895
808.04	26796
808.182	26750
808.324	26940
808.465	27146
808.607	26986
808.749	27233
808.891	27340
809.033	27515
809.174	27401
809.316	27157
809.458	27161
809.6	27222
809.741	27207
809.883	27450
810.025	27530
810.166	27526
810.308	27416
810.45	27511
810.591	27401
810.733	27249
810.875	27294
811.016	27173
811.158	27112
811.299	27454
811.441	27412
811.582	27454
811.724	27150
811.865	27119
812.007	27313
812.148	27382
812.29	27291
812.431	27549
812.573	27401
812.714	27694
812.855	27755
812.997	27838
813.138	27972
813.279	28055
813.421	27785
813.562	27583
813.703	27523
813.845	27431
813.986	27146
814.127	27135
814.268	26971
814.41	26887
814.551	26956
814.692	26925
814.833	26811
814.974	26640
815.115	26944
815.256	26750
815.397	26705
815.539	26731
815.68	26617
815.821	26587
815.962	26693
816.103	26549
816.244	26453
816.385	26290
816.526	26233
816.666	26267
816.807	26126
816.948	26130
817.089	26214
817.23	26081
817.371	26005
817.512	26134
817.653	26149
817.793	26065
817.934	26069
818.075	26111
818.216	26138
818.356	26062
818.497	26046
818.638	25807
818.778	25845
818.919	25925
819.06	25951
819.2	25966
819.341	26161
819.481	26122
819.622	26263
819.762	26423
819.903	26450
820.043	26199
820.184	26248
820.324	26328
820.465	26206
820.605	26298
820.746	26176
820.886	26180
821.026	26122
821.167	26301
821.307	26214
821.447	26176
821.588	26157
821.728	25913
821.868	25788
822.008	25681
822.149	25620
822.289	25609
822.429	25407
822.569	25255
822.709	25236
822.849	25187
822.99	25129
823.13	25023
823.27	25095
823.41	24996
823.55	24798
823.69	24992
823.83	24909
823.97	24958
824.11	24703
824.25	24719
824.389	24734
824.529	24696
824.669	24787
824.809	24810
824.949	24901
825.089	24920
825.228	24692
825.368	24601
825.508	24642
825.648	24593
825.787	24715
825.927	24589
826.067	24475
826.206	24601
826.346	24604
826.485	24734
826.625	24570
826.765	24753
826.904	24620
827.044	24407
827.183	24315
827.323	24365
827.462	24350
827.601	24441
827.741	24323
827.88	24357
828.02	24266
828.159	24205
828.298	24281
828.437	24311
828.577	24388
828.716	24452
828.855	24334
828.994	24083
829.134	24144
829.273	24060
829.412	23965
829.551	24015
829.69	24034
829.829	24041
829.968	24121
830.107	24045
830.246	23999
830.385	24018
830.524	23980
830.663	23931
830.802	23832
830.941	23638
831.08	23619
831.219	23764
831.357	23691
831.496	23893
831.635	23570
831.774	23570
831.913	23646
832.051	23341
832.19	23440
832.329	23440
832.467	23421
832.606	23212
832.744	23261
832.883	23311
833.022	23273
833.16	23277
833.299	23478
833.437	23379
833.576	23398
833.714	23326
833.852	23482
833.991	23448
834.129	23520
834.267	23421
834.406	23239
834.544	23429
834.682	23444
834.821	23387
834.959	23570
835.097	23459
835.235	23562
835.373	23452
835.511	23516
835.65	23246
835.788	23258
835.926	23246
836.064	23193
836.202	23220
836.34	23334
836.478	23360
836.615	23242
836.753	23178
836.891	23326
837.029	23307
837.167	23212
837.305	23105
837.443	23094
837.58	23094
837.718	23071
837.856	23216
837.993	23018
838.131	23033
838.269	23014
838.406	23022
838.544	23048
838.681	22809
838.819	22797
838.956	22573
839.094	22637
839.231	22675
839.369	22687
839.506	23014
839.643	22809
839.781	22504
839.918	22557
840.055	22649
840.193	22584
840.33	22565
840.467	22577
840.604	22565
840.742	22869
840.879	22447
841.016	22618
841.153	22485
841.29	22546
841.427	22519
841.564	22538
841.701	22466
841.838	22592
841.975	22375
842.112	22436
842.249	22341
842.385	22280
842.522	22527
842.659	22337
842.796	22272
842.933	22284
843.069	22246
843.206	22204
843.343	22382
843.479	22291
843.616	22367
843.752	22055
843.889	22154
844.025	22192
844.162	22051
844.298	22181
844.435	22105
844.571	21991
844.708	22090
844.844	22112
844.98	22219
845.117	22280
845.253	22036
845.389	21823
845.525	22086
845.661	22013
845.798	21812
845.934	21907
846.07	21823
846.206	21762
846.342	21926
846.478	21739
846.614	21561
846.75	21523
846.886	21568
847.022	21656
847.158	21557
847.294	21507
847.429	21618
847.565	21454
847.701	21793
847.837	21283
847.972	21291
848.108	21439
848.244	21321
848.379	21165
848.515	21150
848.65	21062
848.786	21093
848.921	21138
849.057	21329
849.192	21184
849.328	21192
849.463	21119
849.598	21043
849.734	21062
849.869	21112
850.004	20861
850.14	20807
850.275	20853
850.41	20777
850.545	20906
850.68	20929
850.815	20895
850.95	20891
851.085	21036
851.22	20990
851.355	20876
851.49	20929
851.625	20705
851.76	20933
851.895	20925
852.03	20830
852.165	20963
852.299	20853
852.434	20979
852.569	20819
852.703	20895
852.838	20899
852.973	20994
853.107	20990
853.242	20895
853.376	20720
853.511	20716
853.645	20750
853.78	20819
853.914	20777
854.048	20697
854.183	20682
854.317	20731
854.451	21058
854.585	20716
854.72	20632
854.854	20838
854.988	20727
855.122	20769
855.256	20560
855.39	20651
855.524	20739
855.658	20785
855.792	20765
855.926	20712
856.06	20758
856.194	20823
856.327	20853
856.461	20686
856.595	20727
856.729	20667
856.862	20868
856.996	20670
857.13	20788
857.263	20861
857.397	20792
857.53	20560
857.664	20754
857.797	20838
857.931	20857
858.064	20750
858.197	20834
858.331	20754
858.464	20613
858.597	20674
858.731	20777
858.864	20697
858.997	20518
859.13	20804
859.263	20785
859.396	20861
859.529	20891
859.662	20636
859.795	20667
859.928	20716
860.061	20853
860.194	20872
860.327	20716
860.46	20727
860.592	20861
860.725	20845
860.858	20883
860.99	20842
861.123	20727
861.256	20663
861.388	20739
861.521	21466
861.653	20629
861.786	20495
861.918	20507
862.05	20636
862.183	20724
862.315	20769
862.447	20746
862.58	20655
862.712	20514
862.844	20415
862.976	20518
863.108	20533
863.24	20937
863.372	20461
863.504	20415
863.636	20450
863.768	20575
863.9	20454
864.032	20385
864.164	20438
864.296	20495
864.428	20549
864.559	20476
864.691	20590
864.823	20423
864.954	20434
865.086	20400
865.217	20347
865.349	20305
865.48	20438
865.612	20309
865.743	20408
865.875	20320
866.006	20362
866.137	20351
866.269	20457
866.4	20362
866.531	20244
866.662	20233
866.793	20328
866.924	20206
867.055	20343
867.186	20339
867.317	20309
867.448	20237
867.579	20275
867.71	20187
867.841	20229
867.972	20317
868.103	20187
868.233	20336
868.364	20267
868.495	20320
868.625	20541
868.756	20541
868.886	20431
869.017	20537
869.147	20621
869.278	20575
869.408	20545
869.539	20522
869.669	20594
869.799	20454
869.929	20678
870.06	20644
870.19	20781
870.32	20937
870.45	20868
870.58	20925
870.71	21001
870.84	20918
870.97	20876
871.1	20910
871.23	21188
871.36	21127
871.489	21017
871.619	21047
871.749	21135
871.879	21157
872.008	21298
872.138	21062
872.267	21256
872.397	21028
872.526	20960
872.656	20963
872.785	21001
872.915	21131
873.044	21230
873.173	21154
873.303	21264
873.432	21275
873.561	21218
873.69	21169
873.819	21161
873.948	21279
874.077	21233
874.206	21123
874.335	21093
874.464	21264
874.593	21374
874.722	21416
874.851	21488
874.979	21428
875.108	21481
875.237	21310
875.365	21367
875.494	21412
875.623	21492
875.751	21443
875.88	21481
876.008	21507
876.136	21534
876.265	21838
876.393	21869
876.521	21937
876.65	21793
876.778	21907
876.906	21652
877.034	21717
877.162	21774
877.29	21751
877.418	21785
877.546	21755
877.674	21785
877.802	21766
877.93	21618
878.058	21701
878.185	21553
878.313	21667
878.441	21751
878.568	21614
878.696	21656
878.824	21812
878.951	21739
879.079	21915
879.206	21918
879.333	21930
879.461	21739
879.588	21861
879.715	21968
879.842	21979
879.97	21854
880.097	21587
880.224	21610
880.351	21587
880.478	21526
880.605	21580
880.732	21557
880.859	21781
880.986	21656
881.112	21656
881.239	21431
881.366	21272
881.493	21173
881.619	21142
881.746	21226
881.872	21214
881.999	21062
882.125	21154
882.252	21241
882.378	20952
882.505	21230
882.631	21081
882.757	20876
882.883	21108
883.01	20849
883.136	20872
883.262	20663
883.388	20686
883.514	20842
883.64	20929
883.766	20807
883.892	20609
884.018	20564
884.143	20876
884.269	20929
884.395	20606
884.52	20514
884.646	20590
884.772	20419
884.897	20552
885.023	20484
885.148	20560
885.274	20613
885.399	20659
885.524	20457
885.65	20488
885.775	20488
885.9	20625
886.025	20587
886.15	20686
886.275	20476
886.4	20385
886.525	20423
886.65	20461
886.775	20396
886.9	20632
887.025	20735
887.149	20541
887.274	20370
887.399	20431
887.523	20404
887.648	20256
887.773	20088
887.897	20305
888.021	20275
888.146	20286
888.27	20385
888.395	20400
888.519	20324
888.643	20393
888.767	20393
888.891	20122
889.015	20073
889.139	20153
889.263	20119
889.387	20180
889.511	20370
889.635	20202
889.759	20046
889.883	20149
890.006	20119
890.13	20229
890.254	20020
890.377	20050
890.501	19826
890.624	19761
890.748	19898
890.871	19662
890.995	19529
891.118	19670
891.241	19734
891.364	19712
891.488	19727
891.611	19727
891.734	19704
891.857	19605
891.98	19681
892.103	19715
892.226	19651
892.349	19666
892.471	19487
892.594	19647
892.717	19681
892.839	19734
892.962	19582
893.085	19624
893.207	19537
893.33	19483
893.452	19491
893.575	19761
893.697	19556
893.819	19803
893.941	19803
894.064	19712
894.186	19521
894.308	19559
894.43	19647
894.552	19753
894.674	19704
894.796	19476
894.918	19601
895.04	19639
895.161	19628
895.283	19586
895.405	19407
895.526	19556
895.648	19502
895.769	19624
895.891	19643
896.012	19666
896.134	19655
896.255	19624
896.376	19586
896.498	19582
896.619	19651
896.74	19578
896.861	19624
896.982	19909
897.103	20024
897.224	19986
897.345	19906
897.466	19761
897.587	19811
897.708	19925
897.828	19822
897.949	19776
898.07	19616
898.19	19750
898.311	19944
898.431	19864
898.552	19803
898.672	19902
898.792	19845
898.913	19879
899.033	19830
899.153	19635
899.273	19537
899.393	19575
899.513	19601
899.633	19685
899.753	19556
899.873	19453
899.993	19597
900.113	19426
900.232	19670
900.352	19491
900.472	19468
900.591	19392
900.711	19403
900.83	19320
900.95	19445
901.069	19468
901.189	19221
901.308	19023
901.427	18989
901.546	18966
901.665	18958
901.784	18920
901.904	18890
902.023	18772
902.141	18623
902.26	18521
902.379	18604
902.498	18395
902.617	18391
902.735	18502
902.854	18391
902.973	18346
903.091	18209
903.21	18190
903.328	18140
903.446	18049
903.565	18057
903.683	17927
903.801	17779
903.919	17996
904.038	17916
904.156	17687
904.274	17672
904.392	17615
904.51	17752
904.627	17779
904.745	17760
904.863	17843
904.981	17520
905.098	17467
905.216	17368
905.334	17505
905.451	17417
905.569	17406
905.686	17387
905.803	17360
905.921	17105
906.038	17330
906.155	17242
906.272	17121
906.389	17067
906.506	16972
906.623	16987
906.74	16949
906.857	16771
906.974	16809
907.091	16930
907.208	17060
907.324	17006
907.441	16927
907.557	16653
907.674	16596
907.79	16645
907.907	16626
908.023	16691
908.139	16752
908.256	16538
908.372	16474
908.488	16584
908.604	16371
908.72	16253
908.836	16432
908.952	16390
909.068	16409
909.184	16481
909.3	16276
909.415	16424
909.531	16314
909.647	16105
909.762	16124
909.878	16063
909.993	16120
910.108	16150
910.224	15994
910.339	16078
910.454	15926
910.57	16036
910.685	15819
910.8	16120
910.915	16044
911.03	15899
911.145	15766
911.259	15739
911.374	15709
911.489	15675
911.604	15580
911.718	15568
911.833	15496
911.947	15420
912.062	15401
912.176	15481
912.291	15435
912.405	15507
912.519	15610
912.633	15644
912.748	15454
912.862	15344
912.976	15199
913.09	15074
913.204	15245
913.318	15237
913.431	15332
913.545	15317
913.659	15332
913.772	15230
913.886	15047
914	14956
914.113	15146
914.226	15173
914.34	15097
914.453	14982
914.566	15077
914.68	14971
914.793	14906
914.906	14792
915.019	14697
915.132	14598
915.245	14640
915.358	14739
915.47	14773
915.583	14659
915.696	14708
915.809	14861
915.921	14819
916.034	14773
916.146	14697
916.259	14636
916.371	14651
916.483	14727
916.595	14522
916.708	14427
916.82	14594
916.932	14469
917.044	14552
917.156	14431
917.268	14366
917.38	14400
917.491	14355
917.603	14393
917.715	14473
917.826	14492
917.938	14275
918.049	14218
918.161	14442
918.272	14415
918.384	14358
918.495	14336
918.606	14164
918.717	14001
918.828	14214
918.939	14142
919.05	14043
919.161	14130
919.272	13921
919.383	13940
919.494	14153
919.604	14374
919.715	14096
919.826	14115
919.936	14077
920.047	14164
920.157	14157
920.267	14259
920.378	14039
920.488	14092
920.598	14286
920.708	14434
920.818	14339
920.928	14237
921.038	14434
921.148	14347
921.258	13993
921.368	13978
921.477	13852
921.587	13967
921.697	13784
921.806	13871
921.916	13704
922.025	13578
922.134	13499
922.244	13514
922.353	13556
922.462	13460
922.571	13339
922.68	13187
922.789	13118
922.898	13175
923.007	13069
923.116	13225
923.224	13126
923.333	13114
923.442	13000
923.55	12981
923.659	13027
923.767	12981
923.876	12951
923.984	12939
924.092	12814
924.201	12882
924.309	12856
924.417	12871
924.525	12829
924.633	12890
924.741	13719
924.849	12684
924.956	12684
925.064	12566
925.172	12525
925.279	12509
925.387	12639
925.494	12597
925.602	12665
925.709	12639
925.816	12540
925.924	12528
926.031	12673
926.138	12574
926.245	12547
926.352	12486
926.459	12555
926.566	12681
926.673	12456
926.779	12327
926.886	12395
926.993	12342
927.099	12190
927.206	12072
927.312	12144
927.419	12178
927.525	12220
927.631	12167
927.737	12068
927.843	12019
927.95	11866
928.056	11996
928.162	11950
928.267	12030
928.373	12646
928.479	12072
928.585	11760
928.69	12007
928.796	12045
928.901	11866
929.007	11805
929.112	11813
929.218	11821
929.323	11882
929.428	11707
929.533	11836
929.638	11551
929.743	11695
929.848	11756
929.953	11668
930.058	11634
930.163	11436
930.267	11444
930.372	11482
930.477	11471
930.581	11566
930.685	11467
930.79	11379
930.894	11292
930.998	11220
931.103	11433
931.207	11071
931.311	11014
931.415	10866
931.519	10790
931.623	10733
