Data from test_V78500241_706.txt Node
Date: Fri Mar 25 15:14:46 CST 2022
User: usil
Spectrometer: V785-0024
Trigger mode: 0
Integration Time (sec): 4.000000E-1
Scans to average: 1
Nonlinearity correction enabled: false
Boxcar width: 0
Storing dark spectrum: false
XAxis mode: Wavelengths
Number of Pixels in Spectrum: 1024
>>>>>Begin Spectral Data<<<<<
801.071	28010
801.214	27808
801.356	27679
801.499	27534
801.641	27435
801.783	27515
801.926	27625
802.068	27458
802.211	27378
802.353	27264
802.496	27081
802.638	27192
802.78	27154
802.923	27173
803.065	27154
803.208	27169
803.35	27188
803.492	27291
803.635	27302
803.777	27252
803.919	27416
804.061	27644
804.204	27363
804.346	27264
804.488	27313
804.63	27496
804.773	27264
804.915	27237
805.057	27462
805.199	27313
805.341	27488
805.483	27466
805.626	27500
805.768	27283
805.91	27401
806.052	27450
806.194	27450
806.336	27599
806.478	27595
806.62	27481
806.762	27660
806.904	27770
807.046	28078
807.188	27930
807.33	27972
807.472	28032
807.614	27880
807.756	27759
807.898	27652
808.04	27717
808.182	27774
808.324	27717
808.465	27911
808.607	27956
808.749	28067
808.891	28192
809.033	28272
809.174	28207
809.316	28131
809.458	28192
809.6	28200
809.741	28398
809.883	28284
810.025	28535
810.166	28409
810.308	28432
810.45	28432
810.591	28379
810.733	28185
810.875	28200
811.016	27945
811.158	27949
811.299	28242
811.441	28382
811.582	28211
811.724	28059
811.865	28063
812.007	28162
812.148	28067
812.29	28303
812.431	28356
812.573	28542
812.714	28466
812.855	28675
812.997	28812
813.138	28949
813.279	28812
813.421	28831
813.562	28721
813.703	28599
813.845	28333
813.986	28090
814.127	27968
814.268	27785
814.41	28044
814.551	27770
814.692	27956
814.833	27865
814.974	27861
815.115	27907
815.256	27789
815.397	27880
815.539	27888
815.68	27580
815.821	27622
815.962	27633
816.103	27526
816.244	27610
816.385	27427
816.526	27359
816.666	27317
816.807	27104
816.948	27116
817.089	27325
817.23	27321
817.371	27344
817.512	27241
817.653	27214
817.793	27173
817.934	27089
818.075	27252
818.216	27085
818.356	27020
818.497	27093
818.638	26929
818.778	26914
818.919	26864
819.06	26937
819.2	27119
819.341	27123
819.481	27207
819.622	27294
819.762	27473
819.903	27492
820.043	27256
820.184	27272
820.324	27268
820.465	27367
820.605	27298
820.746	27348
820.886	27188
821.026	27218
821.167	27188
821.307	27313
821.447	27131
821.588	27138
821.728	26902
821.868	26693
822.008	26682
822.149	26708
822.289	26575
822.429	26301
822.569	26313
822.709	26290
822.849	26157
822.99	26210
823.13	26084
823.27	26077
823.41	25982
823.55	25928
823.69	25944
823.83	25974
823.97	25978
824.11	25677
824.25	25814
824.389	25830
824.529	25772
824.669	25883
824.809	25860
824.949	25875
825.089	25887
825.228	25784
825.368	25757
825.508	25601
825.648	25753
825.787	25624
825.927	25723
826.067	25613
826.206	25666
826.346	25666
826.485	25681
826.625	25769
826.765	25772
826.904	25681
827.044	25438
827.183	25460
827.323	25327
827.462	25476
827.601	25396
827.741	25430
827.88	25324
828.02	25251
828.159	25358
828.298	25392
828.437	25362
828.577	25331
828.716	25518
828.855	25244
828.994	25091
829.134	25031
829.273	25084
829.412	25065
829.551	25023
829.69	25118
829.829	25091
829.968	25202
830.107	25164
830.246	25050
830.385	25000
830.524	24840
830.663	24840
830.802	24905
830.941	24825
831.08	24620
831.219	24711
831.357	24661
831.496	24894
831.635	24745
831.774	24597
831.913	24608
832.051	24475
832.19	24471
832.329	24578
832.467	24429
832.606	24281
832.744	24270
832.883	24319
833.022	24289
833.16	24448
833.299	24407
833.437	24388
833.576	24475
833.714	24498
833.852	24384
833.991	24570
834.129	24422
834.267	24399
834.406	24418
834.544	24372
834.682	24433
834.821	24258
834.959	24505
835.097	24304
835.235	24502
835.373	24437
835.511	24407
835.65	24247
835.788	24140
835.926	24129
836.064	23984
836.202	24091
836.34	24266
836.478	24228
836.615	24232
836.753	24292
836.891	24277
837.029	24232
837.167	24125
837.305	24201
837.443	24076
837.58	24095
837.718	24098
837.856	24159
837.993	23961
838.131	23969
838.269	24015
838.406	23889
838.544	23901
838.681	23783
838.819	23859
838.956	23543
839.094	23562
839.231	23604
839.369	23684
839.506	23863
839.643	23824
839.781	23665
839.918	23486
840.055	23471
840.193	23459
840.33	23406
840.467	23501
840.604	23455
840.742	23710
840.879	23265
841.016	23379
841.153	23303
841.29	23661
841.427	23436
841.564	23467
841.701	23410
841.838	23493
841.975	23425
842.112	23322
842.249	23162
842.385	23140
842.522	23425
842.659	23155
842.796	23204
842.933	23235
843.069	23220
843.206	23204
843.343	23254
843.479	23102
843.616	23147
843.752	22946
843.889	22980
844.025	23067
844.162	22957
844.298	22999
844.435	23037
844.571	22923
844.708	23159
844.844	23098
844.98	23235
845.117	23071
845.253	22934
845.389	22710
845.525	22972
845.661	22820
845.798	22786
845.934	22866
846.07	22634
846.206	22721
846.342	22869
846.478	22618
846.614	22531
846.75	22402
846.886	22459
847.022	22573
847.158	22356
847.294	22485
847.429	22432
847.565	22565
847.701	22622
847.837	22226
847.972	22196
848.108	22249
848.244	22318
848.379	22067
848.515	22051
848.65	22074
848.786	22082
848.921	22082
849.057	22158
849.192	22017
849.328	22086
849.463	22082
849.598	21941
849.734	21968
849.869	21888
850.004	21808
850.14	21945
850.275	21823
850.41	21770
850.545	21842
850.68	21720
850.815	21766
850.95	21800
851.085	21918
851.22	21972
851.355	21907
851.49	21789
851.625	21800
851.76	21755
851.895	21629
852.03	21827
852.165	21785
852.299	21838
852.434	21865
852.569	21698
852.703	21804
852.838	21812
852.973	21865
853.107	21808
853.242	21861
853.376	21660
853.511	21564
853.645	21538
853.78	21842
853.914	21686
854.048	21580
854.183	21557
854.317	21854
854.451	21755
854.585	21526
854.72	21637
854.854	21633
854.988	21564
855.122	21614
855.256	21614
855.39	21625
855.524	21686
855.658	21644
855.792	21576
855.926	21644
856.06	21641
856.194	21679
856.327	21576
856.461	21622
856.595	21526
856.729	21614
856.862	21774
856.996	21660
857.13	21587
857.263	21679
857.397	21797
857.53	21595
857.664	21728
857.797	21644
857.931	21694
858.064	21656
858.197	21682
858.331	21545
858.464	21625
858.597	21564
858.731	21603
858.864	21599
858.997	21576
859.13	21564
859.263	21812
859.396	21690
859.529	21622
859.662	21637
859.795	21530
859.928	21660
860.061	21781
860.194	21797
860.327	21701
860.46	21591
860.592	21789
860.725	21747
860.858	21835
860.99	21667
861.123	21473
861.256	21564
861.388	21648
861.521	22443
861.653	21481
861.786	21435
861.918	21389
862.05	21485
862.183	21576
862.315	21591
862.447	21622
862.58	21435
862.712	21378
862.844	21310
862.976	21363
863.108	21428
863.24	21698
863.372	21203
863.504	21412
863.636	21279
863.768	21397
863.9	21313
864.032	21226
864.164	21336
864.296	21317
864.428	21321
864.559	21359
864.691	21332
864.823	21389
864.954	21268
865.086	21279
865.217	21249
865.349	21203
865.48	21184
865.612	21294
865.743	21348
865.875	21321
866.006	21150
866.137	21199
866.269	21298
866.4	21062
866.531	21199
866.662	21100
866.793	21093
866.924	21157
867.055	21116
867.186	21138
867.317	21184
867.448	21173
867.579	21123
867.71	21062
867.841	21024
867.972	21093
868.103	21070
868.233	21199
868.364	21154
868.495	21249
868.625	21443
868.756	21439
868.886	21321
869.017	21370
869.147	21420
869.278	21523
869.408	21306
869.539	21439
869.669	21287
869.799	21447
869.929	21466
870.06	21412
870.19	21660
870.32	21618
870.45	21667
870.58	21739
870.71	21854
870.84	21892
870.97	21857
871.1	21743
871.23	21937
871.36	22048
871.489	21857
871.619	21983
871.749	21968
871.879	21975
872.008	22074
872.138	21945
872.267	21960
872.397	21819
872.526	21789
872.656	21755
872.785	21778
872.915	22086
873.044	22109
873.173	21972
873.303	22036
873.432	21979
873.561	21956
873.69	22032
873.819	22048
873.948	22078
874.077	21892
874.206	21876
874.335	22029
874.464	22059
874.593	22181
874.722	22166
874.851	22371
874.979	22272
875.108	22352
875.237	22207
875.365	22093
875.494	22143
875.623	22215
875.751	22207
875.88	22337
876.008	22261
876.136	22447
876.265	22466
876.393	22580
876.521	22706
876.65	22698
876.778	22504
876.906	22493
877.034	22409
877.162	22489
877.29	22371
877.418	22489
877.546	22607
877.674	22611
877.802	22508
877.93	22523
878.058	22508
878.185	22466
878.313	22424
878.441	22481
878.568	22500
878.696	22596
878.824	22527
878.951	22580
879.079	22687
879.206	22782
879.333	22740
879.461	22664
879.588	22645
879.715	22774
879.842	22759
879.97	22474
880.097	22440
880.224	22291
880.351	22440
880.478	22268
880.605	22272
880.732	22348
880.859	22538
880.986	22523
881.112	22409
881.239	22242
881.366	22097
881.493	21983
881.619	22070
881.746	21922
881.872	21899
881.999	21911
882.125	21838
882.252	21911
882.378	21888
882.505	22044
882.631	21759
882.757	21660
882.883	21652
883.01	21804
883.136	21553
883.262	21389
883.388	21488
883.514	21641
883.64	21686
883.766	21523
883.892	21443
884.018	21401
884.143	21587
884.269	21591
884.395	21302
884.52	21184
884.646	21355
884.772	21222
884.897	21218
885.023	21344
885.148	21389
885.274	21416
885.399	21367
885.524	21252
885.65	21310
885.775	21351
885.9	21275
886.025	21317
886.15	21344
886.275	21135
886.4	21211
886.525	21135
886.65	21233
886.775	21241
886.9	21382
887.025	21416
887.149	21157
887.274	21062
887.399	20998
887.523	21093
887.648	20941
887.773	20921
887.897	21195
888.021	21131
888.146	20967
888.27	21203
888.395	21108
888.519	21089
888.643	21043
888.767	21096
888.891	21005
889.015	20826
889.139	20948
889.263	20720
889.387	20948
889.511	21005
889.635	20887
889.759	20861
889.883	20750
890.006	20796
890.13	20849
890.254	20781
890.377	20750
890.501	20636
890.624	20434
890.748	20663
890.871	20465
890.995	20377
891.118	20362
891.241	20381
891.364	20514
891.488	20663
891.611	20454
891.734	20499
891.857	20533
891.98	20465
892.103	20393
892.226	20400
892.349	20393
892.471	20164
892.594	20320
892.717	20366
892.839	20298
892.962	20282
893.085	20358
893.207	20282
893.33	20240
893.452	20187
893.575	20438
893.697	20275
893.819	20492
893.941	20522
894.064	20404
894.186	20153
894.308	20248
894.43	20450
894.552	20362
894.674	20381
894.796	20221
894.918	20195
895.04	20172
895.161	20294
895.283	20301
895.405	20263
895.526	20377
895.648	20324
895.769	20336
895.891	20313
896.012	20218
896.134	20332
896.255	20351
896.376	20248
896.498	20381
896.619	20313
896.74	20282
896.861	20324
896.982	20648
897.103	20655
897.224	20571
897.345	20537
897.466	20552
897.587	20476
897.708	20815
897.828	20541
897.949	20457
898.07	20358
898.19	20450
898.311	20579
898.431	20541
898.552	20537
898.672	20514
898.792	20682
898.913	20499
899.033	20358
899.153	20282
899.273	20221
899.393	20248
899.513	20313
899.633	20233
899.753	20206
899.873	20301
899.993	20187
900.113	20122
900.232	20237
900.352	20176
900.472	20210
900.591	20161
900.711	20035
900.83	19989
900.95	20252
901.069	20157
901.189	19932
901.308	19799
901.427	19651
901.546	19616
901.665	19780
901.784	19632
901.904	19430
902.023	19422
902.141	19263
902.26	19190
902.379	19133
902.498	19095
902.617	19145
902.735	19103
902.854	19072
902.973	19137
903.091	18840
903.21	18779
903.328	18844
903.446	18597
903.565	18582
903.683	18722
903.801	18494
903.919	18540
904.038	18528
904.156	18391
904.274	18551
904.392	18270
904.51	18285
904.627	18228
904.745	18422
904.863	18464
904.981	18220
905.098	18133
905.216	18034
905.334	18133
905.451	18030
905.569	18038
905.686	17950
905.803	18049
905.921	17908
906.038	17916
906.155	17897
906.272	17786
906.389	17752
906.506	17554
906.623	17615
906.74	17676
906.857	17482
906.974	17486
907.091	17684
907.208	17691
907.324	17585
907.441	17398
907.557	17353
907.674	17258
907.79	17140
907.907	17307
908.023	17406
908.139	17204
908.256	17223
908.372	17155
908.488	17216
908.604	17048
908.72	16976
908.836	16968
908.952	17003
909.068	16946
909.184	17113
909.3	16980
909.415	17006
909.531	16938
909.647	16809
909.762	16755
909.878	16710
909.993	16660
910.108	16683
910.224	16702
910.339	16668
910.454	16626
910.57	16451
910.685	16402
910.8	16793
910.915	16660
911.03	16512
911.145	16424
911.259	16280
911.374	16287
911.489	16105
911.604	16162
911.718	16021
911.833	16002
911.947	15915
912.062	15835
912.176	16067
912.291	16051
912.405	15949
912.519	16215
912.633	16246
912.748	16067
912.862	16002
912.976	15915
913.09	15724
913.204	15797
913.318	15892
913.431	15991
913.545	15972
913.659	15991
913.772	15793
913.886	15610
914	15652
914.113	15774
914.226	15762
914.34	15667
914.453	15603
914.566	15648
914.68	15641
914.793	15507
914.906	15272
915.019	15256
915.132	15157
915.245	15218
915.358	15298
915.47	15294
915.583	15237
915.696	15211
915.809	15389
915.921	15306
916.034	15237
916.146	15199
916.259	15104
916.371	15157
916.483	15233
916.595	15043
916.708	15100
916.82	15089
916.932	15028
917.044	15055
917.156	15070
917.268	14933
917.38	14967
917.491	14956
917.603	14842
917.715	15043
917.826	14952
917.938	14834
918.049	14712
918.161	14785
918.272	14963
918.384	14899
918.495	14842
918.606	14670
918.717	14549
918.828	14716
918.939	14746
919.05	14533
919.161	14590
919.272	14431
919.383	14526
919.494	14651
919.604	14785
919.715	14644
919.826	14568
919.936	14629
920.047	14781
920.157	14625
920.267	14823
920.378	14552
920.488	14552
920.598	14773
920.708	14845
920.818	14739
920.928	14708
921.038	14872
921.148	14868
921.258	14579
921.368	14530
921.477	14469
921.587	14362
921.697	14290
921.806	14381
921.916	14180
922.025	14065
922.134	13932
922.244	13978
922.353	14027
922.462	13833
922.571	13750
922.68	13601
922.789	13628
922.898	13693
923.007	13540
923.116	13609
923.224	13605
923.333	13601
923.442	13464
923.55	13483
923.659	13472
923.767	13552
923.876	13491
923.984	13468
924.092	13289
924.201	13419
924.309	13487
924.417	13403
924.525	13346
924.633	13312
924.741	14020
924.849	13110
924.956	13225
925.064	12985
925.172	13027
925.279	13034
925.387	12973
925.494	13023
925.602	13126
925.709	13129
925.816	12924
925.924	13000
926.031	13061
926.138	12951
926.245	13084
926.352	12905
926.459	13038
926.566	13057
926.673	12894
926.779	12787
926.886	12753
926.993	12551
927.099	12673
927.206	12544
927.312	12608
927.419	12662
927.525	12620
927.631	12665
927.737	12513
927.843	12467
927.95	12330
928.056	12399
928.162	12460
928.267	12456
928.373	13076
928.479	12479
928.585	12235
928.69	12372
928.796	12350
928.901	12292
929.007	12190
929.112	12258
929.218	12266
929.323	12148
929.428	12243
929.533	12232
929.638	12087
929.743	12091
929.848	12194
929.953	12114
930.058	11969
930.163	11832
930.267	11851
930.372	11954
930.477	11809
930.581	12003
930.685	11851
930.79	11691
930.894	11718
930.998	11729
931.103	11859
931.207	11493
931.311	11353
931.415	11303
931.519	11128
931.623	11098
