Data from test_V78500241_3049.txt Node
Date: Fri Mar 25 15:31:05 CST 2022
User: usil
Spectrometer: V785-0024
Trigger mode: 0
Integration Time (sec): 4.000000E-1
Scans to average: 1
Nonlinearity correction enabled: false
Boxcar width: 0
Storing dark spectrum: false
XAxis mode: Wavelengths
Number of Pixels in Spectrum: 1024
>>>>>Begin Spectral Data<<<<<
801.071	27306
801.214	27260
801.356	26880
801.499	27017
801.641	26746
801.783	26727
801.926	26857
802.068	26640
802.211	26872
802.353	26632
802.496	26541
802.638	26404
802.78	26408
802.923	26263
803.065	26339
803.208	26320
803.35	26370
803.492	26545
803.635	26636
803.777	26358
803.919	26495
804.061	26838
804.204	26655
804.346	26533
804.488	26408
804.63	26533
804.773	26602
804.915	26602
805.057	26598
805.199	26503
805.341	26511
805.483	26708
805.626	26804
805.768	26636
805.91	26686
806.052	26739
806.194	26625
806.336	26876
806.478	26743
806.62	26640
806.762	26678
806.904	26830
807.046	27279
807.188	27108
807.33	27165
807.472	27089
807.614	27096
807.756	27165
807.898	26971
808.04	26975
808.182	26887
808.324	26956
808.465	27104
808.607	27047
808.749	27294
808.891	27329
809.033	27473
809.174	27443
809.316	27260
809.458	27260
809.6	27214
809.741	27245
809.883	27469
810.025	27542
810.166	27572
810.308	27553
810.45	27431
810.591	27405
810.733	27211
810.875	27195
811.016	27226
811.158	27138
811.299	27363
811.441	27439
811.582	27545
811.724	27291
811.865	27173
812.007	27233
812.148	27275
812.29	27359
812.431	27469
812.573	27679
812.714	27625
812.855	27759
812.997	27778
813.138	27998
813.279	27934
813.421	27911
813.562	27774
813.703	27606
813.845	27545
813.986	27199
814.127	27108
814.268	27020
814.41	26895
814.551	26952
814.692	27055
814.833	26883
814.974	26933
815.115	27013
815.256	26629
815.397	26845
815.539	26830
815.68	26769
815.821	26541
815.962	26758
816.103	26872
816.244	26484
816.385	26564
816.526	26503
816.666	26275
816.807	26065
816.948	26126
817.089	26267
817.23	26176
817.371	26145
817.512	26202
817.653	26016
817.793	26062
817.934	26210
818.075	26130
818.216	26233
818.356	26240
818.497	26027
818.638	25963
818.778	25795
818.919	26027
819.06	26005
819.2	26073
819.341	26168
819.481	26153
819.622	26301
819.762	26590
819.903	26438
820.043	26309
820.184	26278
820.324	26244
820.465	26552
820.605	26290
820.746	26267
820.886	25963
821.026	26244
821.167	26214
821.307	26396
821.447	26290
821.588	26115
821.728	25898
821.868	25837
822.008	25647
822.149	25647
822.289	25548
822.429	25419
822.569	25384
822.709	25293
822.849	25198
822.99	25126
823.13	25133
823.27	25088
823.41	24909
823.55	24886
823.69	24901
823.83	25053
823.97	24886
824.11	24677
824.25	24863
824.389	24768
824.529	24878
824.669	24711
824.809	24924
824.949	24935
825.089	24882
825.228	24909
825.368	24707
825.508	24646
825.648	24620
825.787	24608
825.927	24745
826.067	24688
826.206	24665
826.346	24597
826.485	24749
826.625	24582
826.765	24772
826.904	24768
827.044	24513
827.183	24445
827.323	24266
827.462	24285
827.601	24289
827.741	24338
827.88	24330
828.02	24308
828.159	24361
828.298	24410
828.437	24418
828.577	24334
828.716	24433
828.855	24174
828.994	24205
829.134	23980
829.273	24114
829.412	24064
829.551	23996
829.69	24053
829.829	24007
829.968	24121
830.107	24121
830.246	24102
830.385	23942
830.524	24007
830.663	23889
830.802	23767
830.941	23703
831.08	23554
831.219	23775
831.357	23802
831.496	23882
831.635	23733
831.774	23581
831.913	23657
832.051	23444
832.19	23330
832.329	23398
832.467	23360
832.606	23318
832.744	23368
832.883	23284
833.022	23235
833.16	23315
833.299	23387
833.437	23429
833.576	23395
833.714	23315
833.852	23528
833.991	23463
834.129	23471
834.267	23406
834.406	23448
834.544	23501
834.682	23467
834.821	23303
834.959	23615
835.097	23204
835.235	23364
835.373	23372
835.511	23463
835.65	23353
835.788	23307
835.926	23155
836.064	23159
836.202	23041
836.34	23250
836.478	23288
836.615	23239
836.753	23227
836.891	23296
837.029	23372
837.167	23189
837.305	23098
837.443	23181
837.58	23102
837.718	23140
837.856	23052
837.993	23060
838.131	23037
838.269	22934
838.406	23060
838.544	22942
838.681	22672
838.819	22702
838.956	22713
839.094	22611
839.231	22626
839.369	22843
839.506	22790
839.643	22911
839.781	22622
839.918	22535
840.055	22459
840.193	22603
840.33	22432
840.467	22508
840.604	22485
840.742	22748
840.879	22363
841.016	22546
841.153	22428
841.29	22664
841.427	22527
841.564	22542
841.701	22459
841.838	22497
841.975	22344
842.112	22382
842.249	22367
842.385	22394
842.522	22474
842.659	22432
842.796	22287
842.933	22143
843.069	22284
843.206	22131
843.343	22333
843.479	22253
843.616	22181
843.752	22044
843.889	22078
844.025	22192
844.162	22029
844.298	22200
844.435	21956
844.571	22013
844.708	22090
844.844	22116
844.98	22021
845.117	22048
845.253	21941
845.389	21819
845.525	21838
845.661	21888
845.798	21774
845.934	21850
846.07	21557
846.206	21751
846.342	21880
846.478	21690
846.614	21492
846.75	21511
846.886	21545
847.022	21523
847.158	21473
847.294	21405
847.429	21561
847.565	21488
847.701	21755
847.837	21180
847.972	21150
848.108	21397
848.244	21268
848.379	21112
848.515	21157
848.65	21104
848.786	21135
848.921	21096
849.057	21192
849.192	21211
849.328	21108
849.463	21104
849.598	21024
849.734	20944
849.869	20963
850.004	20819
850.14	20944
850.275	20849
850.41	20838
850.545	20842
850.68	20941
850.815	20731
850.95	20773
851.085	21066
851.22	21074
851.355	20876
851.49	20823
851.625	20902
851.76	20883
851.895	20819
852.03	20796
852.165	20941
852.299	20952
852.434	20944
852.569	20819
852.703	20960
852.838	20769
852.973	20925
853.107	20956
853.242	20872
853.376	20731
853.511	20564
853.645	20621
853.78	20781
853.914	20579
854.048	20743
854.183	20765
854.317	20697
854.451	20967
854.585	20648
854.72	20693
854.854	20682
854.988	20625
855.122	20644
855.256	20507
855.39	20724
855.524	20769
855.658	20689
855.792	20613
855.926	20743
856.06	20765
856.194	20804
856.327	20571
856.461	20632
856.595	20678
856.729	20640
856.862	20861
856.996	20701
857.13	20804
857.263	20739
857.397	20689
857.53	20727
857.664	20777
857.797	20777
857.931	20788
858.064	20792
858.197	20777
858.331	20648
858.464	20651
858.597	20499
858.731	20663
858.864	20651
858.997	20629
859.13	20708
859.263	20648
859.396	20785
859.529	20659
859.662	20648
859.795	20549
859.928	20625
860.061	20686
860.194	20830
860.327	20697
860.46	20727
860.592	20708
860.725	20807
860.858	20864
860.99	20701
861.123	20609
861.256	20655
861.388	20701
861.521	21275
861.653	20522
861.786	20434
861.918	20526
862.05	20556
862.183	20598
862.315	20640
862.447	20800
862.58	20556
862.712	20351
862.844	20328
862.976	20590
863.108	20511
863.24	20720
863.372	20347
863.504	20336
863.636	20419
863.768	20473
863.9	20385
864.032	20149
864.164	20347
864.296	20400
864.428	20396
864.559	20514
864.691	20442
864.823	20351
864.954	20343
865.086	20419
865.217	20275
865.349	20294
865.48	20202
865.612	20343
865.743	20370
865.875	20370
866.006	20301
866.137	20301
866.269	20320
866.4	20317
866.531	20153
866.662	20210
866.793	20263
866.924	20172
867.055	20278
867.186	20221
867.317	20119
867.448	20206
867.579	20202
867.71	20149
867.841	20138
867.972	20256
868.103	20248
868.233	20221
868.364	20096
868.495	20336
868.625	20374
868.756	20560
868.886	20480
869.017	20396
869.147	20575
869.278	20598
869.408	20507
869.539	20530
869.669	20552
869.799	20518
869.929	20674
870.06	20552
870.19	20830
870.32	20864
870.45	20857
870.58	20826
870.71	20982
870.84	20887
870.97	20933
871.1	20845
871.23	20952
871.36	21070
871.489	20864
871.619	20998
871.749	21112
871.879	21161
872.008	21233
872.138	21161
872.267	21104
872.397	20880
872.526	20948
872.656	20876
872.785	20864
872.915	21081
873.044	21169
873.173	21039
873.303	21081
873.432	21173
873.561	21188
873.69	21081
873.819	21116
873.948	21195
874.077	21089
874.206	21058
874.335	21066
874.464	21119
874.593	21340
874.722	21226
874.851	21348
874.979	21488
875.108	21393
875.237	21275
875.365	21161
875.494	21420
875.623	21405
875.751	21336
875.88	21412
876.008	21424
876.136	21447
876.265	21701
876.393	21747
876.521	21797
876.65	21926
876.778	21835
876.906	21713
877.034	21739
877.162	21774
877.29	21724
877.418	21660
877.546	21774
877.674	21671
877.802	21622
877.93	21789
878.058	21717
878.185	21679
878.313	21633
878.441	21667
878.568	21519
878.696	21675
878.824	21717
878.951	21804
879.079	21842
879.206	21975
879.333	21831
879.461	21656
879.588	21869
879.715	21895
879.842	21991
879.97	21698
880.097	21671
880.224	21720
880.351	21519
880.478	21583
880.605	21618
880.732	21572
880.859	21823
880.986	21534
881.112	21606
881.239	21492
881.366	21332
881.493	21214
881.619	21188
881.746	21173
881.872	21112
881.999	21043
882.125	21112
882.252	21199
882.378	21039
882.505	21195
882.631	21005
882.757	20861
882.883	21017
883.01	20811
883.136	20781
883.262	20708
883.388	20693
883.514	20933
883.64	20937
883.766	20750
883.892	20621
884.018	20560
884.143	20853
884.269	21028
884.395	20488
884.52	20423
884.646	20484
884.772	20336
884.897	20381
885.023	20431
885.148	20507
885.274	20648
885.399	20617
885.524	20507
885.65	20396
885.775	20476
885.9	20518
886.025	20511
886.15	20556
886.275	20393
886.4	20404
886.525	20476
886.65	20431
886.775	20343
886.9	20545
887.025	20678
887.149	20431
887.274	20225
887.399	20343
887.523	20256
887.648	20153
887.773	20168
887.897	20336
888.021	20282
888.146	20195
888.27	20317
888.395	20366
888.519	20237
888.643	20339
888.767	20275
888.891	20229
889.015	20062
889.139	20164
889.263	20119
889.387	20180
889.511	20347
889.635	20119
889.759	20024
889.883	20126
890.006	20107
890.13	20191
890.254	20050
890.377	20107
890.501	19742
890.624	19761
890.748	19951
890.871	19795
890.995	19575
891.118	19483
891.241	19563
891.364	19769
891.488	19833
891.611	19529
891.734	19670
891.857	19609
891.98	19567
892.103	19635
892.226	19613
892.349	19605
892.471	19506
892.594	19753
892.717	19571
892.839	19529
892.962	19571
893.085	19624
893.207	19537
893.33	19457
893.452	19468
893.575	19556
893.697	19563
893.819	19632
893.941	19731
894.064	19696
894.186	19472
894.308	19487
894.43	19655
894.552	19727
894.674	19742
894.796	19480
894.918	19537
895.04	19266
895.161	19582
895.283	19499
895.405	19434
895.526	19487
895.648	19521
895.769	19575
895.891	19582
896.012	19700
896.134	19491
896.255	19578
896.376	19487
896.498	19388
896.619	19563
896.74	19521
896.861	19586
896.982	19906
897.103	19993
897.224	19818
897.345	19890
897.466	19753
897.587	19811
897.708	19982
897.828	19852
897.949	19746
898.07	19647
898.19	19803
898.311	20016
898.431	19738
898.552	19799
898.672	19967
898.792	19784
898.913	19883
899.033	19704
899.153	19674
899.273	19502
899.393	19658
899.513	19537
899.633	19483
899.753	19449
899.873	19521
899.993	19590
900.113	19453
900.232	19578
900.352	19533
900.472	19449
900.591	19312
900.711	19392
900.83	19392
900.95	19548
901.069	19426
901.189	19213
901.308	18981
901.427	18905
901.546	18901
901.665	19015
901.784	19023
901.904	18840
902.023	18741
902.141	18551
902.26	18475
902.379	18589
902.498	18502
902.617	18513
902.735	18486
902.854	18433
902.973	18399
903.091	18190
903.21	18102
903.328	18159
903.446	17954
903.565	17999
903.683	17980
903.801	17889
903.919	17920
904.038	17904
904.156	17840
904.274	17874
904.392	17707
904.51	17775
904.627	17680
904.745	17726
904.863	17752
904.981	17455
905.098	17246
905.216	17395
905.334	17486
905.451	17376
905.569	17337
905.686	17433
905.803	17406
905.921	17223
906.038	17303
906.155	17330
906.272	16976
906.389	17025
906.506	16942
906.623	16946
906.74	16900
906.857	16759
906.974	16793
907.091	16904
907.208	17025
907.324	16930
907.441	16797
907.557	16702
907.674	16641
907.79	16611
907.907	16504
908.023	16615
908.139	16694
908.256	16653
908.372	16519
908.488	16489
908.604	16295
908.72	16265
908.836	16306
908.952	16390
909.068	16344
909.184	16527
909.3	16299
909.415	16424
909.531	16417
909.647	16021
909.762	16090
909.878	16112
909.993	16036
910.108	15983
910.224	16006
910.339	16044
910.454	15785
910.57	15884
910.685	15686
910.8	16048
910.915	16086
911.03	15873
911.145	15686
911.259	15739
911.374	15701
911.489	15614
911.604	15561
911.718	15450
911.833	15473
911.947	15325
912.062	15294
912.176	15496
912.291	15485
912.405	15405
912.519	15576
912.633	15625
912.748	15576
912.862	15420
912.976	15256
913.09	15085
913.204	15203
913.318	15374
913.431	15336
913.545	15374
913.659	15351
913.772	15119
913.886	15142
914	15055
914.113	15146
914.226	15123
914.34	15074
914.453	14910
914.566	15108
914.68	14979
914.793	14918
914.906	14792
915.019	14644
915.132	14659
915.245	14682
915.358	14648
915.47	14705
915.583	14632
915.696	14758
915.809	14686
915.921	14800
916.034	14640
916.146	14511
916.259	14564
916.371	14697
916.483	14712
916.595	14492
916.708	14465
916.82	14590
916.932	14434
917.044	14400
917.156	14423
917.268	14347
917.38	14366
917.491	14199
917.603	14298
917.715	14423
917.826	14434
917.938	14256
918.049	14195
918.161	14400
918.272	14434
918.384	14381
918.495	14267
918.606	14161
918.717	14107
918.828	14096
918.939	14187
919.05	14016
919.161	13978
919.272	13811
919.383	13894
919.494	14145
919.604	14332
919.715	14138
919.826	14020
919.936	14008
920.047	14149
920.157	14001
920.267	14180
920.378	14077
920.488	14016
920.598	14317
920.708	14370
920.818	14218
920.928	14183
921.038	14423
921.148	14400
921.258	14081
921.368	13989
921.477	13875
921.587	13814
921.697	13780
921.806	13871
921.916	13712
922.025	13521
922.134	13480
922.244	13472
922.353	13540
922.462	13343
922.571	13415
922.68	13175
922.789	13209
922.898	13137
923.007	13015
923.116	13152
923.224	13095
923.333	13050
923.442	13004
923.55	12958
923.659	12939
923.767	13027
923.876	12962
923.984	13053
924.092	12791
924.201	12871
924.309	12844
924.417	12875
924.525	12810
924.633	12882
924.741	13723
924.849	12570
924.956	12753
925.064	12665
925.172	12483
925.279	12521
925.387	12547
925.494	12604
925.602	12707
925.709	12681
925.816	12452
925.924	12513
926.031	12536
926.138	12403
926.245	12506
926.352	12517
926.459	12555
926.566	12464
926.673	12369
926.779	12285
926.886	12308
926.993	12232
927.099	12144
927.206	12140
927.312	12053
927.419	12190
927.525	12171
927.631	12171
927.737	12072
927.843	12015
927.95	11813
928.056	11901
928.162	11923
928.267	11942
928.373	12639
928.479	12091
928.585	11767
928.69	11904
928.796	11988
928.901	11821
929.007	11684
929.112	11897
929.218	11805
929.323	11684
929.428	11676
929.533	11783
929.638	11657
929.743	11699
929.848	11699
929.953	11600
930.058	11520
930.163	11425
930.267	11406
930.372	11547
930.477	11341
930.581	11638
930.685	11433
930.79	11246
930.894	11337
930.998	11334
931.103	11433
931.207	11052
931.311	10915
931.415	10896
931.519	10740
931.623	10668
