Data from test_V78500241_1730.txt Node
Date: Fri Mar 25 15:21:54 CST 2022
User: usil
Spectrometer: V785-0024
Trigger mode: 0
Integration Time (sec): 4.000000E-1
Scans to average: 1
Nonlinearity correction enabled: false
Boxcar width: 0
Storing dark spectrum: false
XAxis mode: Wavelengths
Number of Pixels in Spectrum: 1024
>>>>>Begin Spectral Data<<<<<
801.071	27652
801.214	27827
801.356	27568
801.499	27405
801.641	27313
801.783	27359
801.926	27340
802.068	27367
802.211	27367
802.353	27336
802.496	26963
802.638	27096
802.78	27017
802.923	26952
803.065	26975
803.208	26910
803.35	27017
803.492	27089
803.635	27207
803.777	27207
803.919	27184
804.061	27511
804.204	27340
804.346	27173
804.488	27184
804.63	27173
804.773	27207
804.915	27188
805.057	27260
805.199	27135
805.341	27180
805.483	27317
805.626	27351
805.768	27211
805.91	27427
806.052	27382
806.194	27340
806.336	27530
806.478	27443
806.62	27462
806.762	27515
806.904	27694
807.046	27774
807.188	27686
807.33	27797
807.472	27865
807.614	27686
807.756	27781
807.898	27781
808.04	27576
808.182	27633
808.324	27732
808.465	27671
808.607	27903
808.749	28051
808.891	28074
809.033	28131
809.174	27945
809.316	27827
809.458	28112
809.6	27945
809.741	28135
809.883	28090
810.025	28249
810.166	28268
810.308	28322
810.45	28169
810.591	28078
810.733	28021
810.875	27876
811.016	27819
811.158	27793
811.299	28040
811.441	28086
811.582	28036
811.724	27914
811.865	27842
812.007	28006
812.148	28006
812.29	28040
812.431	28303
812.573	28371
812.714	28417
812.855	28451
812.997	28592
813.138	28900
813.279	28656
813.421	28493
813.562	28542
813.703	28295
813.845	28284
813.986	27861
814.127	27766
814.268	27713
814.41	27793
814.551	27660
814.692	27736
814.833	27473
814.974	27549
815.115	27622
815.256	27469
815.397	27625
815.539	27583
815.68	27431
815.821	27443
815.962	27557
816.103	27287
816.244	27317
816.385	27306
816.526	27313
816.666	27104
816.807	26986
816.948	27043
817.089	26979
817.23	26902
817.371	27089
817.512	26994
817.653	26921
817.793	26910
817.934	26895
818.075	26975
818.216	27127
818.356	26842
818.497	26712
818.638	26590
818.778	26663
818.919	26636
819.06	26842
819.2	26815
819.341	26994
819.481	26929
819.622	27135
819.762	27199
819.903	27260
820.043	27085
820.184	27013
820.324	27241
820.465	27135
820.605	27055
820.746	26986
820.886	26811
821.026	27161
821.167	27032
821.307	27142
821.447	26960
821.588	26838
821.728	26842
821.868	26571
822.008	26423
822.149	26442
822.289	26484
822.429	26183
822.569	26187
822.709	26176
822.849	26039
822.99	26020
823.13	25879
823.27	25849
823.41	25788
823.55	25761
823.69	25723
823.83	25639
823.97	25757
824.11	25552
824.25	25495
824.389	25476
824.529	25643
824.669	25628
824.809	25719
824.949	25670
825.089	25635
825.228	25647
825.368	25457
825.508	25392
825.648	25415
825.787	25411
825.927	25381
826.067	25464
826.206	25430
826.346	25506
826.485	25430
826.625	25468
826.765	25556
826.904	25537
827.044	25160
827.183	25354
827.323	25091
827.462	25244
827.601	25240
827.741	25114
827.88	25282
828.02	24943
828.159	25015
828.298	25080
828.437	25228
828.577	25160
828.716	25308
828.855	25221
828.994	24928
829.134	24897
829.273	24981
829.412	24776
829.551	24863
829.69	24875
829.829	24897
829.968	25004
830.107	25015
830.246	24825
830.385	24810
830.524	24707
830.663	24700
830.802	24722
830.941	24490
831.08	24426
831.219	24658
831.357	24547
831.496	24696
831.635	24612
831.774	24361
831.913	24369
832.051	24251
832.19	24369
832.329	24418
832.467	24171
832.606	24091
832.744	24117
832.883	24140
833.022	24102
833.16	24144
833.299	24251
833.437	24289
833.576	24220
833.714	24239
833.852	24266
833.991	24182
834.129	24353
834.267	24247
834.406	24197
834.544	24353
834.682	24148
834.821	24167
834.959	24445
835.097	24076
835.235	24372
835.373	24251
835.511	24384
835.65	24110
835.788	24064
835.926	23866
836.064	23863
836.202	23901
836.34	24194
836.478	24083
836.615	24018
836.753	24144
836.891	24289
837.029	24049
837.167	24022
837.305	23965
837.443	24041
837.58	23897
837.718	23912
837.856	23923
837.993	23916
838.131	23904
838.269	23805
838.406	23874
838.544	23745
838.681	23699
838.819	23646
838.956	23474
839.094	23429
839.231	23467
839.369	23547
839.506	23771
839.643	23623
839.781	23398
839.918	23303
840.055	23379
840.193	23402
840.33	23242
840.467	23383
840.604	23353
840.742	23531
840.879	23216
841.016	23197
841.153	23128
841.29	23372
841.427	23227
841.564	23482
841.701	23341
841.838	23284
841.975	23227
842.112	23212
842.249	23147
842.385	23094
842.522	23235
842.659	23181
842.796	23102
842.933	23079
843.069	22961
843.206	23022
843.343	23124
843.479	23064
843.616	23098
843.752	22961
843.889	22919
844.025	23109
844.162	22736
844.298	22900
844.435	22923
844.571	22713
844.708	22843
844.844	22976
844.98	22961
845.117	22854
845.253	22786
845.389	22767
845.525	22736
845.661	22634
845.798	22542
845.934	22618
846.07	22459
846.206	22535
846.342	22786
846.478	22504
846.614	22310
846.75	22280
846.886	22382
847.022	22428
847.158	22322
847.294	22234
847.429	22272
847.565	22314
847.701	22538
847.837	22128
847.972	22055
848.108	22169
848.244	22109
848.379	21903
848.515	21797
848.65	21854
848.786	21903
848.921	21911
849.057	21998
849.192	21964
849.328	21880
849.463	21759
849.598	21835
849.734	21854
849.869	21800
850.004	21610
850.14	21797
850.275	21705
850.41	21622
850.545	21595
850.68	21603
850.815	21812
850.95	21679
851.085	21876
851.22	21766
851.355	21633
851.49	21728
851.625	21652
851.76	21660
851.895	21515
852.03	21599
852.165	21732
852.299	21709
852.434	21728
852.569	21686
852.703	21629
852.838	21690
852.973	21778
853.107	21595
853.242	21553
853.376	21370
853.511	21291
853.645	21500
853.78	21576
853.914	21462
854.048	21473
854.183	21420
854.317	21412
854.451	21667
854.585	21500
854.72	21492
854.854	21408
854.988	21344
855.122	21428
855.256	21313
855.39	21420
855.524	21618
855.658	21572
855.792	21439
855.926	21534
856.06	21485
856.194	21583
856.327	21462
856.461	21408
856.595	21428
856.729	21466
856.862	21519
856.996	21447
857.13	21511
857.263	21671
857.397	21496
857.53	21443
857.664	21591
857.797	21511
857.931	21705
858.064	21606
858.197	21591
858.331	21428
858.464	21462
858.597	21416
858.731	21401
858.864	21485
858.997	21424
859.13	21443
859.263	21424
859.396	21587
859.529	21530
859.662	21462
859.795	21477
859.928	21564
860.061	21553
860.194	21599
860.327	21561
860.46	21477
860.592	21625
860.725	21534
860.858	21595
860.99	21511
861.123	21321
861.256	21378
861.388	21458
861.521	22147
861.653	21454
861.786	21268
861.918	21332
862.05	21310
862.183	21321
862.315	21397
862.447	21545
862.58	21340
862.712	21173
862.844	21176
862.976	21287
863.108	21310
863.24	21717
863.372	21173
863.504	21176
863.636	21233
863.768	21188
863.9	21207
864.032	21184
864.164	21055
864.296	21161
864.428	21230
864.559	21150
864.691	21294
864.823	21211
864.954	21047
865.086	21252
865.217	21127
865.349	21028
865.48	21131
865.612	21085
865.743	21222
865.875	21180
866.006	21093
866.137	21100
866.269	21020
866.4	21104
866.531	21074
866.662	21051
866.793	21039
866.924	20880
867.055	21157
867.186	20998
867.317	20998
867.448	20990
867.579	21009
867.71	20933
867.841	20918
867.972	21104
868.103	21024
868.233	21074
868.364	21005
868.495	21032
868.625	21207
868.756	21355
868.886	21150
869.017	21317
869.147	21363
869.278	21340
869.408	21249
869.539	21397
869.669	21336
869.799	21226
869.929	21462
870.06	21389
870.19	21583
870.32	21507
870.45	21614
870.58	21633
870.71	21850
870.84	21774
870.97	21656
871.1	21625
871.23	21743
871.36	21899
871.489	21705
871.619	21778
871.749	21895
871.879	21857
872.008	21922
872.138	21861
872.267	21747
872.397	21694
872.526	21622
872.656	21759
872.785	21755
872.915	21876
873.044	21827
873.173	21899
873.303	21918
873.432	21876
873.561	21975
873.69	21934
873.819	21789
873.948	21953
874.077	21895
874.206	21846
874.335	21819
874.464	22082
874.593	22059
874.722	21941
874.851	22185
874.979	22101
875.108	22196
875.237	22036
875.365	22006
875.494	22086
875.623	22143
875.751	21991
875.88	22280
876.008	22192
876.136	22219
876.265	22440
876.393	22683
876.521	22561
876.65	22550
876.778	22550
876.906	22356
877.034	22363
877.162	22474
877.29	22424
877.418	22565
877.546	22459
877.674	22371
877.802	22466
877.93	22489
878.058	22341
878.185	22344
878.313	22303
878.441	22333
878.568	22226
878.696	22344
878.824	22424
878.951	22508
879.079	22550
879.206	22733
879.333	22557
879.461	22436
879.588	22485
879.715	22622
879.842	22694
879.97	22489
880.097	22211
880.224	22253
880.351	22261
880.478	22310
880.605	22185
880.732	22230
880.859	22584
880.986	22325
881.112	22310
881.239	22249
881.366	21991
881.493	21941
881.619	21835
881.746	21789
881.872	21732
881.999	21808
882.125	21778
882.252	21899
882.378	21945
882.505	21911
882.631	21759
882.757	21587
882.883	21644
883.01	21530
883.136	21481
883.262	21401
883.388	21408
883.514	21545
883.64	21656
883.766	21485
883.892	21351
884.018	21443
884.143	21458
884.269	21469
884.395	21249
884.52	21184
884.646	21222
884.772	21192
884.897	21077
885.023	21135
885.148	21116
885.274	21310
885.399	21264
885.524	21150
885.65	21192
885.775	21188
885.9	21131
886.025	21370
886.15	21207
886.275	21100
886.4	21161
886.525	21264
886.65	21096
886.775	20994
886.9	21233
887.025	21389
887.149	21051
887.274	20979
887.399	20933
887.523	20921
887.648	20876
887.773	20842
887.897	21039
888.021	21077
888.146	20948
888.27	21074
888.395	20994
888.519	21051
888.643	20944
888.767	20971
888.891	20834
889.015	20857
889.139	20853
889.263	20720
889.387	20785
889.511	20952
889.635	20918
889.759	20663
889.883	20686
890.006	20746
890.13	20895
890.254	20686
890.377	20686
890.501	20480
890.624	20404
890.748	20556
890.871	20336
890.995	20324
891.118	20161
891.241	20229
891.364	20221
891.488	20404
891.611	20210
891.734	20324
891.857	20305
891.98	20244
892.103	20358
892.226	20233
892.349	20172
892.471	20138
892.594	20290
892.717	20237
892.839	20119
892.962	20069
893.085	20225
893.207	20172
893.33	20062
893.452	20084
893.575	20351
893.697	20206
893.819	20328
893.941	20362
894.064	20286
894.186	20206
894.308	20058
894.43	20298
894.552	20374
894.674	20263
894.796	20149
894.918	20240
895.04	20199
895.161	20358
895.283	20244
895.405	20073
895.526	20248
895.648	20077
895.769	20240
895.891	20313
896.012	20187
896.134	20286
896.255	20168
896.376	20210
896.498	20058
896.619	20191
896.74	20157
896.861	20244
896.982	20541
897.103	20587
897.224	20492
897.345	20476
897.466	20457
897.587	20358
897.708	20549
897.828	20393
897.949	20324
898.07	20244
898.19	20362
898.311	20526
898.431	20343
898.552	20355
898.672	20492
898.792	20454
898.913	20457
899.033	20301
899.153	20298
899.273	20008
899.393	20172
899.513	20195
899.633	20096
899.753	20134
899.873	20065
899.993	20187
900.113	20126
900.232	20161
900.352	20073
900.472	20016
900.591	19879
900.711	19822
900.83	19913
900.95	19978
901.069	19955
901.189	19849
901.308	19502
901.427	19453
901.546	19597
901.665	19567
901.784	19403
901.904	19422
902.023	19339
902.141	19103
902.26	19050
902.379	19126
902.498	19012
902.617	19023
902.735	18913
902.854	18962
902.973	18878
903.091	18707
903.21	18715
903.328	18730
903.446	18620
903.565	18563
903.683	18494
903.801	18391
903.919	18540
904.038	18460
904.156	18471
904.274	18399
904.392	18361
904.51	18224
904.627	18251
904.745	18243
904.863	18235
904.981	18045
905.098	17897
905.216	17946
905.334	17958
905.451	17965
905.569	17954
905.686	17999
905.803	17973
905.921	17729
906.038	17920
906.155	17748
906.272	17627
906.389	17668
906.506	17444
906.623	17383
906.74	17512
906.857	17406
906.974	17417
907.091	17493
907.208	17398
907.324	17490
907.441	17364
907.557	17235
907.674	17311
907.79	17147
907.907	17189
908.023	17204
908.139	17098
908.256	17083
908.372	17109
908.488	17029
908.604	16927
908.72	16972
908.836	16915
908.952	16934
909.068	16927
909.184	17006
909.3	16942
909.415	16980
909.531	16881
909.647	16592
909.762	16592
909.878	16637
909.993	16641
910.108	16607
910.224	16451
910.339	16573
910.454	16497
910.57	16344
910.685	16440
910.8	16725
910.915	16546
911.03	16447
911.145	16371
911.259	16219
911.374	16249
911.489	16048
911.604	16078
911.718	15899
911.833	16002
911.947	15823
912.062	15759
912.176	15934
912.291	15987
912.405	15934
912.519	16040
912.633	16071
912.748	15998
912.862	15979
912.976	15823
913.09	15701
913.204	15720
913.318	15907
913.431	15899
913.545	15865
913.659	15892
913.772	15762
913.886	15606
914	15447
914.113	15641
914.226	15618
914.34	15584
914.453	15507
914.566	15534
914.68	15466
914.793	15340
914.906	15355
915.019	15195
915.132	15066
915.245	15188
915.358	15104
915.47	15127
915.583	15074
915.696	15211
915.809	15272
915.921	15291
916.034	15039
916.146	14948
916.259	14982
916.371	15161
916.483	15169
916.595	15013
916.708	14910
916.82	15028
916.932	15047
917.044	14933
917.156	14998
917.268	14887
917.38	14758
917.491	14811
917.603	14868
917.715	14921
917.826	14960
917.938	14731
918.049	14583
918.161	14716
918.272	14918
918.384	14880
918.495	14777
918.606	14571
918.717	14511
918.828	14545
918.939	14568
919.05	14450
919.161	14473
919.272	14385
919.383	14431
919.494	14541
919.604	14815
919.715	14549
919.826	14499
919.936	14499
920.047	14663
920.157	14644
920.267	14670
920.378	14549
920.488	14412
920.598	14693
920.708	14853
920.818	14640
920.928	14667
921.038	14921
921.148	14758
921.258	14514
921.368	14396
921.477	14225
921.587	14298
921.697	14138
921.806	14290
921.916	14180
922.025	13970
922.134	13974
922.244	13909
922.353	13925
922.462	13852
922.571	13734
922.68	13666
922.789	13590
922.898	13578
923.007	13483
923.116	13597
923.224	13468
923.333	13476
923.442	13343
923.55	13419
923.659	13350
923.767	13460
923.876	13392
923.984	13377
924.092	13247
924.201	13282
924.309	13327
924.417	13304
924.525	13168
924.633	13324
924.741	13887
924.849	13057
924.956	13091
925.064	12977
925.172	12985
925.279	12966
925.387	12966
925.494	13031
925.602	13072
925.709	13050
925.816	12798
925.924	12924
926.031	13061
926.138	12935
926.245	12993
926.352	12886
926.459	12894
926.566	12962
926.673	12821
926.779	12684
926.886	12677
926.993	12597
927.099	12498
927.206	12407
927.312	12506
927.419	12494
927.525	12544
927.631	12574
927.737	12456
927.843	12437
927.95	12266
928.056	12403
928.162	12384
928.267	12441
928.373	13042
928.479	12429
928.585	12216
928.69	12342
928.796	12407
928.901	12228
929.007	12190
929.112	12163
929.218	12209
929.323	12098
929.428	12072
929.533	12144
929.638	11984
929.743	12041
929.848	12133
929.953	12083
930.058	12011
930.163	11752
930.267	11794
930.372	11878
930.477	11710
930.581	11961
930.685	11824
930.79	11642
930.894	11627
930.998	11589
931.103	11783
931.207	11406
931.311	11299
931.415	11292
931.519	11071
931.623	10961
