Data from test_V78500241_3415.txt Node
Date: Fri Mar 25 15:33:38 CST 2022
User: usil
Spectrometer: V785-0024
Trigger mode: 0
Integration Time (sec): 4.000000E-1
Scans to average: 1
Nonlinearity correction enabled: false
Boxcar width: 0
Storing dark spectrum: false
XAxis mode: Wavelengths
Number of Pixels in Spectrum: 1024
>>>>>Begin Spectral Data<<<<<
801.071	27332
801.214	27291
801.356	26853
801.499	26948
801.641	26773
801.783	26743
801.926	26651
802.068	26708
802.211	26682
802.353	26754
802.496	26503
802.638	26469
802.78	26469
802.923	26355
803.065	26225
803.208	26218
803.35	26271
803.492	26461
803.635	26731
803.777	26389
803.919	26575
804.061	26963
804.204	26549
804.346	26480
804.488	26492
804.63	26488
804.773	26503
804.915	26575
805.057	26598
805.199	26415
805.341	26590
805.483	26697
805.626	26701
805.768	26438
805.91	26731
806.052	26609
806.194	26594
806.336	26807
806.478	26689
806.62	26636
806.762	26746
806.904	26842
807.046	27256
807.188	27032
807.33	27112
807.472	27306
807.614	26944
807.756	27169
807.898	26765
808.04	26815
808.182	26792
808.324	26956
808.465	27051
808.607	27051
808.749	27272
808.891	27199
809.033	27393
809.174	27363
809.316	27256
809.458	27279
809.6	27127
809.741	27450
809.883	27329
810.025	27481
810.166	27450
810.308	27545
810.45	27386
810.591	27378
810.733	27363
810.875	27291
811.016	27207
811.158	27268
811.299	27310
811.441	27329
811.582	27272
811.724	27294
811.865	27291
812.007	27146
812.148	27218
812.29	27355
812.431	27351
812.573	27370
812.714	27656
812.855	27774
812.997	27625
813.138	27857
813.279	27717
813.421	27755
813.562	27603
813.703	27572
813.845	27481
813.986	27180
814.127	26937
814.268	27013
814.41	27043
814.551	26788
814.692	26971
814.833	26708
814.974	26921
815.115	26891
815.256	26788
815.397	26758
815.539	26724
815.68	26659
815.821	26697
815.962	26701
816.103	26598
816.244	26526
816.385	26476
816.526	26396
816.666	26077
816.807	26161
816.948	26252
817.089	26248
817.23	26088
817.371	26210
817.512	26092
817.653	26062
817.793	26058
817.934	26142
818.075	26164
818.216	26115
818.356	26096
818.497	26138
818.638	25955
818.778	25940
818.919	25906
819.06	25902
819.2	26149
819.341	26081
819.481	26050
819.622	26210
819.762	26431
819.903	26473
820.043	26210
820.184	26214
820.324	26381
820.465	26347
820.605	26301
820.746	26138
820.886	26263
821.026	26149
821.167	26161
821.307	26301
821.447	26119
821.588	26020
821.728	26031
821.868	25799
822.008	25841
822.149	25620
822.289	25559
822.429	25354
822.569	25369
822.709	25217
822.849	25194
822.99	25148
823.13	25091
823.27	25091
823.41	24905
823.55	24981
823.69	24863
823.83	24962
823.97	24825
824.11	24760
824.25	24646
824.389	24840
824.529	24817
824.669	24703
824.809	24787
824.949	24814
825.089	24806
825.228	24734
825.368	24555
825.508	24631
825.648	24597
825.787	24589
825.927	24623
826.067	24654
826.206	24608
826.346	24578
826.485	24715
826.625	24661
826.765	24681
826.904	24566
827.044	24334
827.183	24334
827.323	24353
827.462	24399
827.601	24311
827.741	24308
827.88	24334
828.02	24190
828.159	24334
828.298	24376
828.437	24308
828.577	24213
828.716	24486
828.855	24190
828.994	24038
829.134	24091
829.273	24087
829.412	24026
829.551	24098
829.69	23950
829.829	24087
829.968	24117
830.107	24136
830.246	24038
830.385	24049
830.524	23950
830.663	23809
830.802	23779
830.941	23596
831.08	23600
831.219	23710
831.357	23722
831.496	23939
831.635	23661
831.774	23577
831.913	23543
832.051	23482
832.19	23452
832.329	23482
832.467	23436
832.606	23273
832.744	23334
832.883	23315
833.022	23376
833.16	23387
833.299	23402
833.437	23299
833.576	23402
833.714	23383
833.852	23318
833.991	23551
834.129	23478
834.267	23433
834.406	23376
834.544	23414
834.682	23452
834.821	23433
834.959	23512
835.097	23471
835.235	23383
835.373	23440
835.511	23379
835.65	23208
835.788	23330
835.926	23178
836.064	23124
836.202	23010
836.34	23315
836.478	23337
836.615	23048
836.753	23273
836.891	23330
837.029	23235
837.167	23193
837.305	23258
837.443	23128
837.58	23090
837.718	23029
837.856	23136
837.993	22949
838.131	23094
838.269	22984
838.406	23033
838.544	22839
838.681	22919
838.819	22691
838.956	22664
839.094	22531
839.231	22668
839.369	22816
839.506	22949
839.643	22866
839.781	22596
839.918	22561
840.055	22542
840.193	22622
840.33	22573
840.467	22519
840.604	22603
840.742	22706
840.879	22436
841.016	22386
841.153	22291
841.29	22656
841.427	22554
841.564	22546
841.701	22466
841.838	22405
841.975	22432
842.112	22413
842.249	22356
842.385	22280
842.522	22443
842.659	22352
842.796	22272
842.933	22249
843.069	22272
843.206	22242
843.343	22344
843.479	22280
843.616	22192
843.752	21998
843.889	22010
844.025	22230
844.162	21880
844.298	22109
844.435	22013
844.571	22017
844.708	22048
844.844	22169
844.98	22166
845.117	22093
845.253	22078
845.389	21861
845.525	22021
845.661	21991
845.798	21793
845.934	21797
846.07	21743
846.206	21838
846.342	21979
846.478	21770
846.614	21595
846.75	21523
846.886	21428
847.022	21583
847.158	21599
847.294	21572
847.429	21625
847.565	21500
847.701	21762
847.837	21397
847.972	21180
848.108	21424
848.244	21450
848.379	21230
848.515	21028
848.65	21203
848.786	21032
848.921	21074
849.057	21176
849.192	21154
849.328	21123
849.463	21222
849.598	21062
849.734	21070
849.869	20979
850.004	20876
850.14	20937
850.275	20868
850.41	20853
850.545	20948
850.68	20849
850.815	20975
850.95	20944
851.085	21062
851.22	21028
851.355	20883
851.49	20933
851.625	20853
851.76	20891
851.895	20796
852.03	20815
852.165	20956
852.299	20857
852.434	20754
852.569	20941
852.703	21005
852.838	20982
852.973	21135
853.107	20986
853.242	20785
853.376	20746
853.511	20640
853.645	20735
853.78	20845
853.914	20853
854.048	20701
854.183	20674
854.317	20716
854.451	20861
854.585	20845
854.72	20773
854.854	20845
854.988	20613
855.122	20632
855.256	20495
855.39	20648
855.524	20899
855.658	20819
855.792	20705
855.926	20819
856.06	20788
856.194	20765
856.327	20674
856.461	20648
856.595	20640
856.729	20651
856.862	20876
856.996	20716
857.13	20792
857.263	20925
857.397	20735
857.53	20735
857.664	20781
857.797	20674
857.931	20769
858.064	20701
858.197	20804
858.331	20735
858.464	20579
858.597	20579
858.731	20640
858.864	20724
858.997	20579
859.13	20781
859.263	20632
859.396	20781
859.529	20678
859.662	20629
859.795	20636
859.928	20838
860.061	20819
860.194	20868
860.327	20777
860.46	20800
860.592	20895
860.725	20880
860.858	20834
860.99	20830
861.123	20682
861.256	20667
861.388	20746
861.521	21249
861.653	20568
861.786	20587
861.918	20514
862.05	20629
862.183	20663
862.315	20655
862.447	20724
862.58	20678
862.712	20514
862.844	20358
862.976	20514
863.108	20507
863.24	20952
863.372	20328
863.504	20556
863.636	20381
863.768	20431
863.9	20598
864.032	20343
864.164	20396
864.296	20370
864.428	20438
864.559	20446
864.691	20541
864.823	20400
864.954	20301
865.086	20385
865.217	20343
865.349	20347
865.48	20275
865.612	20431
865.743	20609
865.875	20370
866.006	20336
866.137	20324
866.269	20358
866.4	20389
866.531	20324
866.662	20389
866.793	20229
866.924	20305
867.055	20305
867.186	20290
867.317	20187
867.448	20142
867.579	20100
867.71	20240
867.841	20191
867.972	20320
868.103	20244
868.233	20275
868.364	20298
868.495	20370
868.625	20549
868.756	20678
868.886	20446
869.017	20499
869.147	20575
869.278	20705
869.408	20625
869.539	20568
869.669	20549
869.799	20556
869.929	20712
870.06	20689
870.19	20823
870.32	20819
870.45	20925
870.58	20872
870.71	21036
870.84	21047
870.97	21028
871.1	20895
871.23	20986
871.36	21077
871.489	21051
871.619	21150
871.749	21119
871.879	21199
872.008	21252
872.138	21192
872.267	21131
872.397	20963
872.526	20925
872.656	21062
872.785	20948
872.915	21199
873.044	21199
873.173	21146
873.303	21165
873.432	21222
873.561	21310
873.69	21169
873.819	21176
873.948	21283
874.077	21214
874.206	21184
874.335	21150
874.464	21218
874.593	21488
874.722	21431
874.851	21469
874.979	21420
875.108	21450
875.237	21397
875.365	21218
875.494	21340
875.623	21367
875.751	21405
875.88	21420
876.008	21534
876.136	21641
876.265	21755
876.393	21842
876.521	21838
876.65	21937
876.778	21899
876.906	21831
877.034	21709
877.162	21800
877.29	21629
877.418	21682
877.546	21774
877.674	21705
877.802	21667
877.93	21747
878.058	21660
878.185	21583
878.313	21778
878.441	21751
878.568	21656
878.696	21743
878.824	21873
878.951	21781
879.079	21922
879.206	22090
879.333	21956
879.461	21838
879.588	21941
879.715	22040
879.842	21960
879.97	21842
880.097	21583
880.224	21580
880.351	21583
880.478	21667
880.605	21557
880.732	21549
880.859	21797
880.986	21523
881.112	21629
881.239	21397
881.366	21287
881.493	21252
881.619	21135
881.746	21188
881.872	21138
881.999	21146
882.125	21077
882.252	21218
882.378	21028
882.505	21169
882.631	20963
882.757	20880
882.883	21032
883.01	20883
883.136	20861
883.262	20853
883.388	20712
883.514	20933
883.64	20826
883.766	20769
883.892	20674
884.018	20659
884.143	20910
884.269	20853
884.395	20552
884.52	20545
884.646	20568
884.772	20446
884.897	20404
885.023	20446
885.148	20606
885.274	20556
885.399	20648
885.524	20522
885.65	20549
885.775	20552
885.9	20473
886.025	20602
886.15	20674
886.275	20431
886.4	20431
886.525	20385
886.65	20400
886.775	20298
886.9	20663
887.025	20705
887.149	20446
887.274	20252
887.399	20206
887.523	20408
887.648	20233
887.773	20290
887.897	20336
888.021	20214
888.146	20233
888.27	20294
888.395	20396
888.519	20324
888.643	20301
888.767	20267
888.891	20210
889.015	20107
889.139	20195
889.263	20046
889.387	20199
889.511	20294
889.635	20218
889.759	20084
889.883	20062
890.006	20103
890.13	20191
890.254	19944
890.377	19928
890.501	19913
890.624	19803
890.748	19887
890.871	19723
890.995	19788
891.118	19685
891.241	19723
891.364	19700
891.488	19818
891.611	19738
891.734	19681
891.857	19734
891.98	19689
892.103	19784
892.226	19685
892.349	19586
892.471	19487
892.594	19575
892.717	19605
892.839	19635
892.962	19708
893.085	19715
893.207	19613
893.33	19495
893.452	19563
893.575	19635
893.697	19582
893.819	19795
893.941	19841
894.064	19776
894.186	19567
894.308	19567
894.43	19753
894.552	19795
894.674	19662
894.796	19548
894.918	19567
895.04	19525
895.161	19715
895.283	19635
895.405	19609
895.526	19601
895.648	19590
895.769	19590
895.891	19666
896.012	19708
896.134	19731
896.255	19647
896.376	19639
896.498	19693
896.619	19681
896.74	19643
896.861	19765
896.982	19906
897.103	20031
897.224	19925
897.345	19803
897.466	19742
897.587	19902
897.708	19963
897.828	19894
897.949	19761
898.07	19807
898.19	19795
898.311	19837
898.431	19845
898.552	19765
898.672	19860
898.792	20058
898.913	19852
899.033	19674
899.153	19670
899.273	19514
899.393	19499
899.513	19677
899.633	19582
899.753	19571
899.873	19586
899.993	19670
900.113	19575
900.232	19590
900.352	19537
900.472	19419
900.591	19362
900.711	19324
900.83	19346
900.95	19411
901.069	19422
901.189	19350
901.308	19194
901.427	18909
901.546	18928
901.665	18958
901.784	19065
901.904	18840
902.023	18665
902.141	18677
902.26	18582
902.379	18612
902.498	18380
902.617	18391
902.735	18563
902.854	18486
902.973	18426
903.091	18300
903.21	18186
903.328	18163
903.446	18140
903.565	18057
903.683	17958
903.801	17821
903.919	17927
904.038	17847
904.156	17703
904.274	17821
904.392	17703
904.51	17695
904.627	17665
904.745	17767
904.863	17805
904.981	17665
905.098	17501
905.216	17509
905.334	17444
905.451	17429
905.569	17318
905.686	17429
905.803	17440
905.921	17159
906.038	17246
906.155	17353
906.272	17197
906.389	17124
906.506	17003
906.623	16961
906.74	16942
906.857	16892
906.974	16835
907.091	16949
907.208	17014
907.324	16961
907.441	16930
907.557	16748
907.674	16611
907.79	16687
907.907	16668
908.023	16713
908.139	16683
908.256	16634
908.372	16577
908.488	16573
908.604	16428
908.72	16348
908.836	16478
908.952	16310
909.068	16428
909.184	16432
909.3	16432
909.415	16421
909.531	16451
909.647	16185
909.762	16150
909.878	16071
909.993	16082
910.108	16101
910.224	16055
910.339	16135
910.454	15998
910.57	15953
910.685	15785
910.8	16120
910.915	16109
911.03	15956
911.145	15743
911.259	15819
911.374	15751
911.489	15778
911.604	15553
911.718	15477
911.833	15492
911.947	15435
912.062	15382
912.176	15496
912.291	15515
912.405	15515
912.519	15766
912.633	15610
912.748	15507
912.862	15481
912.976	15317
913.09	15226
913.204	15275
913.318	15332
913.431	15439
913.545	15416
913.659	15382
913.772	15252
913.886	15135
914	15066
914.113	15283
914.226	15283
914.34	15222
914.453	14967
914.566	15203
914.68	15039
914.793	14990
914.906	14842
915.019	14777
915.132	14670
915.245	14636
915.358	14792
915.47	14697
915.583	14750
915.696	14651
915.809	14838
915.921	14948
916.034	14644
916.146	14648
916.259	14575
916.371	14701
916.483	14651
916.595	14545
916.708	14583
916.82	14514
916.932	14526
917.044	14530
917.156	14480
917.268	14412
917.38	14351
917.491	14408
917.603	14366
917.715	14427
917.826	14507
917.938	14252
918.049	14240
918.161	14370
918.272	14404
918.384	14415
918.495	14309
918.606	14233
918.717	14084
918.828	14256
918.939	14229
919.05	14084
919.161	14088
919.272	13917
919.383	14031
919.494	14202
919.604	14381
919.715	14065
919.826	14031
919.936	14145
920.047	14142
920.157	14115
920.267	14313
920.378	14142
920.488	14183
920.598	14252
920.708	14465
920.818	14237
920.928	14313
921.038	14484
921.148	14377
921.258	14073
921.368	13959
921.477	13811
921.587	13837
921.697	13772
921.806	13951
921.916	13742
922.025	13540
922.134	13495
922.244	13540
922.353	13525
922.462	13331
922.571	13312
922.68	13346
922.789	13221
922.898	13362
923.007	13122
923.116	13202
923.224	13179
923.333	13099
923.442	13019
923.55	12947
923.659	13080
923.767	12996
923.876	12859
923.984	13107
924.092	12951
924.201	12966
924.309	12920
924.417	12897
924.525	12837
924.633	12829
924.741	13822
924.849	12608
924.956	12833
925.064	12578
925.172	12494
925.279	12616
925.387	12593
925.494	12589
925.602	12878
925.709	12684
925.816	12517
925.924	12540
926.031	12620
926.138	12559
926.245	12509
926.352	12486
926.459	12650
926.566	12662
926.673	12483
926.779	12300
926.886	12334
926.993	12224
927.099	12114
927.206	12163
927.312	12129
927.419	12171
927.525	12178
927.631	12140
927.737	12068
927.843	12041
927.95	11897
928.056	12045
928.162	11988
928.267	12057
928.373	12574
928.479	12053
928.585	11775
928.69	11965
928.796	12007
928.901	11969
929.007	11764
929.112	11958
929.218	11794
929.323	11733
929.428	11710
929.533	11832
929.638	11684
929.743	11688
929.848	11760
929.953	11737
930.058	11627
930.163	11395
930.267	11406
930.372	11554
930.477	11356
930.581	11615
930.685	11512
930.79	11334
930.894	11417
930.998	11307
931.103	11395
931.207	11132
931.311	11018
931.415	10904
931.519	10729
931.623	10729
