Data from test_V78500241_2177.txt Node
Date: Fri Mar 25 15:25:01 CST 2022
User: usil
Spectrometer: V785-0024
Trigger mode: 0
Integration Time (sec): 4.000000E-1
Scans to average: 1
Nonlinearity correction enabled: false
Boxcar width: 0
Storing dark spectrum: false
XAxis mode: Wavelengths
Number of Pixels in Spectrum: 1024
>>>>>Begin Spectral Data<<<<<
801.071	27679
801.214	27770
801.356	27561
801.499	27408
801.641	27367
801.783	27302
801.926	27344
802.068	27173
802.211	27237
802.353	27207
802.496	26994
802.638	26899
802.78	26944
802.923	26872
803.065	26708
803.208	26682
803.35	26971
803.492	26998
803.635	27176
803.777	27058
803.919	27096
804.061	27408
804.204	27233
804.346	26982
804.488	26948
804.63	27157
804.773	26887
804.915	27074
805.057	27237
805.199	27039
805.341	27397
805.483	27283
805.626	27348
805.768	27104
805.91	27252
806.052	27233
806.194	27013
806.336	27374
806.478	27237
806.62	27024
806.762	27321
806.904	27523
807.046	27732
807.188	27755
807.33	27682
807.472	27747
807.614	27526
807.756	27606
807.898	27450
808.04	27496
808.182	27424
808.324	27553
808.465	27652
808.607	27682
808.749	27816
808.891	27876
809.033	27857
809.174	27732
809.316	27876
809.458	27892
809.6	27926
809.741	28032
809.883	27979
810.025	28074
810.166	28021
810.308	28124
810.45	27945
810.591	28040
810.733	27838
810.875	27819
811.016	27743
811.158	27736
811.299	27941
811.441	27994
811.582	27926
811.724	27793
811.865	27751
812.007	27854
812.148	27892
812.29	27895
812.431	27949
812.573	28147
812.714	28299
812.855	28462
812.997	28325
813.138	28618
813.279	28485
813.421	28310
813.562	28249
813.703	28143
813.845	28139
813.986	27876
814.127	27629
814.268	27530
814.41	27591
814.551	27534
814.692	27595
814.833	27420
814.974	27663
815.115	27477
815.256	27378
815.397	27306
815.539	27439
815.68	27302
815.821	27256
815.962	27416
816.103	27332
816.244	27199
816.385	27116
816.526	27104
816.666	26990
816.807	26727
816.948	26940
817.089	26921
817.23	26990
817.371	26746
817.512	26826
817.653	26773
817.793	26701
817.934	26754
818.075	26758
818.216	26705
818.356	26686
818.497	26705
818.638	26530
818.778	26560
818.919	26522
819.06	26495
819.2	26746
819.341	26750
819.481	26762
819.622	26899
819.762	27123
819.903	26994
820.043	26990
820.184	26971
820.324	26861
820.465	26880
820.605	26823
820.746	26834
820.886	26785
821.026	26998
821.167	26918
821.307	26925
821.447	26845
821.588	26750
821.728	26545
821.868	26469
822.008	26275
822.149	26343
822.289	26263
822.429	26062
822.569	25989
822.709	25928
822.849	25860
822.99	25727
823.13	25696
823.27	25772
823.41	25616
823.55	25483
823.69	25658
823.83	25597
823.97	25479
824.11	25343
824.25	25346
824.389	25278
824.529	25540
824.669	25369
824.809	25472
824.949	25464
825.089	25441
825.228	25453
825.368	25240
825.508	25179
825.648	25308
825.787	25384
825.927	25358
826.067	25183
826.206	25198
826.346	25194
826.485	25259
826.625	25297
826.765	25346
826.904	25202
827.044	25069
827.183	25050
827.323	24875
827.462	25084
827.601	24985
827.741	24970
827.88	24992
828.02	24916
828.159	24954
828.298	24977
828.437	24909
828.577	24871
828.716	25031
828.855	25019
828.994	24677
829.134	24711
829.273	24566
829.412	24661
829.551	24597
829.69	24677
829.829	24764
829.968	24791
830.107	24821
830.246	24642
830.385	24650
830.524	24494
830.663	24570
830.802	24437
830.941	24319
831.08	24357
831.219	24319
831.357	24224
831.496	24505
831.635	24152
831.774	24270
831.913	24209
832.051	24041
832.19	24034
832.329	24209
832.467	23984
832.606	23927
832.744	23912
832.883	23802
833.022	23885
833.16	23923
833.299	24064
833.437	23958
833.576	23920
833.714	23954
833.852	24022
833.991	24068
834.129	23965
834.267	24076
834.406	23992
834.544	23908
834.682	24030
834.821	24022
834.959	24095
835.097	23965
835.235	23999
835.373	23996
835.511	24041
835.65	23836
835.788	23809
835.926	23676
836.064	23630
836.202	23748
836.34	23828
836.478	23866
836.615	23756
836.753	23882
836.891	23954
837.029	23752
837.167	23882
837.305	23703
837.443	23592
837.58	23615
837.718	23779
837.856	23623
837.993	23573
838.131	23581
838.269	23486
838.406	23562
838.544	23417
838.681	23368
838.819	23277
838.956	23185
839.094	23181
839.231	23162
839.369	23246
839.506	23573
839.643	23379
839.781	23090
839.918	23117
840.055	23079
840.193	23086
840.33	22976
840.467	23223
840.604	23098
840.742	23337
840.879	22869
841.016	22965
841.153	23022
841.29	23166
841.427	23166
841.564	23086
841.701	23052
841.838	22953
841.975	22980
842.112	22938
842.249	22805
842.385	22752
842.522	23037
842.659	22877
842.796	22672
842.933	22793
843.069	22691
843.206	22774
843.343	22972
843.479	22877
843.616	22816
843.752	22607
843.889	22725
844.025	22733
844.162	22592
844.298	22736
844.435	22546
844.571	22603
844.708	22554
844.844	22683
844.98	22759
845.117	22656
845.253	22584
845.389	22405
845.525	22402
845.661	22497
845.798	22268
845.934	22417
846.07	22249
846.206	22253
846.342	22432
846.478	22257
846.614	22105
846.75	22048
846.886	22036
847.022	22131
847.158	22093
847.294	21945
847.429	22059
847.565	22040
847.701	22246
847.837	21804
847.972	21701
848.108	21838
848.244	21774
848.379	21610
848.515	21709
848.65	21667
848.786	21686
848.921	21614
849.057	21717
849.192	21686
849.328	21580
849.463	21656
849.598	21504
849.734	21557
849.869	21526
850.004	21351
850.14	21378
850.275	21450
850.41	21237
850.545	21359
850.68	21283
850.815	21466
850.95	21428
851.085	21622
851.22	21606
851.355	21435
851.49	21374
851.625	21367
851.76	21504
851.895	21199
852.03	21268
852.165	21477
852.299	21435
852.434	21466
852.569	21496
852.703	21439
852.838	21435
852.973	21393
853.107	21439
853.242	21378
853.376	21272
853.511	21180
853.645	21066
853.78	21317
853.914	21222
854.048	21230
854.183	21245
854.317	21272
854.451	21431
854.585	21256
854.72	21184
854.854	21340
854.988	21119
855.122	21100
855.256	21043
855.39	21157
855.524	21207
855.658	21176
855.792	21367
855.926	21218
856.06	21211
856.194	21294
856.327	21176
856.461	21211
856.595	21188
856.729	21218
856.862	21237
856.996	21218
857.13	21180
857.263	21302
857.397	21332
857.53	21245
857.664	21264
857.797	21302
857.931	21218
858.064	21188
858.197	21374
858.331	21192
858.464	21176
858.597	21032
858.731	21302
858.864	21169
858.997	21237
859.13	21195
859.263	21184
859.396	21264
859.529	21142
859.662	21192
859.795	20971
859.928	21146
860.061	21275
860.194	21389
860.327	21157
860.46	21283
860.592	21310
860.725	21344
860.858	21382
860.99	21161
861.123	21112
861.256	21146
861.388	21135
861.521	21835
861.653	21051
861.786	21013
861.918	21070
862.05	21127
862.183	21176
862.315	21207
862.447	21104
862.58	21245
862.712	20990
862.844	20929
862.976	21096
863.108	20971
863.24	21355
863.372	20933
863.504	20887
863.636	20918
863.768	20960
863.9	20883
864.032	20880
864.164	20781
864.296	20880
864.428	21039
864.559	21062
864.691	20979
864.823	20868
864.954	20887
865.086	20948
865.217	20735
865.349	20720
865.48	20800
865.612	20765
865.743	20986
865.875	20750
866.006	20686
866.137	20830
866.269	20739
866.4	20754
866.531	20678
866.662	20712
866.793	20727
866.924	20765
867.055	20659
867.186	20762
867.317	20758
867.448	20788
867.579	20655
867.71	20689
867.841	20659
867.972	20724
868.103	20651
868.233	20708
868.364	20785
868.495	20849
868.625	20899
868.756	21104
868.886	20944
869.017	21043
869.147	21074
869.278	21100
869.408	21066
869.539	21013
869.669	21074
869.799	21123
869.929	21112
870.06	21077
870.19	21317
870.32	21332
870.45	21378
870.58	21306
870.71	21454
870.84	21610
870.97	21408
871.1	21291
871.23	21542
871.36	21610
871.489	21405
871.619	21557
871.749	21538
871.879	21614
872.008	21614
872.138	21591
872.267	21682
872.397	21488
872.526	21344
872.656	21477
872.785	21469
872.915	21538
873.044	21591
873.173	21576
873.303	21724
873.432	21633
873.561	21614
873.69	21564
873.819	21732
873.948	21591
874.077	21728
874.206	21572
874.335	21538
874.464	21709
874.593	21823
874.722	21785
874.851	21717
874.979	21720
875.108	21816
875.237	21838
875.365	21686
875.494	21800
875.623	22002
875.751	21724
875.88	21949
876.008	21930
876.136	22048
876.265	22257
876.393	22348
876.521	22291
876.65	22405
876.778	22261
876.906	22204
877.034	22112
877.162	22143
877.29	22131
877.418	22249
877.546	22196
877.674	22048
877.802	22082
877.93	22135
878.058	22181
878.185	22063
878.313	22177
878.441	22074
878.568	22082
878.696	22101
878.824	22109
878.951	22325
879.079	22303
879.206	22451
879.333	22238
879.461	22196
879.588	22325
879.715	22325
879.842	22538
879.97	22226
880.097	21975
880.224	22055
880.351	22078
880.478	21968
880.605	21968
880.732	22067
880.859	22162
880.986	21934
881.112	21934
881.239	21915
881.366	21819
881.493	21625
881.619	21504
881.746	21656
881.872	21443
881.999	21542
882.125	21481
882.252	21507
882.378	21671
882.505	21583
882.631	21408
882.757	21203
882.883	21291
883.01	21344
883.136	21226
883.262	21157
883.388	21108
883.514	21222
883.64	21310
883.766	21150
883.892	21081
884.018	21203
884.143	21165
884.269	21268
884.395	21028
884.52	21028
884.646	20918
884.772	20838
884.897	20861
885.023	20872
885.148	20998
885.274	21047
885.399	21043
885.524	20986
885.65	20925
885.775	20899
885.9	20910
886.025	20967
886.15	20994
886.275	20872
886.4	20811
886.525	20937
886.65	20788
886.775	20819
886.9	21017
887.025	21135
887.149	20769
887.274	20845
887.399	20716
887.523	20648
887.648	20644
887.773	20503
887.897	20769
888.021	20682
888.146	20568
888.27	20701
888.395	20853
888.519	20686
888.643	20720
888.767	20629
888.891	20568
889.015	20526
889.139	20579
889.263	20461
889.387	20590
889.511	20731
889.635	20621
889.759	20507
889.883	20442
890.006	20389
890.13	20663
890.254	20442
890.377	20343
890.501	20275
890.624	20107
890.748	20362
890.871	20176
890.995	20024
891.118	19970
891.241	20088
891.364	19982
891.488	20221
891.611	20012
891.734	20069
891.857	20172
891.98	19967
892.103	20050
892.226	20031
892.349	19982
892.471	19757
892.594	19807
892.717	20039
892.839	19883
892.962	19940
893.085	19967
893.207	19967
893.33	19936
893.452	19894
893.575	19909
893.697	19959
893.819	20103
893.941	20199
894.064	20130
894.186	19894
894.308	19925
894.43	19974
894.552	20054
894.674	19993
894.796	19883
894.918	19970
895.04	19963
895.161	20092
895.283	19955
895.405	19913
895.526	19967
895.648	19989
895.769	19928
895.891	19997
896.012	20088
896.134	19963
896.255	19909
896.376	19959
896.498	19982
896.619	19974
896.74	19944
896.861	19955
896.982	20427
897.103	20366
897.224	20252
897.345	20202
897.466	20103
897.587	20180
897.708	20389
897.828	20267
897.949	20134
898.07	20115
898.19	20134
898.311	20282
898.431	20172
898.552	20180
898.672	20225
898.792	20275
898.913	20240
899.033	20024
899.153	19955
899.273	19860
899.393	19955
899.513	20050
899.633	20027
899.753	20062
899.873	19799
899.993	19921
900.113	19871
900.232	19928
900.352	19887
900.472	19784
900.591	19700
900.711	19746
900.83	19693
900.95	19856
901.069	19826
901.189	19605
901.308	19411
901.427	19308
901.546	19384
901.665	19301
901.784	19358
901.904	19255
902.023	19110
902.141	18981
902.26	18871
902.379	18970
902.498	18787
902.617	18802
902.735	18920
902.854	18817
902.973	18696
903.091	18559
903.21	18506
903.328	18521
903.446	18376
903.565	18369
903.683	18323
903.801	18216
903.919	18277
904.038	18315
904.156	17980
904.274	18072
904.392	18007
904.51	17996
904.627	18087
904.745	18095
904.863	18076
904.981	17882
905.098	17756
905.216	17775
905.334	17802
905.451	17695
905.569	17729
905.686	17779
905.803	17703
905.921	17535
906.038	17623
906.155	17608
906.272	17402
906.389	17577
906.506	17200
906.623	17326
906.74	17242
906.857	17235
906.974	17216
907.091	17379
907.208	17429
907.324	17345
907.441	17170
907.557	17067
907.674	17022
907.79	16949
907.907	16987
908.023	17041
908.139	17018
908.256	16995
908.372	16885
908.488	16896
908.604	16698
908.72	16645
908.836	16687
908.952	16702
909.068	16733
909.184	16858
909.3	16710
909.415	16729
909.531	16717
909.647	16428
909.762	16504
909.878	16455
909.993	16447
910.108	16367
910.224	16276
910.339	16478
910.454	16249
910.57	16154
910.685	16181
910.8	16451
910.915	16440
911.03	16207
911.145	16097
911.259	16131
911.374	15998
911.489	15918
911.604	15835
911.718	15717
911.833	15835
911.947	15660
912.062	15584
912.176	15739
912.291	15857
912.405	15793
912.519	15907
912.633	15979
912.748	15800
912.862	15766
912.976	15637
913.09	15378
913.204	15526
913.318	15667
913.431	15690
913.545	15675
913.659	15736
913.772	15519
913.886	15428
914	15348
914.113	15462
914.226	15523
914.34	15542
914.453	15321
914.566	15348
914.68	15237
914.793	15176
914.906	15093
915.019	14944
915.132	14834
915.245	15142
915.358	15024
915.47	14925
915.583	15070
915.696	15009
915.809	15074
915.921	15131
916.034	14899
916.146	14807
916.259	14861
916.371	14944
916.483	14899
916.595	14758
916.708	14838
916.82	14826
916.932	14746
917.044	14849
917.156	14788
917.268	14659
917.38	14689
917.491	14636
917.603	14724
917.715	14731
917.826	14815
917.938	14632
918.049	14465
918.161	14640
918.272	14750
918.384	14693
918.495	14484
918.606	14438
918.717	14305
918.828	14343
918.939	14484
919.05	14377
919.161	14423
919.272	14229
919.383	14214
919.494	14465
919.604	14507
919.715	14396
919.826	14286
919.936	14339
920.047	14377
920.157	14370
920.267	14530
920.378	14332
920.488	14366
920.598	14511
920.708	14670
920.818	14579
920.928	14564
921.038	14617
921.148	14613
921.258	14377
921.368	14229
921.477	14149
921.587	14115
921.697	14043
921.806	14202
921.916	13947
922.025	13795
922.134	13746
922.244	13715
922.353	13757
922.462	13700
922.571	13620
922.68	13449
922.789	13422
922.898	13426
923.007	13354
923.116	13415
923.224	13384
923.333	13411
923.442	13304
923.55	13240
923.659	13217
923.767	13282
923.876	13145
923.984	13266
924.092	13122
924.201	13145
924.309	13171
924.417	13072
924.525	13076
924.633	13038
924.741	13822
924.849	12852
924.956	13012
925.064	12810
925.172	12719
925.279	12886
925.387	12833
925.494	12825
925.602	13000
925.709	12871
925.816	12669
925.924	12802
926.031	12871
926.138	12772
926.245	12787
926.352	12764
926.459	12806
926.566	12829
926.673	12665
926.779	12597
926.886	12597
926.993	12429
927.099	12422
927.206	12323
927.312	12334
927.419	12464
927.525	12429
927.631	12448
927.737	12289
927.843	12247
927.95	12159
928.056	12209
928.162	12235
928.267	12330
928.373	12939
928.479	12209
928.585	12133
928.69	12235
928.796	12239
928.901	12064
929.007	11802
929.112	12095
929.218	12003
929.323	11946
929.428	11904
929.533	12064
929.638	11885
929.743	11878
929.848	11977
929.953	11882
930.058	11824
930.163	11684
930.267	11665
930.372	11764
930.477	11615
930.581	11916
930.685	11676
930.79	11554
930.894	11566
930.998	11482
931.103	11589
931.207	11307
931.311	11197
931.415	11083
931.519	10976
931.623	10980
