Data from test_V78500241_654.txt Node
Date: Fri Mar 25 15:14:24 CST 2022
User: usil
Spectrometer: V785-0024
Trigger mode: 0
Integration Time (sec): 4.000000E-1
Scans to average: 1
Nonlinearity correction enabled: false
Boxcar width: 0
Storing dark spectrum: false
XAxis mode: Wavelengths
Number of Pixels in Spectrum: 1024
>>>>>Begin Spectral Data<<<<<
801.071	27477
801.214	27492
801.356	27382
801.499	27188
801.641	27081
801.783	27089
801.926	27116
802.068	26998
802.211	27028
802.353	26986
802.496	26670
802.638	26689
802.78	26564
802.923	26697
803.065	26670
803.208	26739
803.35	26811
803.492	26811
803.635	26743
803.777	26739
803.919	26883
804.061	27176
804.204	26872
804.346	26777
804.488	26842
804.63	26773
804.773	26773
804.915	26868
805.057	26940
805.199	26883
805.341	27009
805.483	27077
805.626	26933
805.768	26933
805.91	26971
806.052	26845
806.194	27066
806.336	27116
806.478	26929
806.62	26986
806.762	27135
806.904	27268
807.046	27644
807.188	27496
807.33	27507
807.472	27386
807.614	27416
807.756	27427
807.898	27169
808.04	27279
808.182	27024
808.324	27218
808.465	27275
808.607	27488
808.749	27595
808.891	27580
809.033	27819
809.174	27629
809.316	27633
809.458	27751
809.6	27663
809.741	27835
809.883	27732
810.025	27998
810.166	27930
810.308	27861
810.45	27937
810.591	27918
810.733	27819
810.875	27667
811.016	27660
811.158	27637
811.299	27663
811.441	27797
811.582	27808
811.724	27557
811.865	27526
812.007	27580
812.148	27641
812.29	27595
812.431	27728
812.573	28021
812.714	28093
812.855	28158
812.997	28310
813.138	28599
813.279	28299
813.421	28303
813.562	28230
813.703	28032
813.845	28002
813.986	27580
814.127	27272
814.268	27298
814.41	27389
814.551	27302
814.692	27359
814.833	27283
814.974	27325
815.115	27321
815.256	27226
815.397	27138
815.539	27268
815.68	27100
815.821	27104
815.962	27039
816.103	27024
816.244	27123
816.385	26925
816.526	26762
816.666	26716
816.807	26571
816.948	26678
817.089	26834
817.23	26625
817.371	26712
817.512	26579
817.653	26492
817.793	26549
817.934	26579
818.075	26590
818.216	26571
818.356	26670
818.497	26518
818.638	26343
818.778	26332
818.919	26412
819.06	26317
819.2	26564
819.341	26609
819.481	26629
819.622	26678
819.762	27020
819.903	26842
820.043	26796
820.184	26621
820.324	26667
820.465	26686
820.605	26746
820.746	26750
820.886	26678
821.026	26727
821.167	26746
821.307	26857
821.447	26549
821.588	26518
821.728	26347
821.868	26115
822.008	26119
822.149	25974
822.289	26069
822.429	25814
822.569	25849
822.709	25761
822.849	25548
822.99	25529
823.13	25655
823.27	25495
823.41	25544
823.55	25247
823.69	25426
823.83	25388
823.97	25301
824.11	25187
824.25	25274
824.389	25198
824.529	25434
824.669	25236
824.809	25247
824.949	25263
825.089	25308
825.228	25396
825.368	25133
825.508	24977
825.648	25053
825.787	25263
825.927	25061
826.067	25160
826.206	25118
826.346	25110
826.485	25156
826.625	24977
826.765	25228
826.904	25145
827.044	24848
827.183	24692
827.323	24688
827.462	24772
827.601	24814
827.741	24905
827.88	24856
828.02	24604
828.159	24840
828.298	24814
828.437	24833
828.577	24745
828.716	24897
828.855	24833
828.994	24623
829.134	24410
829.273	24684
829.412	24460
829.551	24551
829.69	24623
829.829	24509
829.968	24502
830.107	24589
830.246	24540
830.385	24448
830.524	24422
830.663	24346
830.802	24266
830.941	24121
831.08	24053
831.219	24087
831.357	24114
831.496	24296
831.635	24148
831.774	23999
831.913	23912
832.051	24007
832.19	23935
832.329	23893
832.467	23676
832.606	23809
832.744	23863
832.883	23737
833.022	23752
833.16	23843
833.299	23832
833.437	23775
833.576	23756
833.714	23882
833.852	23893
833.991	23912
834.129	23920
834.267	23984
834.406	23912
834.544	23851
834.682	23874
834.821	23794
834.959	23939
835.097	23828
835.235	23878
835.373	23889
835.511	23775
835.65	23821
835.788	23642
835.926	23543
836.064	23604
836.202	23604
836.34	23630
836.478	23718
836.615	23680
836.753	23608
836.891	23737
837.029	23779
837.167	23764
837.305	23668
837.443	23680
837.58	23543
837.718	23623
837.856	23581
837.993	23490
838.131	23459
838.269	23356
838.406	23433
838.544	23212
838.681	23185
838.819	23075
838.956	23079
839.094	22965
839.231	22999
839.369	23189
839.506	23440
839.643	23341
839.781	22995
839.918	22965
840.055	23010
840.193	22987
840.33	22892
840.467	22934
840.604	23003
840.742	23102
840.879	22889
841.016	22835
841.153	22847
841.29	22987
841.427	22752
841.564	22904
841.701	22927
841.838	22965
841.975	22812
842.112	22759
842.249	22744
842.385	22668
842.522	22858
842.659	22679
842.796	22702
842.933	22649
843.069	22573
843.206	22721
843.343	22710
843.479	22603
843.616	22615
843.752	22428
843.889	22531
844.025	22588
844.162	22561
844.298	22451
844.435	22443
844.571	22485
844.708	22527
844.844	22660
844.98	22516
845.117	22550
845.253	22440
845.389	22348
845.525	22306
845.661	22272
845.798	22253
845.934	22356
846.07	22169
846.206	22204
846.342	22375
846.478	22139
846.614	21979
846.75	21812
846.886	21899
847.022	22074
847.158	21865
847.294	21979
847.429	21876
847.565	21918
847.701	22211
847.837	21652
847.972	21717
848.108	21637
848.244	21698
848.379	21549
848.515	21595
848.65	21458
848.786	21473
848.921	21549
849.057	21633
849.192	21526
849.328	21587
849.463	21511
849.598	21431
849.734	21450
849.869	21378
850.004	21287
850.14	21310
850.275	21173
850.41	21310
850.545	21233
850.68	21264
850.815	21268
850.95	21241
851.085	21420
851.22	21389
851.355	21180
851.49	21184
851.625	21222
851.76	21195
851.895	21252
852.03	21173
852.165	21252
852.299	21329
852.434	21336
852.569	21325
852.703	21321
852.838	21294
852.973	21488
853.107	21393
853.242	21180
853.376	21165
853.511	21009
853.645	21051
853.78	21233
853.914	21093
854.048	21009
854.183	21173
854.317	21119
854.451	21214
854.585	21150
854.72	20994
854.854	21199
854.988	21020
855.122	21146
855.256	20941
855.39	21058
855.524	21104
855.658	21291
855.792	21055
855.926	21131
856.06	21074
856.194	21291
856.327	21116
856.461	21169
856.595	20982
856.729	21188
856.862	21214
856.996	21100
857.13	21283
857.263	21192
857.397	21077
857.53	21043
857.664	21150
857.797	21154
857.931	21245
858.064	21256
858.197	21169
858.331	21081
858.464	21051
858.597	20906
858.731	20975
858.864	21039
858.997	21077
859.13	21081
859.263	21013
859.396	21173
859.529	21112
859.662	21104
859.795	20963
859.928	21131
860.061	21226
860.194	21313
860.327	21020
860.46	21146
860.592	21245
860.725	21157
860.858	21218
860.99	21127
861.123	21043
861.256	21005
861.388	21077
861.521	21827
861.653	21009
861.786	20765
861.918	20906
862.05	21051
862.183	20864
862.315	21032
862.447	21009
862.58	20937
862.712	20792
862.844	20701
862.976	20925
863.108	20788
863.24	21359
863.372	20754
863.504	20800
863.636	20762
863.768	20708
863.9	20773
864.032	20739
864.164	20773
864.296	20880
864.428	20845
864.559	20872
864.691	20956
864.823	20777
864.954	20811
865.086	20716
865.217	20689
865.349	20712
865.48	20621
865.612	20735
865.743	20918
865.875	20857
866.006	20594
866.137	20629
866.269	20693
866.4	20750
866.531	20648
866.662	20644
866.793	20602
866.924	20705
867.055	20667
867.186	20697
867.317	20689
867.448	20514
867.579	20617
867.71	20480
867.841	20571
867.972	20571
868.103	20590
868.233	20549
868.364	20579
868.495	20682
868.625	20838
868.756	21005
868.886	20807
869.017	20804
869.147	20941
869.278	21093
869.408	20868
869.539	20918
869.669	20883
869.799	20895
869.929	21077
870.06	21024
870.19	21184
870.32	21108
870.45	21188
870.58	21195
870.71	21386
870.84	21310
870.97	21283
871.1	21199
871.23	21382
871.36	21424
871.489	21424
871.619	21526
871.749	21374
871.879	21428
872.008	21469
872.138	21496
872.267	21424
872.397	21249
872.526	21230
872.656	21355
872.785	21344
872.915	21370
873.044	21523
873.173	21397
873.303	21428
873.432	21458
873.561	21595
873.69	21526
873.819	21507
873.948	21507
874.077	21675
874.206	21329
874.335	21416
874.464	21610
874.593	21842
874.722	21564
874.851	21785
874.979	21835
875.108	21671
875.237	21705
875.365	21618
875.494	21713
875.623	21694
875.751	21614
875.88	21797
876.008	21880
876.136	21835
876.265	22059
876.393	22177
876.521	22238
876.65	22169
876.778	22063
876.906	22128
877.034	21968
877.162	22086
877.29	21926
877.418	22105
877.546	22093
877.674	21991
877.802	22097
877.93	22082
878.058	22086
878.185	22059
878.313	22070
878.441	22074
878.568	21804
878.696	21926
878.824	22120
878.951	22181
879.079	22261
879.206	22363
879.333	22196
879.461	22029
879.588	22196
879.715	22192
879.842	22303
879.97	22162
880.097	21823
880.224	21949
880.351	21850
880.478	21842
880.605	21808
880.732	21838
880.859	22093
880.986	21945
881.112	21930
881.239	21747
881.366	21652
881.493	21549
881.619	21492
881.746	21523
881.872	21557
881.999	21428
882.125	21329
882.252	21519
882.378	21492
882.505	21572
882.631	21359
882.757	21169
882.883	21405
883.01	21165
883.136	21131
883.262	20902
883.388	21135
883.514	21249
883.64	21245
883.766	21066
883.892	21024
884.018	20998
884.143	21062
884.269	21287
884.395	20971
884.52	20678
884.646	20944
884.772	20788
884.897	20758
885.023	20864
885.148	20887
885.274	20967
885.399	20956
885.524	20864
885.65	20910
885.775	20735
885.9	20758
886.025	20838
886.15	20929
886.275	20845
886.4	20648
886.525	20826
886.65	20705
886.775	20735
886.9	20864
887.025	21005
887.149	20743
887.274	20682
887.399	20568
887.523	20560
887.648	20568
887.773	20446
887.897	20617
888.021	20632
888.146	20560
888.27	20701
888.395	20762
888.519	20636
888.643	20636
888.767	20568
888.891	20454
889.015	20423
889.139	20518
889.263	20442
889.387	20526
889.511	20648
889.635	20495
889.759	20358
889.883	20275
890.006	20370
890.13	20454
890.254	20271
890.377	20412
890.501	20157
890.624	20149
890.748	20225
890.871	20058
890.995	19852
891.118	19909
891.241	19993
891.364	20020
891.488	20092
891.611	20008
891.734	20107
891.857	20035
891.98	20039
892.103	20172
892.226	19928
892.349	19921
892.471	19894
892.594	19928
892.717	19932
892.839	19727
892.962	19902
893.085	19944
893.207	19883
893.33	19784
893.452	19791
893.575	19978
893.697	19833
893.819	19947
893.941	19974
894.064	20084
894.186	19784
894.308	19871
894.43	20043
894.552	20077
894.674	19974
894.796	19750
894.918	19826
895.04	19753
895.161	19826
895.283	19875
895.405	19772
895.526	19940
895.648	19791
895.769	19917
895.891	19868
896.012	19982
896.134	19963
896.255	19986
896.376	19906
896.498	19826
896.619	19989
896.74	19761
896.861	19921
896.982	20122
897.103	20313
897.224	20081
897.345	20138
897.466	20031
897.587	20005
897.708	20324
897.828	20199
897.949	20046
898.07	19902
898.19	19974
898.311	20084
898.431	20046
898.552	20103
898.672	20252
898.792	20096
898.913	20138
899.033	19947
899.153	19925
899.273	19750
899.393	19921
899.513	19913
899.633	19887
899.753	19811
899.873	19769
899.993	19868
900.113	19795
900.232	19890
900.352	19746
900.472	19647
900.591	19582
900.711	19674
900.83	19578
900.95	19712
901.069	19643
901.189	19571
901.308	19457
901.427	19263
901.546	19221
901.665	19228
901.784	19263
901.904	19050
902.023	19046
902.141	18806
902.26	18840
902.379	18745
902.498	18692
902.617	18654
902.735	18726
902.854	18722
902.973	18642
903.091	18563
903.21	18376
903.328	18300
903.446	18266
903.565	18243
903.683	18292
903.801	18152
903.919	18174
904.038	18095
904.156	18034
904.274	18022
904.392	17977
904.51	17977
904.627	17931
904.745	18117
904.863	17999
904.981	17752
905.098	17676
905.216	17722
905.334	17809
905.451	17649
905.569	17733
905.686	17611
905.803	17707
905.921	17395
906.038	17570
906.155	17497
906.272	17330
906.389	17299
906.506	17292
906.623	17193
906.74	17216
906.857	17037
906.974	17022
907.091	17242
907.208	17326
907.324	17155
907.441	17098
907.557	16896
907.674	16911
907.79	16866
907.907	16873
908.023	16904
908.139	16938
908.256	16961
908.372	16908
908.488	16820
908.604	16744
908.72	16634
908.836	16687
908.952	16637
909.068	16626
909.184	16831
909.3	16531
909.415	16664
909.531	16481
909.647	16417
909.762	16322
909.878	16310
909.993	16360
910.108	16398
910.224	16363
910.339	16257
910.454	16169
910.57	16188
910.685	16181
910.8	16394
910.915	16382
911.03	16059
911.145	16082
911.259	15922
911.374	15949
911.489	15861
911.604	15701
911.718	15603
911.833	15595
911.947	15641
912.062	15561
912.176	15606
912.291	15671
912.405	15641
912.519	15804
912.633	15819
912.748	15637
912.862	15637
912.976	15500
913.09	15408
913.204	15454
913.318	15500
913.431	15618
913.545	15534
913.659	15610
913.772	15431
913.886	15302
914	15226
914.113	15332
914.226	15428
914.34	15363
914.453	15291
914.566	15283
914.68	15180
914.793	15165
914.906	15028
915.019	14887
915.132	14887
915.245	15017
915.358	15032
915.47	14986
915.583	14941
915.696	14975
915.809	15100
915.921	15001
916.034	14891
916.146	14800
916.259	14864
916.371	14933
916.483	14864
916.595	14651
916.708	14823
916.82	14750
916.932	14617
917.044	14716
917.156	14708
917.268	14636
917.38	14678
917.491	14537
917.603	14541
917.715	14708
917.826	14724
917.938	14526
918.049	14404
918.161	14533
918.272	14659
918.384	14674
918.495	14480
918.606	14419
918.717	14275
918.828	14385
918.939	14351
919.05	14199
919.161	14362
919.272	14145
919.383	14221
919.494	14374
919.604	14564
919.715	14385
919.826	14225
919.936	14332
920.047	14362
920.157	14336
920.267	14495
920.378	14355
920.488	14278
920.598	14514
920.708	14617
920.818	14499
920.928	14419
921.038	14617
921.148	14583
921.258	14237
921.368	14058
921.477	14050
921.587	14157
921.697	13928
921.806	14088
921.916	13925
922.025	13761
922.134	13712
922.244	13685
922.353	13723
922.462	13518
922.571	13480
922.68	13316
922.789	13350
922.898	13434
923.007	13354
923.116	13350
923.224	13422
923.333	13369
923.442	13145
923.55	13149
923.659	13206
923.767	13152
923.876	13149
923.984	13194
924.092	13072
924.201	13183
924.309	13038
924.417	13168
924.525	13034
924.633	12977
924.741	13696
924.849	12844
924.956	13023
925.064	12829
925.172	12707
925.279	12764
925.387	12829
925.494	12798
925.602	12871
925.709	12852
925.816	12726
925.924	12700
926.031	12821
926.138	12707
926.245	12722
926.352	12665
926.459	12681
926.566	12760
926.673	12616
926.779	12547
926.886	12620
926.993	12464
927.099	12399
927.206	12300
927.312	12251
927.419	12369
927.525	12273
927.631	12376
927.737	12266
927.843	12155
927.95	12148
928.056	12095
928.162	12117
928.267	12311
928.373	12875
928.479	12251
928.585	11980
928.69	12144
928.796	12152
928.901	12068
929.007	11859
929.112	12045
929.218	12053
929.323	11874
929.428	11954
929.533	12030
929.638	11824
929.743	11878
929.848	11893
929.953	11802
930.058	11722
930.163	11528
930.267	11558
930.372	11805
930.477	11615
930.581	11786
930.685	11604
930.79	11570
930.894	11463
930.998	11486
931.103	11543
931.207	11277
931.311	11235
931.415	11132
931.519	10889
931.623	10942
