Data from test_V78500241_1015.txt Node
Date: Fri Mar 25 15:16:55 CST 2022
User: usil
Spectrometer: V785-0024
Trigger mode: 0
Integration Time (sec): 4.000000E-1
Scans to average: 1
Nonlinearity correction enabled: false
Boxcar width: 0
Storing dark spectrum: false
XAxis mode: Wavelengths
Number of Pixels in Spectrum: 1024
>>>>>Begin Spectral Data<<<<<
801.071	28257
801.214	28063
801.356	28154
801.499	28070
801.641	27838
801.783	27888
801.926	27888
802.068	27899
802.211	27778
802.353	27751
802.496	27728
802.638	27492
802.78	27526
802.923	27504
803.065	27557
803.208	27443
803.35	27637
803.492	27614
803.635	27728
803.777	27572
803.919	27835
804.061	28090
804.204	27705
804.346	27671
804.488	27785
804.63	27759
804.773	27572
804.915	27812
805.057	27941
805.199	27743
805.341	28029
805.483	27930
805.626	27899
805.768	27918
805.91	27846
806.052	27850
806.194	27778
806.336	28116
806.478	27888
806.62	27972
806.762	28070
806.904	28048
807.046	28436
807.188	28352
807.33	28158
807.472	28409
807.614	28295
807.756	28226
807.898	28219
808.04	28105
808.182	28109
808.324	28143
808.465	28295
808.607	28268
808.749	28634
808.891	28615
809.033	28771
809.174	28763
809.316	28630
809.458	28519
809.6	28436
809.741	28805
809.883	28831
810.025	28923
810.166	28839
810.308	28873
810.45	28721
810.591	28713
810.733	28710
810.875	28584
811.016	28542
811.158	28542
811.299	28763
811.441	28915
811.582	28706
811.724	28603
811.865	28603
812.007	28584
812.148	28538
812.29	28637
812.431	28839
812.573	28873
812.714	28866
812.855	29018
812.997	29178
813.138	29326
813.279	29250
813.421	29056
813.562	29079
813.703	28980
813.845	28797
813.986	28508
814.127	28443
814.268	28265
814.41	28215
814.551	28474
814.692	28485
814.833	28310
814.974	28261
815.115	28284
815.256	28143
815.397	28219
815.539	28207
815.68	28177
815.821	28025
815.962	28143
816.103	28082
816.244	27888
816.385	27934
816.526	27892
816.666	27709
816.807	27538
816.948	27713
817.089	27869
817.23	27606
817.371	27701
817.512	27698
817.653	27576
817.793	27633
817.934	27652
818.075	27580
818.216	27705
818.356	27804
818.497	27553
818.638	27306
818.778	27515
818.919	27447
819.06	27511
819.2	27561
819.341	27564
819.481	27637
819.622	27804
819.762	27953
819.903	28055
820.043	27983
820.184	27732
820.324	27724
820.465	27785
820.605	27781
820.746	27720
820.886	27789
821.026	27629
821.167	27751
821.307	27797
821.447	27724
821.588	27542
821.728	27492
821.868	27302
822.008	27260
822.149	27184
822.289	27028
822.429	26811
822.569	26796
822.709	26765
822.849	26712
822.99	26640
823.13	26743
823.27	26533
823.41	26571
823.55	26320
823.69	26423
823.83	26370
823.97	26434
824.11	26199
824.25	26229
824.389	26343
824.529	26332
824.669	26324
824.809	26465
824.949	26377
825.089	26389
825.228	26225
825.368	26001
825.508	26161
825.648	26153
825.787	26157
825.927	26187
826.067	26111
826.206	26191
826.346	26050
826.485	26229
826.625	26050
826.765	26244
826.904	26069
827.044	25826
827.183	25997
827.323	25947
827.462	25807
827.601	25875
827.741	25871
827.88	26020
828.02	25753
828.159	25913
828.298	25883
828.437	25871
828.577	25860
828.716	25909
828.855	25795
828.994	25696
829.134	25575
829.273	25586
829.412	25479
829.551	25571
829.69	25487
829.829	25677
829.968	25586
830.107	25616
830.246	25483
830.385	25681
830.524	25362
830.663	25460
830.802	25346
830.941	25312
831.08	25137
831.219	25301
831.357	25304
831.496	25525
831.635	25126
831.774	25126
831.913	25148
832.051	24966
832.19	25004
832.329	24897
832.467	24894
832.606	24985
832.744	24757
832.883	24958
833.022	24863
833.16	24840
833.299	25012
833.437	24981
833.576	25027
833.714	24977
833.852	25034
833.991	25050
834.129	24966
834.267	24973
834.406	24840
834.544	25004
834.682	24985
834.821	25019
834.959	25050
835.097	24867
835.235	25019
835.373	24886
835.511	24966
835.65	24848
835.788	24715
835.926	24825
836.064	24654
836.202	24547
836.34	24863
836.478	24943
836.615	24726
836.753	24886
836.891	24783
837.029	24833
837.167	24859
837.305	24692
837.443	24601
837.58	24563
837.718	24768
837.856	24525
837.993	24574
838.131	24658
838.269	24433
838.406	24490
838.544	24384
838.681	24277
838.819	24194
838.956	24026
839.094	24159
839.231	23977
839.369	24342
839.506	24513
839.643	24361
839.781	24091
839.918	23980
840.055	24194
840.193	24053
840.33	23927
840.467	24057
840.604	24003
840.742	24213
840.879	23935
841.016	23836
841.153	23958
841.29	24129
841.427	24068
841.564	23920
841.701	24007
841.838	24015
841.975	23843
842.112	24015
842.249	23821
842.385	23805
842.522	23931
842.659	23824
842.796	23832
842.933	23733
843.069	23775
843.206	23676
843.343	23794
843.479	23802
843.616	23821
843.752	23695
843.889	23490
844.025	23581
844.162	23547
844.298	23619
844.435	23581
844.571	23425
844.708	23566
844.844	23752
844.98	23611
845.117	23634
845.253	23535
845.389	23307
845.525	23383
845.661	23429
845.798	23322
845.934	23341
846.07	23216
846.206	23299
846.342	23455
846.478	23261
846.614	23022
846.75	22908
846.886	22949
847.022	23140
847.158	23022
847.294	22949
847.429	23022
847.565	23041
847.701	23280
847.837	22774
847.972	22759
848.108	22816
848.244	22752
848.379	22668
848.515	22683
848.65	22569
848.786	22542
848.921	22637
849.057	22668
849.192	22649
849.328	22569
849.463	22538
849.598	22622
849.734	22474
849.869	22295
850.004	22398
850.14	22519
850.275	22436
850.41	22192
850.545	22268
850.68	22386
850.815	22417
850.95	22417
851.085	22455
851.22	22451
851.355	22379
851.49	22249
851.625	22268
851.76	22417
851.895	22310
852.03	22188
852.165	22303
852.299	22481
852.434	22428
852.569	22287
852.703	22348
852.838	22382
852.973	22436
853.107	22413
853.242	22398
853.376	22253
853.511	22097
853.645	22166
853.78	22253
853.914	22196
854.048	22078
854.183	22112
854.317	22147
854.451	22333
854.585	22105
854.72	22276
854.854	22101
854.988	22173
855.122	22093
855.256	22116
855.39	22059
855.524	22116
855.658	22185
855.792	22188
855.926	22253
856.06	22200
856.194	22238
856.327	22238
856.461	22112
856.595	22128
856.729	22105
856.862	22276
856.996	22230
857.13	22276
857.263	22341
857.397	22329
857.53	22154
857.664	22215
857.797	22200
857.931	22249
858.064	22169
858.197	22116
858.331	22158
858.464	22086
858.597	22067
858.731	22128
858.864	22124
858.997	22090
859.13	22188
859.263	22215
859.396	22253
859.529	22169
859.662	22063
859.795	22173
859.928	22169
860.061	22276
860.194	22287
860.327	22162
860.46	22306
860.592	22318
860.725	22344
860.858	22242
860.99	22226
861.123	22128
861.256	22086
861.388	22097
861.521	22850
861.653	22086
861.786	21838
861.918	22006
862.05	22097
862.183	22131
862.315	22040
862.447	22116
862.58	22082
862.712	21892
862.844	21873
862.976	21945
863.108	21854
863.24	22310
863.372	21800
863.504	21911
863.636	21907
863.768	21922
863.9	21838
864.032	21785
864.164	21854
864.296	22006
864.428	21895
864.559	21888
864.691	21918
864.823	21884
864.954	21842
865.086	21888
865.217	21785
865.349	21690
865.48	21736
865.612	21831
865.743	21915
865.875	21827
866.006	21698
866.137	21755
866.269	21793
866.4	21618
866.531	21648
866.662	21576
866.793	21686
866.924	21686
867.055	21572
867.186	21622
867.317	21675
867.448	21564
867.579	21625
867.71	21679
867.841	21583
867.972	21717
868.103	21641
868.233	21705
868.364	21663
868.495	21831
868.625	22013
868.756	21960
868.886	21774
869.017	21911
869.147	22006
869.278	22036
869.408	21930
869.539	21922
869.669	21926
869.799	21975
869.929	22063
870.06	21941
870.19	22261
870.32	22124
870.45	22295
870.58	22276
870.71	22409
870.84	22481
870.97	22371
871.1	22291
871.23	22527
871.36	22455
871.489	22280
871.619	22455
871.749	22455
871.879	22481
872.008	22713
872.138	22485
872.267	22565
872.397	22386
872.526	22299
872.656	22390
872.785	22337
872.915	22443
873.044	22516
873.173	22603
873.303	22618
873.432	22660
873.561	22710
873.69	22535
873.819	22478
873.948	22550
874.077	22436
874.206	22584
874.335	22573
874.464	22630
874.593	22679
874.722	22675
874.851	22782
874.979	22793
875.108	22782
875.237	22691
875.365	22580
875.494	22637
875.623	22679
875.751	22702
875.88	22763
876.008	22919
876.136	22942
876.265	23239
876.393	23170
876.521	23235
876.65	23242
876.778	23200
876.906	23025
877.034	22968
877.162	23124
877.29	23075
877.418	23258
877.546	23105
877.674	23029
877.802	23041
877.93	23109
878.058	23022
878.185	22930
878.313	23041
878.441	23044
878.568	22858
878.696	23105
878.824	23044
878.951	23086
879.079	23178
879.206	23322
879.333	23265
879.461	23018
879.588	23075
879.715	23193
879.842	23402
879.97	23071
880.097	22938
880.224	22961
880.351	22866
880.478	22831
880.605	22915
880.732	22877
880.859	23151
880.986	22869
881.112	22866
881.239	22653
881.366	22569
881.493	22554
881.619	22497
881.746	22512
881.872	22546
881.999	22489
882.125	22470
882.252	22580
882.378	22451
882.505	22557
882.631	22310
882.757	22257
882.883	22253
883.01	22158
883.136	22074
883.262	22010
883.388	22105
883.514	22234
883.64	22188
883.766	21998
883.892	21964
884.018	21949
884.143	22021
884.269	22223
884.395	21884
884.52	21755
884.646	21865
884.772	21644
884.897	21732
885.023	21793
885.148	21876
885.274	21831
885.399	21846
885.524	21743
885.65	21660
885.775	21823
885.9	21679
886.025	21816
886.15	21793
886.275	21728
886.4	21713
886.525	21846
886.65	21682
886.775	21694
886.9	21846
887.025	21968
887.149	21759
887.274	21705
887.399	21667
887.523	21557
887.648	21568
887.773	21370
887.897	21603
888.021	21637
888.146	21542
888.27	21561
888.395	21671
888.519	21603
888.643	21724
888.767	21553
888.891	21428
889.015	21325
889.139	21374
889.263	21340
889.387	21405
889.511	21545
889.635	21435
889.759	21313
889.883	21351
890.006	21382
890.13	21462
890.254	21310
890.377	21195
890.501	21127
890.624	20990
890.748	21146
890.871	21009
890.995	21028
891.118	20792
891.241	20895
891.364	20982
891.488	20914
891.611	20880
891.734	20872
891.857	21116
891.98	20937
892.103	20971
892.226	20933
892.349	20937
892.471	20697
892.594	20815
892.717	20979
892.839	20762
892.962	20819
893.085	20876
893.207	20785
893.33	20735
893.452	20667
893.575	20758
893.697	20693
893.819	21043
893.941	20872
894.064	20887
894.186	20781
894.308	20655
894.43	20849
894.552	20876
894.674	20887
894.796	20674
894.918	20670
895.04	20796
895.161	20819
895.283	20952
895.405	20682
895.526	20758
895.648	20762
895.769	20731
895.891	20800
896.012	20883
896.134	20830
896.255	20781
896.376	20708
896.498	20743
896.619	20895
896.74	20853
896.861	20880
896.982	21028
897.103	21096
897.224	20998
897.345	21066
897.466	20834
897.587	20941
897.708	21138
897.828	20948
897.949	20842
898.07	20716
898.19	20944
898.311	20994
898.431	20830
898.552	20948
898.672	20876
898.792	20956
898.913	20815
899.033	20800
899.153	20731
899.273	20640
899.393	20682
899.513	20670
899.633	20674
899.753	20686
899.873	20678
899.993	20629
900.113	20629
900.232	20648
900.352	20518
900.472	20594
900.591	20431
900.711	20450
900.83	20423
900.95	20579
901.069	20560
901.189	20339
901.308	20130
901.427	19951
901.546	20081
901.665	20012
901.784	19993
901.904	19818
902.023	19719
902.141	19662
902.26	19521
902.379	19696
902.498	19533
902.617	19567
902.735	19510
902.854	19643
902.973	19434
903.091	19285
903.21	19206
903.328	19171
903.446	19164
903.565	19091
903.683	19065
903.801	18871
903.919	19012
904.038	19038
904.156	18741
904.274	18856
904.392	18814
904.51	18719
904.627	18642
904.745	18764
904.863	18821
904.981	18597
905.098	18536
905.216	18490
905.334	18498
905.451	18486
905.569	18369
905.686	18467
905.803	18311
905.921	18338
906.038	18201
906.155	18292
906.272	18262
906.389	18144
906.506	18026
906.623	18072
906.74	17958
906.857	17836
906.974	17920
907.091	17980
907.208	18117
907.324	17946
907.441	17863
907.557	17821
907.674	17653
907.79	17733
907.907	17668
908.023	17657
908.139	17722
908.256	17592
908.372	17615
908.488	17611
908.604	17284
908.72	17440
908.836	17482
908.952	17368
909.068	17471
909.184	17509
909.3	17414
909.415	17341
909.531	17288
909.647	17212
909.762	17052
909.878	17060
909.993	17147
910.108	17048
910.224	17006
910.339	17086
910.454	17014
910.57	16915
910.685	16744
910.8	17094
910.915	17090
911.03	16961
911.145	16774
911.259	16672
911.374	16672
911.489	16675
911.604	16592
911.718	16489
911.833	16508
911.947	16253
912.062	16295
912.176	16409
912.291	16402
912.405	16394
912.519	16599
912.633	16569
912.748	16405
912.862	16455
912.976	16299
913.09	16078
913.204	16128
913.318	16261
913.431	16348
913.545	16276
913.659	16379
913.772	16063
913.886	15987
914	16063
914.113	16166
914.226	16181
914.34	16059
914.453	15854
914.566	16051
914.68	15949
914.793	15949
914.906	15739
915.019	15739
915.132	15572
915.245	15648
915.358	15698
915.47	15705
915.583	15633
915.696	15610
915.809	15739
915.921	15732
916.034	15561
916.146	15591
916.259	15492
916.371	15599
916.483	15530
916.595	15401
916.708	15447
916.82	15401
916.932	15439
917.044	15515
917.156	15355
917.268	15329
917.38	15340
917.491	15180
917.603	15298
917.715	15393
917.826	15302
917.938	15169
918.049	15119
918.161	15260
918.272	15378
918.384	15363
918.495	15089
918.606	15047
918.717	14861
918.828	14921
918.939	14967
919.05	14963
919.161	14998
919.272	14765
919.383	14895
919.494	15074
919.604	15085
919.715	15032
919.826	14883
919.936	14933
920.047	15085
920.157	14925
920.267	15157
920.378	14876
920.488	14925
920.598	15192
920.708	15313
920.818	14979
920.928	15017
921.038	15176
921.148	15131
921.258	14933
921.368	14845
921.477	14689
921.587	14708
921.697	14644
921.806	14727
921.916	14606
922.025	14450
922.134	14347
922.244	14298
922.353	14294
922.462	14126
922.571	14054
922.68	13951
922.789	13902
922.898	13909
923.007	13868
923.116	13989
923.224	14012
923.333	13799
923.442	13871
923.55	13712
923.659	13875
923.767	13879
923.876	13712
923.984	13818
924.092	13769
924.201	13708
924.309	13723
924.417	13696
924.525	13559
924.633	13658
924.741	14541
924.849	13384
924.956	13514
925.064	13343
925.172	13263
925.279	13312
925.387	13388
925.494	13373
925.602	13476
925.709	13339
925.816	13304
925.924	13232
926.031	13339
926.138	13202
926.245	13350
926.352	13145
926.459	13289
926.566	13354
926.673	13278
926.779	13091
926.886	13126
926.993	12993
927.099	12973
927.206	12913
927.312	12810
927.419	13000
927.525	12951
927.631	12863
927.737	12745
927.843	12791
927.95	12631
928.056	12711
928.162	12753
928.267	12700
928.373	13266
928.479	12757
928.585	12547
928.69	12601
928.796	12658
928.901	12551
929.007	12376
929.112	12612
929.218	12597
929.323	12498
929.428	12479
929.533	12570
929.638	12338
929.743	12422
929.848	12376
929.953	12319
930.058	12262
930.163	12133
930.267	12186
930.372	12205
930.477	12049
930.581	12315
930.685	12213
930.79	11996
930.894	12057
930.998	11931
931.103	12038
931.207	11771
931.311	11680
931.415	11608
931.519	11471
931.623	11421
