Data from test_V78500241_1708.txt Node
Date: Fri Mar 25 15:21:45 CST 2022
User: usil
Spectrometer: V785-0024
Trigger mode: 0
Integration Time (sec): 4.000000E-1
Scans to average: 1
Nonlinearity correction enabled: false
Boxcar width: 0
Storing dark spectrum: false
XAxis mode: Wavelengths
Number of Pixels in Spectrum: 1024
>>>>>Begin Spectral Data<<<<<
801.071	27686
801.214	27717
801.356	27469
801.499	27401
801.641	27245
801.783	27173
801.926	27310
802.068	27389
802.211	27169
802.353	27100
802.496	26823
802.638	26914
802.78	26811
802.923	26796
803.065	26906
803.208	26804
803.35	26963
803.492	26933
803.635	27089
803.777	26804
803.919	27131
804.061	27351
804.204	27180
804.346	27100
804.488	27039
804.63	26990
804.773	26940
804.915	27093
805.057	27154
805.199	27005
805.341	26971
805.483	27222
805.626	27176
805.768	27009
805.91	27077
806.052	27291
806.194	27287
806.336	27298
806.478	27260
806.62	27154
806.762	27230
806.904	27462
807.046	27770
807.188	27469
807.33	27724
807.472	27591
807.614	27492
807.756	27564
807.898	27526
808.04	27561
808.182	27302
808.324	27538
808.465	27538
808.607	27736
808.749	27800
808.891	27838
809.033	28025
809.174	27781
809.316	27739
809.458	27819
809.6	27698
809.741	27762
809.883	27994
810.025	27994
810.166	28147
810.308	28086
810.45	27994
810.591	27956
810.733	27755
810.875	27873
811.016	27675
811.158	27720
811.299	27899
811.441	27983
811.582	27968
811.724	27816
811.865	27701
812.007	27713
812.148	27812
812.29	27876
812.431	27785
812.573	28021
812.714	28124
812.855	28322
812.997	28527
813.138	28424
813.279	28348
813.421	28295
813.562	28276
813.703	28173
813.845	28090
813.986	27812
814.127	27644
814.268	27466
814.41	27496
814.551	27473
814.692	27637
814.833	27420
814.974	27363
815.115	27526
815.256	27462
815.397	27519
815.539	27344
815.68	27294
815.821	27203
815.962	27344
816.103	27192
816.244	27218
816.385	26910
816.526	26990
816.666	26940
816.807	26648
816.948	26880
817.089	26777
817.23	26849
817.371	26788
817.512	26956
817.653	26708
817.793	26720
817.934	26644
818.075	26800
818.216	26849
818.356	26781
818.497	26712
818.638	26526
818.778	26549
818.919	26526
819.06	26549
819.2	26655
819.341	26632
819.481	26678
819.622	26811
819.762	27081
819.903	26994
820.043	26910
820.184	26811
820.324	26899
820.465	26921
820.605	26887
820.746	26918
820.886	26830
821.026	26796
821.167	26739
821.307	26815
821.447	26746
821.588	26480
821.728	26438
821.868	26355
822.008	26259
822.149	26218
822.289	26122
822.429	25982
822.569	26008
822.709	25936
822.849	25655
822.99	25780
823.13	25658
823.27	25746
823.41	25483
823.55	25419
823.69	25670
823.83	25655
823.97	25540
824.11	25346
824.25	25400
824.389	25422
824.529	25403
824.669	25403
824.809	25609
824.949	25468
825.089	25441
825.228	25407
825.368	25190
825.508	25194
825.648	25278
825.787	25175
825.927	25308
826.067	25175
826.206	25190
826.346	25240
826.485	25327
826.625	25354
826.765	25301
826.904	25282
827.044	25122
827.183	25031
827.323	24932
827.462	25160
827.601	25004
827.741	25061
827.88	25080
828.02	24943
828.159	24856
828.298	25023
828.437	25034
828.577	24935
828.716	25114
828.855	24943
828.994	24707
829.134	24669
829.273	24878
829.412	24715
829.551	24547
829.69	24696
829.829	24684
829.968	24825
830.107	24722
830.246	24764
830.385	24540
830.524	24593
830.663	24517
830.802	24441
830.941	24266
831.08	24281
831.219	24281
831.357	24429
831.496	24486
831.635	24277
831.774	24247
831.913	24194
832.051	24102
832.19	24186
832.329	24117
832.467	24022
832.606	23961
832.744	23992
832.883	23901
833.022	24068
833.16	24087
833.299	24110
833.437	24003
833.576	24106
833.714	24091
833.852	24091
833.991	24163
834.129	24041
834.267	24064
834.406	24057
834.544	24140
834.682	24095
834.821	24030
834.959	24285
835.097	23916
835.235	24076
835.373	24125
835.511	24110
835.65	23965
835.788	23927
835.926	23790
836.064	23745
836.202	23707
836.34	23992
836.478	24053
836.615	23817
836.753	23824
836.891	23942
837.029	23999
837.167	23855
837.305	23809
837.443	23695
837.58	23756
837.718	23824
837.856	23729
837.993	23821
838.131	23733
838.269	23547
838.406	23672
838.544	23695
838.681	23337
838.819	23330
838.956	23284
839.094	23166
839.231	23303
839.369	23395
839.506	23512
839.643	23463
839.781	23185
839.918	23220
840.055	23143
840.193	23117
840.33	23010
840.467	23079
840.604	23258
840.742	23303
840.879	23025
841.016	23048
841.153	23022
841.29	23292
841.427	23261
841.564	23113
841.701	23041
841.838	23006
841.975	23006
842.112	23109
842.249	22968
842.385	22854
842.522	23136
842.659	22915
842.796	22900
842.933	22873
843.069	22873
843.206	22790
843.343	22942
843.479	22869
843.616	22892
843.752	22691
843.889	22740
844.025	22702
844.162	22527
844.298	22698
844.435	22778
844.571	22592
844.708	22797
844.844	22691
844.98	22744
845.117	22843
845.253	22660
845.389	22615
845.525	22462
845.661	22523
845.798	22390
845.934	22599
846.07	22310
846.206	22443
846.342	22428
846.478	22360
846.614	22154
846.75	22150
846.886	22063
847.022	22280
847.158	22169
847.294	22139
847.429	22234
847.565	22120
847.701	22318
847.837	21964
847.972	21816
848.108	21983
848.244	22017
848.379	21774
848.515	21774
848.65	21622
848.786	21785
848.921	21705
849.057	21819
849.192	21698
849.328	21694
849.463	21717
849.598	21675
849.734	21580
849.869	21572
850.004	21443
850.14	21515
850.275	21534
850.41	21481
850.545	21408
850.68	21477
850.815	21511
850.95	21443
851.085	21819
851.22	21530
851.355	21443
851.49	21526
851.625	21370
851.76	21500
851.895	21370
852.03	21416
852.165	21473
852.299	21439
852.434	21618
852.569	21545
852.703	21477
852.838	21344
852.973	21633
853.107	21629
853.242	21496
853.376	21363
853.511	21222
853.645	21332
853.78	21454
853.914	21272
854.048	21272
854.183	21458
854.317	21405
854.451	21447
854.585	21287
854.72	21264
854.854	21329
854.988	21218
855.122	21332
855.256	21283
855.39	21230
855.524	21405
855.658	21294
855.792	21264
855.926	21378
856.06	21317
856.194	21287
856.327	21214
856.461	21317
856.595	21272
856.729	21363
856.862	21405
856.996	21298
857.13	21378
857.263	21321
857.397	21473
857.53	21313
857.664	21443
857.797	21389
857.931	21408
858.064	21344
858.197	21477
858.331	21272
858.464	21154
858.597	21310
858.731	21332
858.864	21298
858.997	21135
859.13	21272
859.263	21329
859.396	21424
859.529	21252
859.662	21382
859.795	21169
859.928	21420
860.061	21507
860.194	21481
860.327	21405
860.46	21264
860.592	21450
860.725	21500
860.858	21389
860.99	21443
861.123	21199
861.256	21226
861.388	21203
861.521	21960
861.653	21237
861.786	21070
861.918	21039
862.05	21123
862.183	21294
862.315	21180
862.447	21241
862.58	21096
862.712	20971
862.844	21013
862.976	21203
863.108	21127
863.24	21450
863.372	20986
863.504	20941
863.636	21013
863.768	20982
863.9	20937
864.032	20883
864.164	20872
864.296	21009
864.428	21112
864.559	21100
864.691	21135
864.823	20994
864.954	21017
865.086	21005
865.217	20868
865.349	20853
865.48	20960
865.612	20986
865.743	20967
865.875	20990
866.006	20788
866.137	20979
866.269	20804
866.4	20834
866.531	20826
866.662	20731
866.793	20743
866.924	20861
867.055	20792
867.186	20861
867.317	20796
867.448	20773
867.579	20853
867.71	20811
867.841	20750
867.972	20815
868.103	20883
868.233	20727
868.364	20933
868.495	20994
868.625	21089
868.756	21070
868.886	21036
869.017	21112
869.147	21241
869.278	21176
869.408	21089
869.539	21138
869.669	21226
869.799	21173
869.929	21180
870.06	21142
870.19	21378
870.32	21272
870.45	21397
870.58	21431
870.71	21450
870.84	21553
870.97	21477
871.1	21485
871.23	21652
871.36	21739
871.489	21496
871.619	21633
871.749	21568
871.879	21633
872.008	21781
872.138	21606
872.267	21739
872.397	21458
872.526	21481
872.656	21526
872.785	21530
872.915	21739
873.044	21747
873.173	21739
873.303	21644
873.432	21835
873.561	21804
873.69	21728
873.819	21629
873.948	21705
874.077	21690
874.206	21618
874.335	21614
874.464	21785
874.593	21983
874.722	21876
874.851	21964
874.979	21979
875.108	21895
875.237	21907
875.365	21869
875.494	21869
875.623	21930
875.751	21968
875.88	21918
876.008	21975
876.136	22124
876.265	22280
876.393	22459
876.521	22348
876.65	22402
876.778	22379
876.906	22215
877.034	22219
877.162	22226
877.29	22303
877.418	22291
877.546	22318
877.674	22261
877.802	22276
877.93	22261
878.058	22177
878.185	22109
878.313	22196
878.441	22192
878.568	21991
878.696	22238
878.824	22234
878.951	22371
879.079	22344
879.206	22588
879.333	22500
879.461	22299
879.588	22417
879.715	22459
879.842	22523
879.97	22173
880.097	22021
880.224	22021
880.351	22230
880.478	22070
880.605	22025
880.732	22048
880.859	22303
880.986	22177
881.112	22150
881.239	21899
881.366	21835
881.493	21808
881.619	21686
881.746	21663
881.872	21793
881.999	21644
882.125	21545
882.252	21580
882.378	21698
882.505	21812
882.631	21412
882.757	21233
882.883	21412
883.01	21340
883.136	21272
883.262	21294
883.388	21226
883.514	21435
883.64	21378
883.766	21256
883.892	21077
884.018	21226
884.143	21154
884.269	21435
884.395	21028
884.52	20921
884.646	21032
884.772	20967
884.897	20861
885.023	21074
885.148	21131
885.274	21112
885.399	20952
885.524	20982
885.65	21074
885.775	21055
885.9	20990
886.025	21119
886.15	21093
886.275	21039
886.4	20807
886.525	20979
886.65	20921
886.775	20891
886.9	21112
887.025	21214
887.149	20937
887.274	20754
887.399	20861
887.523	20743
887.648	20686
887.773	20667
887.897	20792
888.021	20941
888.146	20746
888.27	20792
888.395	20804
888.519	20804
888.643	20899
888.767	20838
888.891	20644
889.015	20625
889.139	20575
889.263	20564
889.387	20705
889.511	20712
889.635	20674
889.759	20526
889.883	20541
890.006	20564
890.13	20716
890.254	20552
890.377	20431
890.501	20366
890.624	20362
890.748	20358
890.871	20206
890.995	20065
891.118	20058
891.241	20153
891.364	20122
891.488	20256
891.611	20199
891.734	20187
891.857	20233
891.98	20096
892.103	20183
892.226	20073
892.349	20084
892.471	19970
892.594	20111
892.717	20081
892.839	20024
892.962	20077
893.085	20077
893.207	20073
893.33	19974
893.452	19940
893.575	20130
893.697	20065
893.819	20191
893.941	20191
894.064	20202
894.186	19940
894.308	19993
894.43	20149
894.552	20218
894.674	20210
894.796	20005
894.918	20020
895.04	19868
895.161	20119
895.283	20046
895.405	19951
895.526	20043
895.648	20035
895.769	20054
895.891	20180
896.012	20058
896.134	20012
896.255	20050
896.376	20145
896.498	20008
896.619	20115
896.74	20027
896.861	20050
896.982	20347
897.103	20408
897.224	20313
897.345	20183
897.466	20290
897.587	20195
897.708	20374
897.828	20267
897.949	20263
898.07	19978
898.19	20195
898.311	20389
898.431	20210
898.552	20259
898.672	20286
898.792	20301
898.913	20252
899.033	20134
899.153	19978
899.273	19989
899.393	19986
899.513	20065
899.633	20130
899.753	20134
899.873	20077
899.993	20024
900.113	19909
900.232	19894
900.352	19917
900.472	19864
900.591	19868
900.711	19803
900.83	19681
900.95	19875
901.069	19856
901.189	19571
901.308	19476
901.427	19327
901.546	19468
901.665	19343
901.784	19316
901.904	19110
902.023	19072
902.141	18989
902.26	18958
902.379	18924
902.498	18901
902.617	18806
902.735	18863
902.854	18905
902.973	18886
903.091	18585
903.21	18517
903.328	18563
903.446	18452
903.565	18251
903.683	18350
903.801	18247
903.919	18330
904.038	18281
904.156	18136
904.274	18209
904.392	18129
904.51	18064
904.627	18114
904.745	18213
904.863	18194
904.981	17958
905.098	17786
905.216	17809
905.334	17855
905.451	17828
905.569	17718
905.686	17935
905.803	17745
905.921	17562
906.038	17748
906.155	17547
906.272	17448
906.389	17573
906.506	17265
906.623	17414
906.74	17296
906.857	17261
906.974	17239
907.091	17261
907.208	17421
907.324	17337
907.441	17216
907.557	17143
907.674	17105
907.79	16991
907.907	16984
908.023	17060
908.139	17113
908.256	16927
908.372	16915
908.488	16915
908.604	16790
908.72	16816
908.836	16824
908.952	16721
909.068	16881
909.184	16835
909.3	16759
909.415	16797
909.531	16744
909.647	16455
909.762	16519
909.878	16489
909.993	16500
910.108	16504
910.224	16481
910.339	16398
910.454	16325
910.57	16280
910.685	16162
910.8	16421
910.915	16424
911.03	16226
911.145	16200
911.259	16051
911.374	16093
911.489	16021
911.604	15922
911.718	15892
911.833	15819
911.947	15713
912.062	15591
912.176	15819
912.291	15781
912.405	15751
912.519	15915
912.633	15915
912.748	15945
912.862	15675
912.976	15675
913.09	15504
913.204	15534
913.318	15557
913.431	15720
913.545	15736
913.659	15751
913.772	15477
913.886	15553
914	15405
914.113	15500
914.226	15488
914.34	15526
914.453	15302
914.566	15473
914.68	15363
914.793	15359
914.906	15070
915.019	15001
915.132	15074
915.245	15077
915.358	15032
915.47	15066
915.583	15100
915.696	15070
915.809	15233
915.921	15180
916.034	14895
916.146	15085
916.259	14944
916.371	14994
916.483	15066
916.595	14929
916.708	14937
916.82	14838
916.932	14899
917.044	14902
917.156	14849
917.268	14712
917.38	14750
917.491	14629
917.603	14708
917.715	14708
917.826	14804
917.938	14644
918.049	14602
918.161	14590
918.272	14697
918.384	14800
918.495	14617
918.606	14476
918.717	14332
918.828	14473
918.939	14533
919.05	14366
919.161	14465
919.272	14218
919.383	14305
919.494	14396
919.604	14670
919.715	14461
919.826	14442
919.936	14419
920.047	14583
920.157	14511
920.267	14674
920.378	14381
920.488	14381
920.598	14560
920.708	14625
920.818	14556
920.928	14583
921.038	14689
921.148	14606
921.258	14328
921.368	14362
921.477	14161
921.587	14142
921.697	14020
921.806	14180
921.916	14008
922.025	13803
922.134	13757
922.244	13734
922.353	13814
922.462	13685
922.571	13582
922.68	13400
922.789	13438
922.898	13426
923.007	13335
923.116	13537
923.224	13514
923.333	13320
923.442	13346
923.55	13209
923.659	13304
923.767	13426
923.876	13247
923.984	13259
924.092	13152
924.201	13149
924.309	13270
924.417	13255
924.525	13137
924.633	13099
924.741	13967
924.849	12951
924.956	13114
925.064	12878
925.172	12867
925.279	12833
925.387	12901
925.494	12840
925.602	13023
925.709	12958
925.816	12810
925.924	12791
926.031	12894
926.138	12783
926.245	12852
926.352	12741
926.459	12802
926.566	12878
926.673	12692
926.779	12665
926.886	12608
926.993	12365
927.099	12441
927.206	12456
927.312	12369
927.419	12479
927.525	12475
927.631	12414
927.737	12270
927.843	12216
927.95	12201
928.056	12205
928.162	12273
928.267	12281
928.373	12738
928.479	12300
928.585	12140
928.69	12205
928.796	12273
928.901	12121
929.007	11984
929.112	12251
929.218	12057
929.323	11999
929.428	11969
929.533	12022
929.638	11912
929.743	11977
929.848	11901
929.953	11931
930.058	11809
930.163	11646
930.267	11649
930.372	11779
930.477	11646
930.581	11885
930.685	11665
930.79	11516
930.894	11577
930.998	11509
931.103	11714
931.207	11429
931.311	11296
931.415	11189
931.519	11056
931.623	10980
