Data from test_V78500241_2451.txt Node
Date: Fri Mar 25 15:26:55 CST 2022
User: usil
Spectrometer: V785-0024
Trigger mode: 0
Integration Time (sec): 4.000000E-1
Scans to average: 1
Nonlinearity correction enabled: false
Boxcar width: 0
Storing dark spectrum: false
XAxis mode: Wavelengths
Number of Pixels in Spectrum: 1024
>>>>>Begin Spectral Data<<<<<
801.071	26921
801.214	26929
801.356	26708
801.499	26621
801.641	26579
801.783	26613
801.926	26499
802.068	26438
802.211	26514
802.353	26290
802.496	26138
802.638	26058
802.78	26100
802.923	26027
803.065	26081
803.208	26092
803.35	26126
803.492	26423
803.635	26282
803.777	26309
803.919	26286
804.061	26625
804.204	26355
804.346	26195
804.488	26240
804.63	26191
804.773	26164
804.915	26206
805.057	26290
805.199	26161
805.341	26336
805.483	26396
805.626	26393
805.768	26301
805.91	26377
806.052	26381
806.194	26351
806.336	26415
806.478	26488
806.62	26374
806.762	26408
806.904	26587
807.046	27024
807.188	26849
807.33	26788
807.472	26777
807.614	26724
807.756	26648
807.898	26526
808.04	26575
808.182	26579
808.324	26640
808.465	26746
808.607	26914
808.749	27058
808.891	27070
809.033	27176
809.174	27058
809.316	26845
809.458	26925
809.6	26910
809.741	27013
809.883	27252
810.025	27287
810.166	27180
810.308	27192
810.45	27081
810.591	27207
810.733	27058
810.875	26929
811.016	26899
811.158	26918
811.299	27055
811.441	27085
811.582	27230
811.724	26963
811.865	26944
812.007	27001
812.148	26921
812.29	26986
812.431	27135
812.573	27192
812.714	27313
812.855	27427
812.997	27488
813.138	27831
813.279	27583
813.421	27515
813.562	27355
813.703	27237
813.845	27272
813.986	26876
814.127	26720
814.268	26651
814.41	26743
814.551	26571
814.692	26587
814.833	26651
814.974	26457
815.115	26621
815.256	26267
815.397	26648
815.539	26434
815.68	26351
815.821	26438
815.962	26419
816.103	26320
816.244	26355
816.385	26088
816.526	26161
816.666	26027
816.807	25955
816.948	26058
817.089	25849
817.23	25814
817.371	25993
817.512	25944
817.653	25902
817.793	25811
817.934	25936
818.075	25913
818.216	26008
818.356	25841
818.497	25639
818.638	25662
818.778	25552
818.919	25738
819.06	25723
819.2	25761
819.341	25719
819.481	25860
819.622	26024
819.762	26142
819.903	26062
820.043	26046
820.184	25963
820.324	26046
820.465	26020
820.605	26107
820.746	25947
820.886	25765
821.026	25864
821.167	25959
821.307	25936
821.447	25723
821.588	25765
821.728	25586
821.868	25457
822.008	25381
822.149	25354
822.289	25301
822.429	25156
822.569	24981
822.709	25076
822.849	24901
822.99	24886
823.13	24760
823.27	24798
823.41	24833
823.55	24741
823.69	24658
823.83	24612
823.97	24627
824.11	24502
824.25	24403
824.389	24376
824.529	24509
824.669	24403
824.809	24658
824.949	24601
825.089	24661
825.228	24486
825.368	24380
825.508	24235
825.648	24399
825.787	24304
825.927	24521
826.067	24357
826.206	24270
826.346	24357
826.485	24315
826.625	24262
826.765	24456
826.904	24308
827.044	24102
827.183	24053
827.323	23965
827.462	24034
827.601	24152
827.741	24049
827.88	24136
828.02	23980
828.159	24041
828.298	24060
828.437	24136
828.577	23973
828.716	24148
828.855	23817
828.994	23775
829.134	23657
829.273	23710
829.412	23756
829.551	23680
829.69	23672
829.829	23638
829.968	23893
830.107	23745
830.246	23752
830.385	23737
830.524	23680
830.663	23619
830.802	23467
830.941	23368
831.08	23444
831.219	23474
831.357	23459
831.496	23577
831.635	23315
831.774	23345
831.913	23254
832.051	23113
832.19	23067
832.329	23140
832.467	23052
832.606	23018
832.744	23067
832.883	23044
833.022	22965
833.16	23067
833.299	23124
833.437	23121
833.576	23155
833.714	23102
833.852	23098
833.991	23109
834.129	23170
834.267	23204
834.406	23067
834.544	23170
834.682	23136
834.821	23006
834.959	23208
835.097	23113
835.235	23227
835.373	23124
835.511	23109
835.65	22972
835.788	22965
835.926	22782
836.064	22672
836.202	22839
836.34	23014
836.478	22938
836.615	22953
836.753	23010
836.891	23105
837.029	23014
837.167	22885
837.305	22938
837.443	22904
837.58	22881
837.718	22938
837.856	22797
837.993	22721
838.131	22774
838.269	22721
838.406	22778
838.544	22653
838.681	22557
838.819	22493
838.956	22329
839.094	22211
839.231	22261
839.369	22500
839.506	22694
839.643	22527
839.781	22314
839.918	22226
840.055	22303
840.193	22291
840.33	22162
840.467	22215
840.604	22257
840.742	22436
840.879	22067
841.016	22154
841.153	22040
841.29	22382
841.427	22226
841.564	22352
841.701	22147
841.838	22207
841.975	22032
842.112	22074
842.249	21895
842.385	21998
842.522	22226
842.659	21983
842.796	21998
842.933	22120
843.069	21945
843.206	21964
843.343	22013
843.479	21972
843.616	21941
843.752	21774
843.889	21816
844.025	21854
844.162	21816
844.298	21854
844.435	21720
844.571	21785
844.708	21747
844.844	21911
844.98	21915
845.117	21781
845.253	21709
845.389	21682
845.525	21648
845.661	21576
845.798	21458
845.934	21549
846.07	21507
846.206	21637
846.342	21603
846.478	21538
846.614	21325
846.75	21119
846.886	21188
847.022	21287
847.158	21287
847.294	21332
847.429	21416
847.565	21222
847.701	21450
847.837	20982
847.972	20921
848.108	21100
848.244	21062
848.379	21017
848.515	20815
848.65	20872
848.786	20811
848.921	20819
849.057	21013
849.192	20861
849.328	20887
849.463	20739
849.598	20739
849.734	20724
849.869	20834
850.004	20644
850.14	20587
850.275	20701
850.41	20537
850.545	20530
850.68	20514
850.815	20701
850.95	20636
851.085	20754
851.22	20750
851.355	20629
851.49	20621
851.625	20579
851.76	20602
851.895	20503
852.03	20537
852.165	20575
852.299	20598
852.434	20758
852.569	20670
852.703	20575
852.838	20621
852.973	20788
853.107	20670
853.242	20613
853.376	20442
853.511	20415
853.645	20518
853.78	20465
853.914	20313
854.048	20423
854.183	20355
854.317	20370
854.451	20670
854.585	20457
854.72	20374
854.854	20590
854.988	20320
855.122	20431
855.256	20442
855.39	20415
855.524	20492
855.658	20415
855.792	20446
855.926	20518
856.06	20495
856.194	20476
856.327	20423
856.461	20434
856.595	20324
856.729	20282
856.862	20564
856.996	20476
857.13	20461
857.263	20457
857.397	20427
857.53	20461
857.664	20503
857.797	20507
857.931	20552
858.064	20362
858.197	20625
858.331	20473
858.464	20339
858.597	20233
858.731	20347
858.864	20377
858.997	20389
859.13	20469
859.263	20389
859.396	20609
859.529	20412
859.662	20343
859.795	20294
859.928	20541
860.061	20530
860.194	20556
860.327	20476
860.46	20381
860.592	20579
860.725	20556
860.858	20552
860.99	20415
861.123	20351
861.256	20362
861.388	20507
861.521	21184
861.653	20389
861.786	20271
861.918	20294
862.05	20336
862.183	20362
862.315	20362
862.447	20400
862.58	20404
862.712	20115
862.844	20237
862.976	20164
863.108	20240
863.24	20511
863.372	20058
863.504	20218
863.636	20218
863.768	20259
863.9	20256
864.032	20145
864.164	20225
864.296	20107
864.428	20248
864.559	20138
864.691	20202
864.823	20202
864.954	20199
865.086	20202
865.217	20172
865.349	19986
865.48	20073
865.612	20005
865.743	20256
865.875	20202
866.006	19978
866.137	20031
866.269	20096
866.4	19986
866.531	20100
866.662	19921
866.793	20005
866.924	19936
867.055	19989
867.186	20035
867.317	19974
867.448	19875
867.579	19868
867.71	19883
867.841	19875
867.972	19959
868.103	19993
868.233	20024
868.364	19974
868.495	20111
868.625	20305
868.756	20305
868.886	20183
869.017	20290
869.147	20317
869.278	20221
869.408	20259
869.539	20298
869.669	20465
869.799	20259
869.929	20469
870.06	20278
870.19	20674
870.32	20560
870.45	20621
870.58	20545
870.71	20689
870.84	20826
870.97	20708
871.1	20594
871.23	20785
871.36	20887
871.489	20708
871.619	20853
871.749	20880
871.879	20887
872.008	20994
872.138	20811
872.267	20765
872.397	20632
872.526	20823
872.656	20705
872.785	20663
872.915	20849
873.044	20990
873.173	20765
873.303	20941
873.432	20937
873.561	20979
873.69	20857
873.819	20899
873.948	20963
874.077	20735
874.206	20952
874.335	20895
874.464	21009
874.593	21081
874.722	21062
874.851	21203
874.979	21233
875.108	21226
875.237	21074
875.365	20967
875.494	21017
875.623	21188
875.751	21123
875.88	21108
876.008	21275
876.136	21325
876.265	21496
876.393	21667
876.521	21686
876.65	21717
876.778	21545
876.906	21450
877.034	21370
877.162	21583
877.29	21397
877.418	21564
877.546	21610
877.674	21466
877.802	21519
877.93	21496
878.058	21519
878.185	21340
878.313	21393
878.441	21519
878.568	21260
878.696	21374
878.824	21504
878.951	21606
879.079	21667
879.206	21873
879.333	21568
879.461	21481
879.588	21515
879.715	21591
879.842	21675
879.97	21599
880.097	21344
880.224	21230
880.351	21237
880.478	21306
880.605	21199
880.732	21272
880.859	21515
880.986	21310
881.112	21272
881.239	21123
881.366	20982
881.493	20952
881.619	20910
881.746	20853
881.872	20758
881.999	20853
882.125	20861
882.252	21005
882.378	20906
882.505	21081
882.631	20781
882.757	20579
882.883	20667
883.01	20659
883.136	20651
883.262	20492
883.388	20431
883.514	20571
883.64	20697
883.766	20442
883.892	20366
884.018	20503
884.143	20556
884.269	20598
884.395	20290
884.52	20164
884.646	20309
884.772	20199
884.897	20130
885.023	20332
885.148	20282
885.274	20377
885.399	20317
885.524	20176
885.65	20202
885.775	20225
885.9	20290
886.025	20336
886.15	20362
886.275	20237
886.4	20149
886.525	20164
886.65	20153
886.775	20103
886.9	20317
887.025	20343
887.149	20218
887.274	20092
887.399	20081
887.523	19978
887.648	20001
887.773	19864
887.897	20024
888.021	20039
888.146	19890
888.27	20103
888.395	20210
888.519	20024
888.643	19951
888.767	19978
888.891	19860
889.015	19803
889.139	19822
889.263	19628
889.387	19963
889.511	20050
889.635	19887
889.759	19742
889.883	19742
890.006	19936
890.13	19845
890.254	19719
890.377	19655
890.501	19575
890.624	19556
890.748	19575
890.871	19480
890.995	19487
891.118	19350
891.241	19483
891.364	19396
891.488	19544
891.611	19441
891.734	19472
891.857	19464
891.98	19396
892.103	19430
892.226	19365
892.349	19384
892.471	19194
892.594	19407
892.717	19350
892.839	19346
892.962	19327
893.085	19483
893.207	19460
893.33	19228
893.452	19282
893.575	19426
893.697	19324
893.819	19487
893.941	19552
894.064	19506
894.186	19225
894.308	19316
894.43	19453
894.552	19514
894.674	19460
894.796	19244
894.918	19320
895.04	19274
895.161	19362
895.283	19388
895.405	19377
895.526	19365
895.648	19297
895.769	19441
895.891	19460
896.012	19270
896.134	19533
896.255	19384
896.376	19381
896.498	19377
896.619	19441
896.74	19274
896.861	19415
896.982	19582
897.103	19772
897.224	19666
897.345	19571
897.466	19578
897.587	19624
897.708	19696
897.828	19620
897.949	19521
898.07	19407
898.19	19460
898.311	19674
898.431	19601
898.552	19616
898.672	19647
898.792	19643
898.913	19567
899.033	19525
899.153	19384
899.273	19327
899.393	19343
899.513	19419
899.633	19377
899.753	19289
899.873	19171
899.993	19369
900.113	19270
900.232	19354
900.352	19213
900.472	19259
900.591	19213
900.711	19080
900.83	18973
900.95	19236
901.069	19259
901.189	18996
901.308	18814
901.427	18738
901.546	18696
901.665	18791
901.784	18764
901.904	18650
902.023	18582
902.141	18304
902.26	18224
902.379	18346
902.498	18285
902.617	18201
902.735	18308
902.854	18140
902.973	18114
903.091	17798
903.21	17889
903.328	18019
903.446	17775
903.565	17817
903.683	17687
903.801	17581
903.919	17809
904.038	17783
904.156	17478
904.274	17596
904.392	17490
904.51	17421
904.627	17478
904.745	17516
904.863	17505
904.981	17307
905.098	17105
905.216	17242
905.334	17296
905.451	17265
905.569	17185
905.686	17223
905.803	17086
905.921	16946
906.038	17189
906.155	16968
906.272	16862
906.389	16961
906.506	16672
906.623	16755
906.74	16675
906.857	16634
906.974	16634
907.091	16740
907.208	16843
907.324	16793
907.441	16668
907.557	16592
907.674	16382
907.79	16421
907.907	16382
908.023	16508
908.139	16504
908.256	16432
908.372	16356
908.488	16337
908.604	16097
908.72	16029
908.836	16181
908.952	16109
909.068	16253
909.184	16265
909.3	16219
909.415	16173
909.531	16150
909.647	15907
909.762	15911
909.878	15854
909.993	15842
910.108	15873
910.224	15724
910.339	15953
910.454	15701
910.57	15705
910.685	15641
910.8	15987
910.915	15888
911.03	15755
911.145	15549
911.259	15496
911.374	15511
911.489	15431
911.604	15302
911.718	15298
911.833	15233
911.947	15154
912.062	15001
912.176	15188
912.291	15264
912.405	15226
912.519	15317
912.633	15393
912.748	15370
912.862	15211
912.976	15146
913.09	14963
913.204	15020
913.318	15214
913.431	15233
913.545	15119
913.659	15131
913.772	15108
913.886	14952
914	14899
914.113	14975
914.226	14914
914.34	14956
914.453	14754
914.566	14921
914.68	14830
914.793	14708
914.906	14606
915.019	14492
915.132	14552
915.245	14461
915.358	14579
915.47	14480
915.583	14434
915.696	14522
915.809	14594
915.921	14678
916.034	14503
916.146	14476
916.259	14408
916.371	14473
916.483	14514
916.595	14294
916.708	14400
916.82	14469
916.932	14347
917.044	14358
917.156	14294
917.268	14172
917.38	14210
917.491	14191
917.603	14172
917.715	14248
917.826	14294
917.938	14183
918.049	14039
918.161	14134
918.272	14267
918.384	14282
918.495	14111
918.606	14031
918.717	13925
918.828	13936
918.939	13967
919.05	13883
919.161	13959
919.272	13731
919.383	13727
919.494	13955
919.604	14195
919.715	13902
919.826	13860
919.936	13894
920.047	13963
920.157	13898
920.267	14119
920.378	13982
920.488	13902
920.598	14073
920.708	14100
920.818	14123
920.928	13917
921.038	14221
921.148	14138
921.258	13883
921.368	13738
921.477	13670
921.587	13704
921.697	13518
921.806	13700
921.916	13533
922.025	13266
922.134	13327
922.244	13202
922.353	13327
922.462	13278
922.571	13099
922.68	12951
922.789	12932
922.898	13000
923.007	12954
923.116	12993
923.224	12947
923.333	12962
923.442	12886
923.55	12852
923.659	12783
923.767	12875
923.876	12871
923.984	12867
924.092	12817
924.201	12825
924.309	12810
924.417	12665
924.525	12681
924.633	12604
924.741	13552
924.849	12521
924.956	12612
925.064	12498
925.172	12494
925.279	12365
925.387	12429
925.494	12365
925.602	12616
925.709	12490
925.816	12330
925.924	12346
926.031	12460
926.138	12376
926.245	12479
926.352	12319
926.459	12319
926.566	12437
926.673	12365
926.779	12209
926.886	12186
926.993	12106
927.099	12102
927.206	11969
927.312	12076
927.419	12045
927.525	11988
927.631	12019
927.737	11901
927.843	11847
927.95	11802
928.056	11824
928.162	11756
928.267	11916
928.373	12513
928.479	11893
928.585	11714
928.69	11786
928.796	11847
928.901	11695
929.007	11634
929.112	11668
929.218	11642
929.323	11592
929.428	11554
929.533	11737
929.638	11433
929.743	11558
929.848	11619
929.953	11570
930.058	11452
930.163	11273
930.267	11299
930.372	11535
930.477	11311
930.581	11509
930.685	11337
930.79	11174
930.894	11178
930.998	11132
931.103	11299
931.207	10930
931.311	10835
931.415	10767
931.519	10592
931.623	10630
