Data from test_V78500241_2652.txt Node
Date: Fri Mar 25 15:28:19 CST 2022
User: usil
Spectrometer: V785-0024
Trigger mode: 0
Integration Time (sec): 4.000000E-1
Scans to average: 1
Nonlinearity correction enabled: false
Boxcar width: 0
Storing dark spectrum: false
XAxis mode: Wavelengths
Number of Pixels in Spectrum: 1024
>>>>>Begin Spectral Data<<<<<
801.071	26986
801.214	27024
801.356	26876
801.499	26899
801.641	26552
801.783	26598
801.926	26530
802.068	26594
802.211	26469
802.353	26480
802.496	26244
802.638	26351
802.78	26282
802.923	26180
803.065	26088
803.208	26138
803.35	26305
803.492	26370
803.635	26492
803.777	26233
803.919	26381
804.061	26724
804.204	26427
804.346	26294
804.488	26362
804.63	26252
804.773	26305
804.915	26351
805.057	26423
805.199	26412
805.341	26347
805.483	26507
805.626	26530
805.768	26465
805.91	26564
806.052	26320
806.194	26324
806.336	26602
806.478	26617
806.62	26564
806.762	26579
806.904	26720
807.046	27039
807.188	26868
807.33	26788
807.472	26838
807.614	26887
807.756	26861
807.898	26864
808.04	26568
808.182	26651
808.324	26800
808.465	26746
808.607	26891
808.749	27100
808.891	27157
809.033	27222
809.174	27150
809.316	26887
809.458	27077
809.6	26971
809.741	27100
809.883	27211
810.025	27329
810.166	27344
810.308	27367
810.45	27294
810.591	27332
810.733	27062
810.875	27123
811.016	26887
811.158	26929
811.299	27222
811.441	27214
811.582	27325
811.724	27127
811.865	27028
812.007	27028
812.148	26994
812.29	27089
812.431	27192
812.573	27317
812.714	27268
812.855	27538
812.997	27637
813.138	27713
813.279	27633
813.421	27564
813.562	27397
813.703	27363
813.845	27146
813.986	27028
814.127	26796
814.268	26796
814.41	26625
814.551	26674
814.692	26773
814.833	26590
814.974	26689
815.115	26804
815.256	26511
815.397	26549
815.539	26606
815.68	26412
815.821	26370
815.962	26537
816.103	26377
816.244	26313
816.385	26229
816.526	26183
816.666	26050
816.807	25947
816.948	26035
817.089	25993
817.23	25974
817.371	25917
817.512	26016
817.653	25978
817.793	25875
817.934	25932
818.075	25974
818.216	25906
818.356	25917
818.497	25746
818.638	25670
818.778	25658
818.919	25795
819.06	25807
819.2	25887
819.341	25978
819.481	25860
819.622	26065
819.762	26358
819.903	26309
820.043	26024
820.184	26100
820.324	26020
820.465	26073
820.605	26031
820.746	26233
820.886	25731
821.026	26039
821.167	25974
821.307	25974
821.447	25959
821.588	25799
821.728	25537
821.868	25624
822.008	25529
822.149	25225
822.289	25400
822.429	25118
822.569	25145
822.709	25110
822.849	25000
822.99	24916
823.13	25000
823.27	24734
823.41	24681
823.55	24703
823.69	24700
823.83	24768
823.97	24536
824.11	24490
824.25	24513
824.389	24502
824.529	24589
824.669	24483
824.809	24715
824.949	24658
825.089	24525
825.228	24437
825.368	24437
825.508	24338
825.648	24380
825.787	24410
825.927	24536
826.067	24327
826.206	24399
826.346	24441
826.485	24471
826.625	24361
826.765	24593
826.904	24540
827.044	24163
827.183	24152
827.323	24171
827.462	24007
827.601	24140
827.741	24155
827.88	24171
828.02	24076
828.159	24125
828.298	24072
828.437	24140
828.577	24140
828.716	24030
828.855	24026
828.994	23851
829.134	23851
829.273	23840
829.412	23904
829.551	23745
829.69	23878
829.829	23893
829.968	23950
830.107	23878
830.246	23885
830.385	23908
830.524	23718
830.663	23657
830.802	23573
830.941	23372
831.08	23421
831.219	23524
831.357	23630
831.496	23729
831.635	23524
831.774	23364
831.913	23448
832.051	23220
832.19	23223
832.329	23284
832.467	23170
832.606	23113
832.744	23075
832.883	23086
833.022	23041
833.16	23079
833.299	23128
833.437	23280
833.576	23242
833.714	23147
833.852	23037
833.991	23174
834.129	23208
834.267	23341
834.406	23303
834.544	23246
834.682	23044
834.821	23235
834.959	23345
835.097	23246
835.235	23185
835.373	23265
835.511	23064
835.65	23010
835.788	23090
835.926	22904
836.064	22900
836.202	22858
836.34	22991
836.478	23174
836.615	23060
836.753	23075
836.891	23071
837.029	23064
837.167	23003
837.305	23010
837.443	22980
837.58	22908
837.718	22919
837.856	22911
837.993	22946
838.131	22831
838.269	22687
838.406	22847
838.544	22729
838.681	22546
838.819	22550
838.956	22322
839.094	22360
839.231	22421
839.369	22497
839.506	22835
839.643	22584
839.781	22356
839.918	22303
840.055	22333
840.193	22466
840.33	22333
840.467	22272
840.604	22363
840.742	22497
840.879	22219
841.016	22322
841.153	22158
841.29	22295
841.427	22367
841.564	22291
841.701	22363
841.838	22246
841.975	22257
842.112	22242
842.249	22150
842.385	22177
842.522	22291
842.659	22204
842.796	22044
842.933	22029
843.069	22032
843.206	21964
843.343	22196
843.479	22067
843.616	22105
843.752	21873
843.889	21953
844.025	21869
844.162	21865
844.298	21964
844.435	21934
844.571	21778
844.708	21835
844.844	22063
844.98	21972
845.117	21949
845.253	21728
845.389	21797
845.525	21785
845.661	21717
845.798	21500
845.934	21713
846.07	21591
846.206	21542
846.342	21671
846.478	21542
846.614	21321
846.75	21275
846.886	21431
847.022	21454
847.158	21348
847.294	21363
847.429	21447
847.565	21310
847.701	21534
847.837	21039
847.972	21039
848.108	21207
848.244	21108
848.379	21013
848.515	20994
848.65	20918
848.786	20906
848.921	20929
849.057	21070
849.192	20883
849.328	20971
849.463	20880
849.598	20925
849.734	20701
849.869	20796
850.004	20823
850.14	20720
850.275	20716
850.41	20594
850.545	20686
850.68	20724
850.815	20686
850.95	20598
851.085	20811
851.22	20887
851.355	20716
851.49	20640
851.625	20636
851.76	20583
851.895	20807
852.03	20613
852.165	20678
852.299	20823
852.434	20826
852.569	20651
852.703	20670
852.838	20781
852.973	20708
853.107	20727
853.242	20678
853.376	20579
853.511	20377
853.645	20507
853.78	20583
853.914	20602
854.048	20549
854.183	20511
854.317	20488
854.451	20785
854.585	20457
854.72	20454
854.854	20590
854.988	20583
855.122	20484
855.256	20484
855.39	20492
855.524	20617
855.658	20594
855.792	20602
855.926	20476
856.06	20602
856.194	20549
856.327	20434
856.461	20476
856.595	20602
856.729	20385
856.862	20549
856.996	20545
857.13	20526
857.263	20602
857.397	20598
857.53	20374
857.664	20579
857.797	20617
857.931	20530
858.064	20495
858.197	20564
858.331	20366
858.464	20495
858.597	20454
858.731	20495
858.864	20381
858.997	20446
859.13	20518
859.263	20469
859.396	20564
859.529	20480
859.662	20484
859.795	20461
859.928	20571
860.061	20530
860.194	20754
860.327	20492
860.46	20473
860.592	20708
860.725	20644
860.858	20625
860.99	20518
861.123	20412
861.256	20389
861.388	20396
861.521	21146
861.653	20400
861.786	20324
861.918	20377
862.05	20358
862.183	20507
862.315	20541
862.447	20480
862.58	20480
862.712	20290
862.844	20202
862.976	20244
863.108	20465
863.24	20720
863.372	20119
863.504	20100
863.636	20172
863.768	20237
863.9	20263
864.032	20229
864.164	20191
864.296	20172
864.428	20469
864.559	20328
864.691	20252
864.823	20275
864.954	20332
865.086	20157
865.217	20187
865.349	20157
865.48	20168
865.612	20214
865.743	20142
865.875	20084
866.006	20081
866.137	20077
866.269	20305
866.4	20062
866.531	20088
866.662	20012
866.793	20161
866.924	20145
867.055	20031
867.186	20122
867.317	20031
867.448	20065
867.579	20180
867.71	20008
867.841	20016
867.972	20001
868.103	20149
868.233	20107
868.364	20187
868.495	20229
868.625	20225
868.756	20461
868.886	20267
869.017	20252
869.147	20507
869.278	20545
869.408	20385
869.539	20355
869.669	20423
869.799	20366
869.929	20381
870.06	20412
870.19	20746
870.32	20545
870.45	20716
870.58	20724
870.71	20883
870.84	20880
870.97	20781
871.1	20785
871.23	20845
871.36	20921
871.489	20944
871.619	20956
871.749	20952
871.879	21055
872.008	21055
872.138	20979
872.267	20937
872.397	20861
872.526	20735
872.656	20819
872.785	20868
872.915	20906
873.044	20994
873.173	20933
873.303	21039
873.432	21039
873.561	21036
873.69	21013
873.819	20998
873.948	21093
874.077	20906
874.206	20819
874.335	21081
874.464	21150
874.593	21119
874.722	21154
874.851	21264
874.979	21192
875.108	21321
875.237	21173
875.365	21077
875.494	21203
875.623	21169
875.751	21184
875.88	21329
876.008	21241
876.136	21302
876.265	21629
876.393	21633
876.521	21728
876.65	21675
876.778	21671
876.906	21622
877.034	21641
877.162	21568
877.29	21462
877.418	21568
877.546	21523
877.674	21553
877.802	21523
877.93	21557
878.058	21515
878.185	21454
878.313	21420
878.441	21660
878.568	21378
878.696	21332
878.824	21637
878.951	21591
879.079	21778
879.206	21911
879.333	21831
879.461	21622
879.588	21614
879.715	21633
879.842	21857
879.97	21747
880.097	21405
880.224	21405
880.351	21302
880.478	21485
880.605	21363
880.732	21272
880.859	21595
880.986	21386
881.112	21412
881.239	21268
881.366	21173
881.493	21047
881.619	20895
881.746	20910
881.872	21005
881.999	21013
882.125	20762
882.252	21093
882.378	21032
882.505	21138
882.631	20697
882.757	20648
882.883	20830
883.01	20678
883.136	20579
883.262	20598
883.388	20617
883.514	20602
883.64	20613
883.766	20617
883.892	20495
884.018	20499
884.143	20602
884.269	20594
884.395	20423
884.52	20259
884.646	20278
884.772	20294
884.897	20221
885.023	20294
885.148	20419
885.274	20461
885.399	20476
885.524	20385
885.65	20229
885.775	20286
885.9	20221
886.025	20450
886.15	20442
886.275	20225
886.4	20309
886.525	20377
886.65	20263
886.775	20343
886.9	20423
887.025	20537
887.149	20343
887.274	20122
887.399	20073
887.523	20043
887.648	20062
887.773	20012
887.897	20153
888.021	20122
888.146	20073
888.27	20183
888.395	20164
888.519	20081
888.643	20130
888.767	20092
888.891	20031
889.015	19875
889.139	19925
889.263	19913
889.387	19967
889.511	20069
889.635	20027
889.759	19852
889.883	19925
890.006	19974
890.13	19993
890.254	19879
890.377	19925
890.501	19723
890.624	19765
890.748	19712
890.871	19651
890.995	19407
891.118	19506
891.241	19521
891.364	19419
891.488	19609
891.611	19491
891.734	19525
891.857	19495
891.98	19441
892.103	19487
892.226	19434
892.349	19460
892.471	19335
892.594	19415
892.717	19396
892.839	19400
892.962	19400
893.085	19460
893.207	19525
893.33	19270
893.452	19422
893.575	19434
893.697	19411
893.819	19552
893.941	19548
894.064	19487
894.186	19384
894.308	19415
894.43	19487
894.552	19571
894.674	19525
894.796	19381
894.918	19468
895.04	19411
895.161	19575
895.283	19472
895.405	19422
895.526	19438
895.648	19445
895.769	19346
895.891	19495
896.012	19521
896.134	19407
896.255	19502
896.376	19487
896.498	19403
896.619	19468
896.74	19411
896.861	19594
896.982	19750
897.103	19902
897.224	19738
897.345	19734
897.466	19567
897.587	19643
897.708	19681
897.828	19776
897.949	19575
898.07	19559
898.19	19563
898.311	19761
898.431	19609
898.552	19674
898.672	19750
898.792	19830
898.913	19670
899.033	19578
899.153	19510
899.273	19422
899.393	19316
899.513	19350
899.633	19403
899.753	19343
899.873	19312
899.993	19426
900.113	19422
900.232	19324
900.352	19263
900.472	19289
900.591	19247
900.711	19278
900.83	19179
900.95	19270
901.069	19282
901.189	19103
901.308	18894
901.427	18825
901.546	18783
901.665	18821
901.784	18863
901.904	18711
902.023	18620
902.141	18346
902.26	18243
902.379	18422
902.498	18319
902.617	18273
902.735	18285
902.854	18308
902.973	18266
903.091	17980
903.21	17973
903.328	18049
903.446	17904
903.565	17809
903.683	17920
903.801	17695
903.919	17824
904.038	17802
904.156	17623
904.274	17687
904.392	17516
904.51	17608
904.627	17608
904.745	17805
904.863	17733
904.981	17368
905.098	17200
905.216	17254
905.334	17284
905.451	17261
905.569	17277
905.686	17227
905.803	17368
905.921	17197
906.038	17155
906.155	17086
906.272	16938
906.389	17025
906.506	16847
906.623	16759
906.74	16736
906.857	16675
906.974	16660
907.091	16771
907.208	16889
907.324	16828
907.441	16687
907.557	16538
907.674	16485
907.79	16428
907.907	16481
908.023	16607
908.139	16489
908.256	16462
908.372	16402
908.488	16367
908.604	16352
908.72	16390
908.836	16333
908.952	16261
909.068	16207
909.184	16360
909.3	16223
909.415	16344
909.531	16253
909.647	16002
909.762	15975
909.878	15915
909.993	16006
910.108	15903
910.224	15895
910.339	15895
910.454	15770
910.57	15755
910.685	15705
910.8	15922
910.915	15968
911.03	15755
911.145	15606
911.259	15591
911.374	15492
911.489	15618
911.604	15336
911.718	15317
911.833	15348
911.947	15401
912.062	15230
912.176	15397
912.291	15329
912.405	15283
912.519	15553
912.633	15485
912.748	15382
912.862	15237
912.976	15188
913.09	15055
913.204	15161
913.318	15214
913.431	15195
913.545	15207
913.659	15173
913.772	15089
913.886	15043
914	15013
914.113	15123
914.226	15036
914.34	15005
914.453	14804
914.566	15005
914.68	14788
914.793	14842
914.906	14674
915.019	14571
915.132	14598
915.245	14579
915.358	14587
915.47	14549
915.583	14571
915.696	14712
915.809	14686
915.921	14705
916.034	14473
916.146	14473
916.259	14434
916.371	14564
916.483	14393
916.595	14400
916.708	14423
916.82	14450
916.932	14381
917.044	14343
917.156	14275
917.268	14267
917.38	14275
917.491	14240
917.603	14237
917.715	14286
917.826	14366
917.938	14134
918.049	14134
918.161	14244
918.272	14389
918.384	14309
918.495	14172
918.606	14031
918.717	13902
918.828	14092
918.939	14031
919.05	13963
919.161	14016
919.272	13788
919.383	13887
919.494	14096
919.604	14183
919.715	14031
919.826	13936
919.936	13989
920.047	13989
920.157	14008
920.267	14130
920.378	13947
920.488	13940
920.598	14100
920.708	14278
920.818	14096
920.928	14119
921.038	14256
921.148	14244
921.258	13959
921.368	13849
921.477	13818
921.587	13647
921.697	13571
921.806	13776
921.916	13575
922.025	13468
922.134	13407
922.244	13396
922.353	13472
922.462	13282
922.571	13187
922.68	13095
922.789	13023
922.898	13072
923.007	12943
923.116	13012
923.224	13076
923.333	13012
923.442	12958
923.55	12856
923.659	12806
923.767	12894
923.876	12890
923.984	12859
924.092	12817
924.201	12783
924.309	12814
924.417	12711
924.525	12722
924.633	12715
924.741	13556
924.849	12585
924.956	12639
925.064	12422
925.172	12395
925.279	12574
925.387	12521
925.494	12407
925.602	12582
925.709	12407
925.816	12300
925.924	12464
926.031	12559
926.138	12395
926.245	12604
926.352	12426
926.459	12532
926.566	12521
926.673	12407
926.779	12281
926.886	12251
926.993	12125
927.099	12140
927.206	12034
927.312	12049
927.419	12133
927.525	12015
927.631	12041
927.737	11942
927.843	11965
927.95	11798
928.056	11923
928.162	11988
928.267	11977
928.373	12452
928.479	12007
928.585	11691
928.69	11832
928.796	11851
928.901	11767
929.007	11570
929.112	11767
929.218	11661
929.323	11596
929.428	11646
929.533	11771
929.638	11551
929.743	11619
929.848	11657
929.953	11562
930.058	11528
930.163	11368
930.267	11337
930.372	11474
930.477	11296
930.581	11520
930.685	11337
930.79	11280
930.894	11284
930.998	11193
931.103	11349
931.207	11048
931.311	10869
931.415	10881
931.519	10653
931.623	10584
