Data from test_V78500241_381.txt Node
Date: Fri Mar 25 15:12:30 CST 2022
User: usil
Spectrometer: V785-0024
Trigger mode: 0
Integration Time (sec): 4.000000E-1
Scans to average: 1
Nonlinearity correction enabled: false
Boxcar width: 0
Storing dark spectrum: false
XAxis mode: Wavelengths
Number of Pixels in Spectrum: 1024
>>>>>Begin Spectral Data<<<<<
801.071	26838
801.214	26819
801.356	26693
801.499	26587
801.641	26579
801.783	26453
801.926	26533
802.068	26469
802.211	26328
802.353	26385
802.496	26111
802.638	26100
802.78	26187
802.923	26100
803.065	26126
803.208	26024
803.35	26225
803.492	26172
803.635	26446
803.777	26317
803.919	26244
804.061	26606
804.204	26313
804.346	26278
804.488	26176
804.63	26248
804.773	26130
804.915	26351
805.057	26396
805.199	26180
805.341	26374
805.483	26336
805.626	26389
805.768	26233
805.91	26423
806.052	26389
806.194	26237
806.336	26625
806.478	26423
806.62	26431
806.762	26495
806.904	26526
807.046	26998
807.188	26796
807.33	26773
807.472	26982
807.614	26689
807.756	26708
807.898	26602
808.04	26571
808.182	26712
808.324	26613
808.465	26587
808.607	26739
808.749	26895
808.891	27093
809.033	27096
809.174	27112
809.316	27005
809.458	26944
809.6	26910
809.741	26971
809.883	27089
810.025	27138
810.166	27249
810.308	27317
810.45	27214
810.591	27154
810.733	26994
810.875	27032
811.016	26777
811.158	26830
811.299	27043
811.441	26998
811.582	26979
811.724	26819
811.865	26902
812.007	26883
812.148	26868
812.29	26971
812.431	27150
812.573	27283
812.714	27363
812.855	27606
812.997	27580
813.138	27823
813.279	27622
813.421	27450
813.562	27363
813.703	27321
813.845	27165
813.986	26902
814.127	26697
814.268	26564
814.41	26606
814.551	26602
814.692	26674
814.833	26461
814.974	26606
815.115	26659
815.256	26495
815.397	26450
815.539	26495
815.68	26446
815.821	26355
815.962	26412
816.103	26336
816.244	26278
816.385	26142
816.526	26020
816.666	26001
816.807	26001
816.948	26012
817.089	25993
817.23	25803
817.371	25997
817.512	25871
817.653	25822
817.793	25757
817.934	25784
818.075	25902
818.216	25875
818.356	25890
818.497	25734
818.638	25529
818.778	25613
818.919	25693
819.06	25742
819.2	25757
819.341	25852
819.481	25917
819.622	25970
819.762	26126
819.903	26275
820.043	25997
820.184	26001
820.324	25970
820.465	25963
820.605	26111
820.746	26020
820.886	25772
821.026	25864
821.167	25887
821.307	26039
821.447	25799
821.588	25807
821.728	25731
821.868	25487
822.008	25354
822.149	25244
822.289	25384
822.429	25031
822.569	25069
822.709	25118
822.849	24791
822.99	24890
823.13	24935
823.27	24806
823.41	24608
823.55	24620
823.69	24612
823.83	24620
823.97	24593
824.11	24505
824.25	24452
824.389	24369
824.529	24528
824.669	24521
824.809	24661
824.949	24540
825.089	24452
825.228	24528
825.368	24376
825.508	24266
825.648	24391
825.787	24388
825.927	24372
826.067	24243
826.206	24319
826.346	24407
826.485	24448
826.625	24300
826.765	24285
826.904	24388
827.044	24095
827.183	24095
827.323	24022
827.462	24091
827.601	24182
827.741	24060
827.88	24095
828.02	24018
828.159	23969
828.298	24034
828.437	24121
828.577	23961
828.716	24121
828.855	23977
828.994	23779
829.134	23931
829.273	23893
829.412	23809
829.551	23665
829.69	23741
829.829	23832
829.968	23813
830.107	23828
830.246	23813
830.385	23756
830.524	23600
830.663	23558
830.802	23547
830.941	23360
831.08	23360
831.219	23414
831.357	23406
831.496	23642
831.635	23406
831.774	23299
831.913	23334
832.051	23216
832.19	23094
832.329	23239
832.467	23143
832.606	23003
832.744	23010
832.883	23239
833.022	23079
833.16	23060
833.299	23060
833.437	23124
833.576	23193
833.714	23159
833.852	23261
833.991	23235
834.129	23444
834.267	23280
834.406	23143
834.544	23387
834.682	23193
834.821	23193
834.959	23292
835.097	23075
835.235	23151
835.373	23124
835.511	23162
835.65	23029
835.788	23124
835.926	22873
836.064	22820
836.202	22915
836.34	23174
836.478	23109
836.615	23094
836.753	23014
836.891	23128
837.029	22980
837.167	23060
837.305	23014
837.443	23018
837.58	22824
837.718	22938
837.856	22934
837.993	22866
838.131	22892
838.269	22607
838.406	22843
838.544	22668
838.681	22641
838.819	22596
838.956	22428
839.094	22249
839.231	22489
839.369	22447
839.506	22618
839.643	22622
839.781	22421
839.918	22318
840.055	22329
840.193	22185
840.33	22303
840.467	22310
840.604	22299
840.742	22611
840.879	22154
841.016	22257
841.153	22253
841.29	22398
841.427	22257
841.564	22409
841.701	22280
841.838	22291
841.975	22166
842.112	22230
842.249	22105
842.385	22032
842.522	22234
842.659	22040
842.796	21983
842.933	22070
843.069	22101
843.206	22017
843.343	22143
843.479	21956
843.616	22097
843.752	21888
843.889	21835
844.025	22097
844.162	21846
844.298	21865
844.435	21812
844.571	21899
844.708	21876
844.844	21827
844.98	21994
845.117	21915
845.253	21770
845.389	21675
845.525	21800
845.661	21663
845.798	21583
845.934	21675
846.07	21561
846.206	21564
846.342	21679
846.478	21519
846.614	21405
846.75	21382
846.886	21294
847.022	21367
847.158	21287
847.294	21241
847.429	21260
847.565	21294
847.701	21534
847.837	21024
847.972	21009
848.108	21058
848.244	20994
848.379	21032
848.515	20883
848.65	21001
848.786	20845
848.921	20800
849.057	21058
849.192	21036
849.328	20986
849.463	20864
849.598	20906
849.734	20815
849.869	20807
850.004	20625
850.14	20609
850.275	20697
850.41	20655
850.545	20663
850.68	20712
850.815	20800
850.95	20575
851.085	20895
851.22	20735
851.355	20640
851.49	20667
851.625	20655
851.76	20686
851.895	20712
852.03	20598
852.165	20602
852.299	20651
852.434	20788
852.569	20708
852.703	20579
852.838	20769
852.973	20754
853.107	20804
853.242	20625
853.376	20541
853.511	20358
853.645	20400
853.78	20594
853.914	20530
854.048	20434
854.183	20374
854.317	20552
854.451	20830
854.585	20549
854.72	20575
854.854	20556
854.988	20355
855.122	20431
855.256	20324
855.39	20598
855.524	20667
855.658	20556
855.792	20454
855.926	20526
856.06	20522
856.194	20568
856.327	20438
856.461	20442
856.595	20530
856.729	20473
856.862	20583
856.996	20511
857.13	20564
857.263	20686
857.397	20621
857.53	20389
857.664	20598
857.797	20667
857.931	20518
858.064	20484
858.197	20640
858.331	20488
858.464	20530
858.597	20431
858.731	20450
858.864	20549
858.997	20415
859.13	20408
859.263	20511
859.396	20575
859.529	20522
859.662	20495
859.795	20396
859.928	20423
860.061	20629
860.194	20727
860.327	20545
860.46	20511
860.592	20644
860.725	20598
860.858	20682
860.99	20571
861.123	20480
861.256	20465
861.388	20613
861.521	21074
861.653	20461
861.786	20339
861.918	20434
862.05	20377
862.183	20507
862.315	20495
862.447	20503
862.58	20385
862.712	20324
862.844	20278
862.976	20259
863.108	20202
863.24	20727
863.372	20107
863.504	20229
863.636	20237
863.768	20248
863.9	20138
864.032	20103
864.164	20206
864.296	20267
864.428	20366
864.559	20324
864.691	20290
864.823	20244
864.954	20210
865.086	20153
865.217	20126
865.349	20126
865.48	20142
865.612	20050
865.743	20301
865.875	20103
866.006	20008
866.137	20221
866.269	20115
866.4	20084
866.531	20100
866.662	19982
866.793	20153
866.924	19989
867.055	20031
867.186	20084
867.317	20039
867.448	19944
867.579	19928
867.71	19978
867.841	20001
867.972	20130
868.103	20058
868.233	20096
868.364	20073
868.495	20218
868.625	20271
868.756	20305
868.886	20343
869.017	20309
869.147	20465
869.278	20423
869.408	20415
869.539	20214
869.669	20237
869.799	20286
869.929	20442
870.06	20408
870.19	20617
870.32	20533
870.45	20648
870.58	20606
870.71	20777
870.84	20872
870.97	20735
871.1	20678
871.23	20891
871.36	20921
871.489	20853
871.619	20845
871.749	20906
871.879	20883
872.008	21047
872.138	20845
872.267	20830
872.397	20906
872.526	20735
872.656	20720
872.785	20659
872.915	20971
873.044	20948
873.173	20944
873.303	21032
873.432	20895
873.561	21036
873.69	20925
873.819	20887
873.948	20967
874.077	20921
874.206	20895
874.335	20956
874.464	20998
874.593	21233
874.722	21081
874.851	21233
874.979	21218
875.108	21169
875.237	21161
875.365	21036
875.494	21203
875.623	21256
875.751	21222
875.88	21237
876.008	21279
876.136	21321
876.265	21564
876.393	21701
876.521	21553
876.65	21629
876.778	21614
876.906	21572
877.034	21591
877.162	21363
877.29	21408
877.418	21488
877.546	21633
877.674	21393
877.802	21523
877.93	21663
878.058	21428
878.185	21488
878.313	21530
878.441	21504
878.568	21260
878.696	21473
878.824	21485
878.951	21629
879.079	21682
879.206	21755
879.333	21778
879.461	21587
879.588	21561
879.715	21660
879.842	21694
879.97	21591
880.097	21367
880.224	21401
880.351	21397
880.478	21302
880.605	21420
880.732	21424
880.859	21568
880.986	21268
881.112	21272
881.239	21218
881.366	21150
881.493	20918
881.619	20948
881.746	21020
881.872	20872
881.999	20929
882.125	20910
882.252	21017
882.378	20948
882.505	21074
882.631	20670
882.757	20545
882.883	20746
883.01	20644
883.136	20560
883.262	20446
883.388	20454
883.514	20678
883.64	20708
883.766	20514
883.892	20404
884.018	20507
884.143	20507
884.269	20758
884.395	20286
884.52	20256
884.646	20282
884.772	20240
884.897	20214
885.023	20298
885.148	20301
885.274	20438
885.399	20434
885.524	20309
885.65	20271
885.775	20358
885.9	20282
886.025	20412
886.15	20408
886.275	20161
886.4	20195
886.525	20389
886.65	20206
886.775	20081
886.9	20301
887.025	20503
887.149	20301
887.274	20164
887.399	20054
887.523	19974
887.648	20100
887.773	19963
887.897	20252
888.021	20096
888.146	20039
888.27	20103
888.395	20199
888.519	20164
888.643	20054
888.767	20119
888.891	19978
889.015	19856
889.139	20012
889.263	19852
889.387	19982
889.511	20077
889.635	20016
889.759	19811
889.883	19772
890.006	19917
890.13	19864
890.254	19887
890.377	19807
890.501	19696
890.624	19681
890.748	19803
890.871	19563
890.995	19480
891.118	19480
891.241	19460
891.364	19438
891.488	19571
891.611	19529
891.734	19472
891.857	19552
891.98	19468
892.103	19449
892.226	19445
892.349	19499
892.471	19331
892.594	19464
892.717	19426
892.839	19346
892.962	19396
893.085	19457
893.207	19411
893.33	19202
893.452	19346
893.575	19365
893.697	19327
893.819	19582
893.941	19635
894.064	19521
894.186	19301
894.308	19350
894.43	19434
894.552	19525
894.674	19483
894.796	19301
894.918	19384
895.04	19236
895.161	19400
895.283	19483
895.405	19312
895.526	19343
895.648	19422
895.769	19476
895.891	19521
896.012	19487
896.134	19384
896.255	19289
896.376	19263
896.498	19377
896.619	19544
896.74	19373
896.861	19445
896.982	19704
897.103	19849
897.224	19681
897.345	19594
897.466	19586
897.587	19658
897.708	19791
897.828	19594
897.949	19525
898.07	19556
898.19	19597
898.311	19689
898.431	19647
898.552	19586
898.672	19510
898.792	19715
898.913	19681
899.033	19502
899.153	19293
899.273	19213
899.393	19358
899.513	19400
899.633	19430
899.753	19358
899.873	19240
899.993	19392
900.113	19244
900.232	19403
900.352	19236
900.472	19209
900.591	19168
900.711	19236
900.83	19152
900.95	19171
901.069	19285
901.189	19042
901.308	18776
901.427	18798
901.546	18707
901.665	18764
901.784	18700
901.904	18715
902.023	18547
902.141	18308
902.26	18327
902.379	18429
902.498	18220
902.617	18251
902.735	18289
902.854	18167
902.973	18163
903.091	17908
903.21	18007
903.328	17920
903.446	17824
903.565	17775
903.683	17809
903.801	17608
903.919	17756
904.038	17592
904.156	17467
904.274	17638
904.392	17486
904.51	17501
904.627	17543
904.745	17547
904.863	17657
904.981	17391
905.098	17235
905.216	17227
905.334	17303
905.451	17216
905.569	17277
905.686	17326
905.803	17200
905.921	17025
906.038	17098
906.155	17086
906.272	16942
906.389	16999
906.506	16850
906.623	16896
906.74	16767
906.857	16664
906.974	16592
907.091	16835
907.208	16801
907.324	16862
907.441	16748
907.557	16523
907.674	16523
907.79	16447
907.907	16455
908.023	16504
908.139	16535
908.256	16516
908.372	16489
908.488	16261
908.604	16325
908.72	16219
908.836	16246
908.952	16223
909.068	16306
909.184	16322
909.3	16272
909.415	16238
909.531	16181
909.647	16048
909.762	15991
909.878	15854
909.993	16021
910.108	15899
910.224	15915
910.339	15934
910.454	15816
910.57	15751
910.685	15751
910.8	15937
910.915	15888
911.03	15709
911.145	15637
911.259	15549
911.374	15595
911.489	15481
911.604	15416
911.718	15355
911.833	15382
911.947	15226
912.062	15176
912.176	15226
912.291	15230
912.405	15268
912.519	15538
912.633	15397
912.748	15344
912.862	15268
912.976	15249
913.09	15062
913.204	15058
913.318	15176
913.431	15279
913.545	15226
913.659	15321
913.772	15169
913.886	14990
914	14925
914.113	14960
914.226	15009
914.34	14929
914.453	14899
914.566	14944
914.68	14902
914.793	14861
914.906	14746
915.019	14621
915.132	14579
915.245	14575
915.358	14636
915.47	14537
915.583	14575
915.696	14606
915.809	14667
915.921	14674
916.034	14480
916.146	14564
916.259	14480
916.371	14503
916.483	14495
916.595	14396
916.708	14431
916.82	14419
916.932	14332
917.044	14423
917.156	14313
917.268	14313
917.38	14290
917.491	14210
917.603	14218
917.715	14309
917.826	14351
917.938	14229
918.049	14145
918.161	14195
918.272	14351
918.384	14305
918.495	14244
918.606	14065
918.717	14016
918.828	14008
918.939	14058
919.05	13947
919.161	13997
919.272	13807
919.383	13940
919.494	14050
919.604	14168
919.715	14096
919.826	13936
919.936	13818
920.047	14111
920.157	14077
920.267	14069
920.378	14100
920.488	13986
920.598	14130
920.708	14256
920.818	14081
920.928	14172
921.038	14267
921.148	14206
921.258	14020
921.368	13750
921.477	13811
921.587	13746
921.697	13620
921.806	13845
921.916	13613
922.025	13362
922.134	13441
922.244	13324
922.353	13388
922.462	13308
922.571	13198
922.68	13027
922.789	13019
922.898	13000
923.007	12962
923.116	13118
923.224	12966
923.333	12981
923.442	12920
923.55	12913
923.659	12901
923.767	12897
923.876	12802
923.984	12951
924.092	12814
924.201	12783
924.309	12829
924.417	12840
924.525	12703
924.633	12646
924.741	13521
924.849	12574
924.956	12532
925.064	12578
925.172	12445
925.279	12544
925.387	12441
925.494	12483
925.602	12551
925.709	12559
925.816	12414
925.924	12464
926.031	12521
926.138	12509
926.245	12486
926.352	12350
926.459	12502
926.566	12566
926.673	12471
926.779	12186
926.886	12224
926.993	12064
927.099	12083
927.206	12041
927.312	11961
927.419	12053
927.525	12034
927.631	12072
927.737	12045
927.843	11961
927.95	11779
928.056	11855
928.162	11901
928.267	11973
928.373	12525
928.479	11961
928.585	11767
928.69	11939
928.796	11859
928.901	11901
929.007	11646
929.112	11779
929.218	11745
929.323	11748
929.428	11680
929.533	11665
929.638	11577
929.743	11699
929.848	11592
929.953	11573
930.058	11509
930.163	11322
930.267	11341
930.372	11524
930.477	11315
930.581	11562
930.685	11402
930.79	11231
930.894	11326
930.998	11269
931.103	11436
931.207	10984
931.311	10968
931.415	10824
931.519	10656
931.623	10592
