Data from test_V78500241_2189.txt Node
Date: Fri Mar 25 15:25:06 CST 2022
User: usil
Spectrometer: V785-0024
Trigger mode: 0
Integration Time (sec): 4.000000E-1
Scans to average: 1
Nonlinearity correction enabled: false
Boxcar width: 0
Storing dark spectrum: false
XAxis mode: Wavelengths
Number of Pixels in Spectrum: 1024
>>>>>Begin Spectral Data<<<<<
801.071	27713
801.214	27747
801.356	27473
801.499	27397
801.641	27466
801.783	27313
801.926	27340
802.068	27401
802.211	27310
802.353	27142
802.496	27032
802.638	27070
802.78	27001
802.923	27005
803.065	26823
803.208	26956
803.35	27013
803.492	27096
803.635	27233
803.777	27020
803.919	27161
804.061	27534
804.204	27302
804.346	27077
804.488	27036
804.63	27131
804.773	26853
804.915	27325
805.057	27211
805.199	27108
805.341	27351
805.483	27325
805.626	27241
805.768	27116
805.91	27310
806.052	27226
806.194	27321
806.336	27435
806.478	27256
806.62	27176
806.762	27412
806.904	27660
807.046	27937
807.188	27819
807.33	27690
807.472	27759
807.614	27682
807.756	27564
807.898	27603
808.04	27549
808.182	27447
808.324	27648
808.465	27694
808.607	27808
808.749	27994
808.891	27949
809.033	28093
809.174	27861
809.316	27884
809.458	27941
809.6	27850
809.741	28067
809.883	28135
810.025	28150
810.166	28150
810.308	28253
810.45	28101
810.591	28059
810.733	27816
810.875	27903
811.016	27850
811.158	27797
811.299	28109
811.441	28017
811.582	28021
811.724	27770
811.865	27903
812.007	27899
812.148	27793
812.29	27937
812.431	27972
812.573	28211
812.714	28413
812.855	28546
812.997	28470
813.138	28611
813.279	28485
813.421	28481
813.562	28371
813.703	28379
813.845	28162
813.986	27865
814.127	27648
814.268	27583
814.41	27686
814.551	27397
814.692	27797
814.833	27603
814.974	27587
815.115	27701
815.256	27450
815.397	27572
815.539	27549
815.68	27405
815.821	27348
815.962	27412
816.103	27336
816.244	27116
816.385	27252
816.526	27127
816.666	27047
816.807	26883
816.948	26998
817.089	27074
817.23	26982
817.371	26834
817.512	26864
817.653	26891
817.793	26853
817.934	26788
818.075	26876
818.216	26952
818.356	26838
818.497	26815
818.638	26511
818.778	26602
818.919	26488
819.06	26598
819.2	26781
819.341	27009
819.481	26796
819.622	27036
819.762	27195
819.903	27169
820.043	27104
820.184	26963
820.324	26929
820.465	27047
820.605	27017
820.746	26937
820.886	26826
821.026	27058
821.167	26960
821.307	27009
821.447	26902
821.588	26792
821.728	26594
821.868	26442
822.008	26339
822.149	26328
822.289	26389
822.429	26092
822.569	26058
822.709	26031
822.849	25757
822.99	25849
823.13	25799
823.27	25925
823.41	25624
823.55	25594
823.69	25734
823.83	25651
823.97	25639
824.11	25491
824.25	25324
824.389	25479
824.529	25552
824.669	25487
824.809	25674
824.949	25491
825.089	25377
825.228	25499
825.368	25263
825.508	25263
825.648	25346
825.787	25381
825.927	25388
826.067	25396
826.206	25350
826.346	25483
826.485	25396
826.625	25426
826.765	25381
826.904	25354
827.044	25038
827.183	25088
827.323	25042
827.462	25107
827.601	25152
827.741	25042
827.88	25095
828.02	24897
828.159	25152
828.298	25004
828.437	25080
828.577	25027
828.716	25057
828.855	24943
828.994	24661
829.134	24703
829.273	24745
829.412	24840
829.551	24814
829.69	24730
829.829	24795
829.968	24901
830.107	24814
830.246	24639
830.385	24715
830.524	24555
830.663	24467
830.802	24604
830.941	24296
831.08	24273
831.219	24429
831.357	24452
831.496	24578
831.635	24464
831.774	24232
831.913	24296
832.051	24140
832.19	24205
832.329	24079
832.467	24049
832.606	24041
832.744	24026
832.883	24057
833.022	23977
833.16	24072
833.299	24106
833.437	23954
833.576	24068
833.714	24072
833.852	24133
833.991	24049
834.129	24136
834.267	24102
834.406	24064
834.544	23992
834.682	23973
834.821	23980
834.959	24144
835.097	24007
835.235	24125
835.373	24041
835.511	24049
835.65	23847
835.788	24015
835.926	23760
836.064	23676
836.202	23779
836.34	23752
836.478	23988
836.615	23908
836.753	23969
836.891	23870
837.029	23847
837.167	23779
837.305	23726
837.443	23729
837.58	23608
837.718	23718
837.856	23703
837.993	23608
838.131	23653
838.269	23638
838.406	23619
838.544	23623
838.681	23368
838.819	23326
838.956	23288
839.094	23147
839.231	23258
839.369	23322
839.506	23535
839.643	23326
839.781	23242
839.918	23086
840.055	23261
840.193	23033
840.33	23098
840.467	23018
840.604	23105
840.742	23284
840.879	22923
841.016	23083
841.153	22976
841.29	23102
841.427	23121
841.564	23147
841.701	23037
841.838	23029
841.975	22984
842.112	22999
842.249	22858
842.385	22824
842.522	22984
842.659	22793
842.796	22839
842.933	22820
843.069	22869
843.206	22911
843.343	22930
843.479	22835
843.616	22850
843.752	22618
843.889	22622
844.025	22786
844.162	22596
844.298	22710
844.435	22660
844.571	22557
844.708	22706
844.844	22748
844.98	22786
845.117	22668
845.253	22618
845.389	22462
845.525	22554
845.661	22493
845.798	22371
845.934	22390
846.07	22348
846.206	22318
846.342	22371
846.478	22352
846.614	22249
846.75	22105
846.886	22109
847.022	22181
847.158	22230
847.294	22021
847.429	22135
847.565	22116
847.701	22253
847.837	21808
847.972	21720
848.108	21899
848.244	21869
848.379	21660
848.515	21736
848.65	21637
848.786	21656
848.921	21720
849.057	21751
849.192	21800
849.328	21717
849.463	21876
849.598	21572
849.734	21572
849.869	21580
850.004	21439
850.14	21477
850.275	21671
850.41	21329
850.545	21378
850.68	21443
850.815	21492
850.95	21481
851.085	21682
851.22	21542
851.355	21469
851.49	21431
851.625	21389
851.76	21458
851.895	21317
852.03	21389
852.165	21344
852.299	21481
852.434	21519
852.569	21454
852.703	21477
852.838	21500
852.973	21599
853.107	21610
853.242	21401
853.376	21302
853.511	21195
853.645	21249
853.78	21401
853.914	21408
854.048	21192
854.183	21260
854.317	21279
854.451	21431
854.585	21355
854.72	21317
854.854	21310
854.988	21313
855.122	21367
855.256	21104
855.39	21241
855.524	21340
855.658	21344
855.792	21222
855.926	21256
856.06	21325
856.194	21370
856.327	21268
856.461	21279
856.595	21241
856.729	21306
856.862	21367
856.996	21275
857.13	21336
857.263	21268
857.397	21336
857.53	21195
857.664	21241
857.797	21306
857.931	21340
858.064	21298
858.197	21412
858.331	21275
858.464	21199
858.597	21176
858.731	21260
858.864	21329
858.997	21184
859.13	21275
859.263	21245
859.396	21336
859.529	21241
859.662	21272
859.795	21214
859.928	21317
860.061	21382
860.194	21405
860.327	21344
860.46	21192
860.592	21329
860.725	21439
860.858	21424
860.99	21214
861.123	21157
861.256	21157
861.388	21313
861.521	21831
861.653	21119
861.786	21013
861.918	20918
862.05	21085
862.183	21150
862.315	21199
862.447	21275
862.58	21127
862.712	21108
862.844	20876
862.976	21085
863.108	21013
863.24	21351
863.372	20963
863.504	20948
863.636	21058
863.768	20971
863.9	20994
864.032	20861
864.164	21062
864.296	20929
864.428	21058
864.559	20990
864.691	21070
864.823	21028
864.954	20948
865.086	20906
865.217	20849
865.349	20754
865.48	20815
865.612	20773
865.743	21104
865.875	20773
866.006	20811
866.137	20857
866.269	20906
866.4	20971
866.531	20899
866.662	20746
866.793	20758
866.924	20902
867.055	20765
867.186	20876
867.317	20754
867.448	20621
867.579	20800
867.71	20796
867.841	20682
867.972	20845
868.103	20773
868.233	20674
868.364	20746
868.495	20830
868.625	20948
868.756	21150
868.886	21093
869.017	21089
869.147	21146
869.278	21116
869.408	21077
869.539	21127
869.669	21085
869.799	21135
869.929	21116
870.06	21154
870.19	21317
870.32	21389
870.45	21355
870.58	21481
870.71	21606
870.84	21454
870.97	21485
871.1	21557
871.23	21614
871.36	21564
871.489	21606
871.619	21679
871.749	21587
871.879	21686
872.008	21690
872.138	21576
872.267	21682
872.397	21416
872.526	21450
872.656	21435
872.785	21564
872.915	21732
873.044	21751
873.173	21698
873.303	21728
873.432	21747
873.561	21911
873.69	21622
873.819	21450
873.948	21641
874.077	21743
874.206	21526
874.335	21785
874.464	21804
874.593	21964
874.722	21911
874.851	21934
874.979	21918
875.108	22044
875.237	21785
875.365	21739
875.494	21884
875.623	21835
875.751	21808
875.88	21861
876.008	22010
876.136	22112
876.265	22287
876.393	22329
876.521	22337
876.65	22341
876.778	22207
876.906	22257
877.034	22116
877.162	22223
877.29	22143
877.418	22196
877.546	22162
877.674	22143
877.802	22341
877.93	22147
878.058	22169
878.185	22063
878.313	22200
878.441	22166
878.568	22048
878.696	22147
878.824	22226
878.951	22219
879.079	22337
879.206	22550
879.333	22557
879.461	22249
879.588	22333
879.715	22333
879.842	22421
879.97	22223
880.097	22124
880.224	22002
880.351	22116
880.478	22158
880.605	21915
880.732	21953
880.859	22204
880.986	21922
881.112	22067
881.239	21895
881.366	21865
881.493	21751
881.619	21523
881.746	21641
881.872	21580
881.999	21526
882.125	21542
882.252	21682
882.378	21644
882.505	21800
882.631	21492
882.757	21294
882.883	21336
883.01	21367
883.136	21268
883.262	21146
883.388	21135
883.514	21287
883.64	21313
883.766	21226
883.892	21214
884.018	21123
884.143	21287
884.269	21401
884.395	21055
884.52	20979
884.646	20975
884.772	20944
884.897	20815
885.023	20918
885.148	20914
885.274	21058
885.399	21108
885.524	20921
885.65	21020
885.775	20921
885.9	20861
886.025	21093
886.15	21070
886.275	20990
886.4	20864
886.525	20895
886.65	20853
886.775	20887
886.9	21112
887.025	21169
887.149	20872
887.274	20830
887.399	20739
887.523	20743
887.648	20705
887.773	20720
887.897	20849
888.021	20781
888.146	20750
888.27	20701
888.395	20853
888.519	20800
888.643	20708
888.767	20792
888.891	20617
889.015	20564
889.139	20549
889.263	20461
889.387	20606
889.511	20651
889.635	20697
889.759	20377
889.883	20545
890.006	20549
890.13	20663
890.254	20446
890.377	20450
890.501	20180
890.624	20206
890.748	20389
890.871	20145
890.995	20164
891.118	20195
891.241	20168
891.364	20100
891.488	20195
891.611	20145
891.734	20191
891.857	20176
891.98	20081
892.103	20073
892.226	20050
892.349	20054
892.471	19940
892.594	20111
892.717	20077
892.839	19898
892.962	20054
893.085	20069
893.207	19917
893.33	19833
893.452	19818
893.575	20005
893.697	20031
893.819	20244
893.941	20218
894.064	20157
894.186	19932
894.308	19986
894.43	20069
894.552	20126
894.674	20126
894.796	19826
894.918	20005
895.04	19951
895.161	19974
895.283	20100
895.405	19860
895.526	19974
895.648	19860
895.769	19906
895.891	19925
896.012	20161
896.134	19951
896.255	20065
896.376	20005
896.498	19928
896.619	20035
896.74	20092
896.861	20001
896.982	20381
897.103	20495
897.224	20317
897.345	20286
897.466	20145
897.587	20153
897.708	20362
897.828	20298
897.949	20149
898.07	20058
898.19	20229
898.311	20248
898.431	20214
898.552	20138
898.672	20317
898.792	20362
898.913	20317
899.033	20183
899.153	20252
899.273	19883
899.393	20096
899.513	20039
899.633	20020
899.753	19932
899.873	19959
899.993	19970
900.113	20020
900.232	20001
900.352	19959
900.472	19742
900.591	19635
900.711	19845
900.83	19655
900.95	19742
901.069	19898
901.189	19693
901.308	19430
901.427	19392
901.546	19369
901.665	19441
901.784	19396
901.904	19278
902.023	19221
902.141	18840
902.26	18996
902.379	18894
902.498	18920
902.617	18890
902.735	18901
902.854	18837
902.973	18745
903.091	18635
903.21	18513
903.328	18604
903.446	18353
903.565	18410
903.683	18471
903.801	18262
903.919	18319
904.038	18292
904.156	18205
904.274	18190
904.392	18095
904.51	18102
904.627	18136
904.745	18178
904.863	18167
904.981	17897
905.098	17843
905.216	17775
905.334	17824
905.451	17851
905.569	17764
905.686	17794
905.803	17718
905.921	17558
906.038	17714
906.155	17577
906.272	17372
906.389	17638
906.506	17326
906.623	17326
906.74	17337
906.857	17239
906.974	17197
907.091	17372
907.208	17474
907.324	17307
907.441	17185
907.557	16987
907.674	17037
907.79	16828
907.907	16930
908.023	17128
908.139	17033
908.256	17060
908.372	16972
908.488	16843
908.604	16862
908.72	16850
908.836	16816
908.952	16729
909.068	16782
909.184	16911
909.3	16767
909.415	16824
909.531	16763
909.647	16451
909.762	16360
909.878	16519
909.993	16466
910.108	16417
910.224	16367
910.339	16512
910.454	16337
910.57	16265
910.685	16268
910.8	16440
910.915	16447
911.03	16261
911.145	16090
911.259	15960
911.374	15991
911.489	16051
911.604	15975
911.718	15827
911.833	15797
911.947	15808
912.062	15614
912.176	15690
912.291	15804
912.405	15816
912.519	15934
912.633	15956
912.748	15831
912.862	15827
912.976	15576
913.09	15622
913.204	15610
913.318	15641
913.431	15644
913.545	15736
913.659	15755
913.772	15496
913.886	15523
914	15435
914.113	15450
914.226	15576
914.34	15431
914.453	15260
914.566	15424
914.68	15252
914.793	15272
914.906	15157
915.019	15013
915.132	14941
915.245	14982
915.358	14982
915.47	15070
915.583	15047
915.696	15100
915.809	15085
915.921	15199
916.034	14956
916.146	14842
916.259	14887
916.371	15001
916.483	14914
916.595	14933
916.708	14838
916.82	14906
916.932	14754
917.044	14826
917.156	14712
917.268	14629
917.38	14712
917.491	14632
917.603	14625
917.715	14796
917.826	14735
917.938	14571
918.049	14583
918.161	14667
918.272	14842
918.384	14781
918.495	14667
918.606	14568
918.717	14393
918.828	14469
918.939	14469
919.05	14385
919.161	14320
919.272	14229
919.383	14168
919.494	14431
919.604	14674
919.715	14431
919.826	14290
919.936	14347
920.047	14431
920.157	14457
920.267	14625
920.378	14442
920.488	14294
920.598	14431
920.708	14693
920.818	14488
920.928	14514
921.038	14716
921.148	14594
921.258	14328
921.368	14259
921.477	14176
921.587	14145
921.697	13944
921.806	14126
921.916	14073
922.025	13879
922.134	13788
922.244	13696
922.353	13837
922.462	13643
922.571	13666
922.68	13373
922.789	13419
922.898	13381
923.007	13400
923.116	13411
923.224	13502
923.333	13400
923.442	13324
923.55	13289
923.659	13304
923.767	13388
923.876	13232
923.984	13362
924.092	13213
924.201	13183
924.309	13171
924.417	13225
924.525	13133
924.633	13080
924.741	13902
924.849	13008
924.956	13019
925.064	12928
925.172	12859
925.279	12848
925.387	12859
925.494	12719
925.602	12951
925.709	12821
925.816	12833
925.924	12734
926.031	12932
926.138	12947
926.245	12802
926.352	12768
926.459	12776
926.566	12920
926.673	12787
926.779	12604
926.886	12654
926.993	12410
927.099	12589
927.206	12361
927.312	12384
927.419	12456
927.525	12369
927.631	12464
927.737	12304
927.843	12266
927.95	12175
928.056	12194
928.162	12277
928.267	12319
928.373	12920
928.479	12353
928.585	12034
928.69	12262
928.796	12243
928.901	12167
929.007	11965
929.112	12106
929.218	12072
929.323	12030
929.428	11878
929.533	12034
929.638	11863
929.743	11855
929.848	11988
929.953	11893
930.058	11824
930.163	11714
930.267	11653
930.372	11832
930.477	11672
930.581	11920
930.685	11710
930.79	11638
930.894	11604
930.998	11554
931.103	11646
931.207	11231
931.311	11181
931.415	11136
931.519	11003
931.623	10919
