Data from test_V78500241_735.txt Node
Date: Fri Mar 25 15:14:58 CST 2022
User: usil
Spectrometer: V785-0024
Trigger mode: 0
Integration Time (sec): 4.000000E-1
Scans to average: 1
Nonlinearity correction enabled: false
Boxcar width: 0
Storing dark spectrum: false
XAxis mode: Wavelengths
Number of Pixels in Spectrum: 1024
>>>>>Begin Spectral Data<<<<<
801.071	27701
801.214	27842
801.356	27481
801.499	27458
801.641	27378
801.783	27393
801.926	27359
802.068	27298
802.211	27211
802.353	27001
802.496	27043
802.638	27104
802.78	26967
802.923	26876
803.065	26963
803.208	26868
803.35	27020
803.492	27119
803.635	27169
803.777	26940
803.919	27230
804.061	27420
804.204	27127
804.346	27077
804.488	27089
804.63	27169
804.773	26971
804.915	27283
805.057	27203
805.199	27173
805.341	27157
805.483	27298
805.626	27249
805.768	27055
805.91	27165
806.052	27306
806.194	27275
806.336	27496
806.478	27287
806.62	27180
806.762	27378
806.904	27526
807.046	27789
807.188	27713
807.33	27778
807.472	27854
807.614	27709
807.756	27705
807.898	27576
808.04	27473
808.182	27374
808.324	27606
808.465	27652
808.607	27838
808.749	27918
808.891	28124
809.033	28082
809.174	27941
809.316	27914
809.458	27884
809.6	27998
809.741	28070
809.883	27960
810.025	28090
810.166	28310
810.308	28200
810.45	28147
810.591	28181
810.733	27983
810.875	27922
811.016	27816
811.158	27770
811.299	28086
811.441	27956
811.582	27998
811.724	27854
811.865	27903
812.007	27998
812.148	27850
812.29	27869
812.431	28173
812.573	28200
812.714	28329
812.855	28268
812.997	28618
813.138	28599
813.279	28653
813.421	28421
813.562	28462
813.703	28295
813.845	28093
813.986	28032
814.127	27793
814.268	27564
814.41	27690
814.551	27557
814.692	27686
814.833	27587
814.974	27644
815.115	27599
815.256	27576
815.397	27591
815.539	27564
815.68	27515
815.821	27367
815.962	27389
816.103	27325
816.244	27374
816.385	27214
816.526	27199
816.666	26960
816.807	26777
816.948	26967
817.089	27051
817.23	26963
817.371	26910
817.512	26982
817.653	27013
817.793	26830
817.934	26956
818.075	26868
818.216	26880
818.356	26705
818.497	26777
818.638	26636
818.778	26693
818.919	26648
819.06	26891
819.2	26823
819.341	26910
819.481	27020
819.622	27051
819.762	27279
819.903	27100
820.043	27070
820.184	27009
820.324	26956
820.465	27116
820.605	26906
820.746	27066
820.886	26929
821.026	26982
821.167	27017
821.307	27062
821.447	26933
821.588	26705
821.728	26701
821.868	26571
822.008	26415
822.149	26484
822.289	26320
822.429	26237
822.569	26111
822.709	26027
822.849	25887
822.99	25799
823.13	25833
823.27	25944
823.41	25639
823.55	25666
823.69	25723
823.83	25677
823.97	25704
824.11	25586
824.25	25396
824.389	25529
824.529	25643
824.669	25563
824.809	25753
824.949	25700
825.089	25605
825.228	25582
825.368	25400
825.508	25476
825.648	25354
825.787	25434
825.927	25434
826.067	25388
826.206	25422
826.346	25533
826.485	25472
826.625	25415
826.765	25483
826.904	25373
827.044	25198
827.183	25168
827.323	25129
827.462	25152
827.601	25190
827.741	25179
827.88	25099
828.02	25088
828.159	25152
828.298	25122
828.437	25312
828.577	25137
828.716	25190
828.855	25008
828.994	24810
829.134	24894
829.273	24875
829.412	24810
829.551	24802
829.69	24833
829.829	24878
829.968	24886
830.107	24882
830.246	24856
830.385	24692
830.524	24646
830.663	24642
830.802	24471
830.941	24323
831.08	24399
831.219	24448
831.357	24490
831.496	24650
831.635	24498
831.774	24353
831.913	24281
832.051	24110
832.19	24174
832.329	24292
832.467	24110
832.606	24087
832.744	24194
832.883	24114
833.022	23992
833.16	24076
833.299	24251
833.437	24270
833.576	24114
833.714	24022
833.852	24163
833.991	24232
834.129	24216
834.267	24228
834.406	24216
834.544	24228
834.682	24205
834.821	24110
834.959	24323
835.097	24125
835.235	24407
835.373	24133
835.511	24026
835.65	24015
835.788	23923
835.926	23878
836.064	23802
836.202	23855
836.34	23980
836.478	24045
836.615	23904
836.753	23988
836.891	24003
837.029	24178
837.167	23996
837.305	23901
837.443	23847
837.58	23726
837.718	23950
837.856	23798
837.993	23764
838.131	23923
838.269	23707
838.406	23771
838.544	23634
838.681	23444
838.819	23433
838.956	23273
839.094	23269
839.231	23528
839.369	23436
839.506	23718
839.643	23490
839.781	23353
839.918	23166
840.055	23387
840.193	23204
840.33	23193
840.467	23159
840.604	23204
840.742	23528
840.879	23178
841.016	23037
841.153	23071
841.29	23364
841.427	23315
841.564	23170
841.701	23246
841.838	23189
841.975	23044
842.112	23109
842.249	22953
842.385	22889
842.522	23280
842.659	23079
842.796	22885
842.933	22987
843.069	22900
843.206	22953
843.343	22980
843.479	22919
843.616	22953
843.752	22710
843.889	22816
844.025	22915
844.162	22683
844.298	22790
844.435	22698
844.571	22793
844.708	22744
844.844	22915
844.98	22763
845.117	22828
845.253	22596
845.389	22580
845.525	22637
845.661	22634
845.798	22508
845.934	22592
846.07	22341
846.206	22675
846.342	22607
846.478	22413
846.614	22261
846.75	22265
846.886	22158
847.022	22287
847.158	22287
847.294	22200
847.429	22276
847.565	22185
847.701	22303
847.837	21873
847.972	22040
848.108	22063
848.244	21968
848.379	21816
848.515	21774
848.65	21728
848.786	21816
848.921	21838
849.057	21968
849.192	21800
849.328	21686
849.463	21698
849.598	21622
849.734	21656
849.869	21564
850.004	21618
850.14	21568
850.275	21500
850.41	21603
850.545	21553
850.68	21462
850.815	21625
850.95	21591
851.085	21675
851.22	21652
851.355	21557
851.49	21515
851.625	21458
851.76	21538
851.895	21447
852.03	21416
852.165	21530
852.299	21526
852.434	21652
852.569	21439
852.703	21580
852.838	21488
852.973	21648
853.107	21751
853.242	21553
853.376	21412
853.511	21233
853.645	21310
853.78	21477
853.914	21351
854.048	21355
854.183	21363
854.317	21424
854.451	21553
854.585	21363
854.72	21294
854.854	21447
854.988	21283
855.122	21378
855.256	21230
855.39	21310
855.524	21340
855.658	21431
855.792	21321
855.926	21370
856.06	21431
856.194	21568
856.327	21355
856.461	21317
856.595	21416
856.729	21367
856.862	21447
856.996	21351
857.13	21500
857.263	21572
857.397	21447
857.53	21317
857.664	21500
857.797	21466
857.931	21454
858.064	21363
858.197	21496
858.331	21351
858.464	21329
858.597	21192
858.731	21287
858.864	21351
858.997	21313
859.13	21359
859.263	21348
859.396	21553
859.529	21348
859.662	21317
859.795	21393
859.928	21378
860.061	21412
860.194	21656
860.327	21355
860.46	21450
860.592	21488
860.725	21515
860.858	21507
860.99	21313
861.123	21256
861.256	21447
861.388	21443
861.521	22090
861.653	21325
861.786	21119
861.918	21154
862.05	21252
862.183	21291
862.315	21275
862.447	21340
862.58	21435
862.712	21165
862.844	21093
862.976	21184
863.108	21157
863.24	21450
863.372	20883
863.504	21062
863.636	21066
863.768	21020
863.9	21119
864.032	21005
864.164	21013
864.296	21180
864.428	21157
864.559	21138
864.691	21089
864.823	21211
864.954	21116
865.086	21047
865.217	21123
865.349	20887
865.48	20929
865.612	20899
865.743	21081
865.875	20925
866.006	20967
866.137	20960
866.269	20899
866.4	20990
866.531	20948
866.662	20895
866.793	20921
866.924	20853
867.055	20998
867.186	21017
867.317	20937
867.448	20750
867.579	20815
867.71	20861
867.841	20857
867.972	20971
868.103	20811
868.233	21104
868.364	20842
868.495	20887
868.625	21104
868.756	21245
868.886	21077
869.017	21062
869.147	21310
869.278	21245
869.408	21192
869.539	21154
869.669	21264
869.799	21192
869.929	21249
870.06	21264
870.19	21462
870.32	21454
870.45	21439
870.58	21583
870.71	21701
870.84	21553
870.97	21557
871.1	21477
871.23	21808
871.36	21736
871.489	21587
871.619	21747
871.749	21698
871.879	21755
872.008	21903
872.138	21747
872.267	21774
872.397	21652
872.526	21606
872.656	21557
872.785	21587
872.915	21751
873.044	21846
873.173	21774
873.303	21861
873.432	21770
873.561	21972
873.69	21831
873.819	21804
873.948	21793
874.077	21755
874.206	21785
874.335	21701
874.464	21987
874.593	21949
874.722	21869
874.851	22082
874.979	21972
875.108	21960
875.237	21945
875.365	21895
875.494	21975
875.623	22051
875.751	21964
875.88	21880
876.008	22093
876.136	22112
876.265	22337
876.393	22436
876.521	22474
876.65	22424
876.778	22322
876.906	22181
877.034	22268
877.162	22344
877.29	22234
877.418	22367
877.546	22246
877.674	22360
877.802	22390
877.93	22272
878.058	22124
878.185	22162
878.313	22230
878.441	22257
878.568	22200
878.696	22166
878.824	22204
878.951	22421
879.079	22485
879.206	22538
879.333	22379
879.461	22363
879.588	22348
879.715	22584
879.842	22596
879.97	22287
880.097	22128
880.224	22185
880.351	22166
880.478	22173
880.605	22021
880.732	22067
880.859	22451
880.986	22070
881.112	22032
881.239	22067
881.366	21880
881.493	21751
881.619	21751
881.746	21656
881.872	21622
881.999	21812
882.125	21667
882.252	21743
882.378	21747
882.505	21827
882.631	21519
882.757	21416
882.883	21405
883.01	21420
883.136	21329
883.262	21302
883.388	21291
883.514	21321
883.64	21431
883.766	21344
883.892	21222
884.018	21195
884.143	21359
884.269	21462
884.395	21230
884.52	21024
884.646	21009
884.772	20956
884.897	20880
885.023	21039
885.148	21222
885.274	21306
885.399	21207
885.524	21066
885.65	21062
885.775	21199
885.9	20960
886.025	21279
886.15	21089
886.275	21013
886.4	20921
886.525	21036
886.65	21062
886.775	20956
886.9	21180
887.025	21260
887.149	20944
887.274	21074
887.399	20880
887.523	20743
887.648	20823
887.773	20701
887.897	20788
888.021	20880
888.146	20629
888.27	20910
888.395	20952
888.519	20853
888.643	20788
888.767	20842
888.891	20842
889.015	20701
889.139	20716
889.263	20659
889.387	20853
889.511	20781
889.635	20716
889.759	20556
889.883	20358
890.006	20629
890.13	20811
890.254	20488
890.377	20518
890.501	20396
890.624	20355
890.748	20492
890.871	20374
890.995	20218
891.118	20005
891.241	20218
891.364	20191
891.488	20332
891.611	20164
891.734	20256
891.857	20298
891.98	20225
892.103	20271
892.226	20233
892.349	20138
892.471	20069
892.594	20073
892.717	20142
892.839	19982
892.962	20138
893.085	20107
893.207	20077
893.33	19913
893.452	20054
893.575	20142
893.697	20050
893.819	20240
893.941	20275
894.064	20305
894.186	20115
894.308	20039
894.43	20164
894.552	20244
894.674	20153
894.796	19974
894.918	20069
895.04	20092
895.161	20084
895.283	20096
895.405	19963
895.526	20119
895.648	20180
895.769	20084
895.891	20191
896.012	20111
896.134	20122
896.255	20157
896.376	20107
896.498	20050
896.619	20054
896.74	19944
896.861	20199
896.982	20549
897.103	20358
897.224	20282
897.345	20278
897.466	20142
897.587	20229
897.708	20415
897.828	20351
897.949	20225
898.07	20119
898.19	20248
898.311	20309
898.431	20202
898.552	20278
898.672	20488
898.792	20374
898.913	20225
899.033	20199
899.153	20054
899.273	19967
899.393	20065
899.513	20221
899.633	20084
899.753	20142
899.873	20062
899.993	20016
900.113	20031
900.232	20084
900.352	19989
900.472	19925
900.591	19947
900.711	19951
900.83	19772
900.95	19868
901.069	19951
901.189	19769
901.308	19472
901.427	19422
901.546	19514
901.665	19548
901.784	19510
901.904	19278
902.023	19179
902.141	19156
902.26	18954
902.379	19019
902.498	18996
902.617	18848
902.735	18954
902.854	18840
902.973	18833
903.091	18646
903.21	18574
903.328	18528
903.446	18555
903.565	18494
903.683	18448
903.801	18235
903.919	18399
904.038	18308
904.156	18178
904.274	18289
904.392	18182
904.51	18277
904.627	18209
904.745	18224
904.863	18216
904.981	17954
905.098	17908
905.216	17874
905.334	17958
905.451	17916
905.569	17802
905.686	17824
905.803	17973
905.921	17661
906.038	17779
906.155	17638
906.272	17467
906.389	17547
906.506	17459
906.623	17425
906.74	17402
906.857	17337
906.974	17315
907.091	17543
907.208	17478
907.324	17379
907.441	17280
907.557	17220
907.674	17170
907.79	17067
907.907	17014
908.023	17113
908.139	17086
908.256	16976
908.372	16942
908.488	17067
908.604	16869
908.72	16831
908.836	16778
908.952	16809
909.068	16835
909.184	16938
909.3	16850
909.415	16915
909.531	16847
909.647	16542
909.762	16607
909.878	16481
909.993	16481
910.108	16394
910.224	16455
910.339	16550
910.454	16348
910.57	16352
910.685	16272
910.8	16607
910.915	16489
911.03	16295
911.145	16211
911.259	16131
911.374	16200
911.489	16044
911.604	15991
911.718	15884
911.833	15937
911.947	15755
912.062	15686
912.176	15804
912.291	15892
912.405	15781
912.519	16013
912.633	16040
912.748	15918
912.862	15869
912.976	15713
913.09	15618
913.204	15690
913.318	15705
913.431	15736
913.545	15690
913.659	15808
913.772	15580
913.886	15587
914	15454
914.113	15545
914.226	15606
914.34	15454
914.453	15340
914.566	15511
914.68	15363
914.793	15351
914.906	15188
915.019	15062
915.132	15005
915.245	15005
915.358	15058
915.47	15146
915.583	15108
915.696	15108
915.809	15051
915.921	15142
916.034	15020
916.146	15024
916.259	14979
916.371	14986
916.483	15043
916.595	14914
916.708	14963
916.82	14944
916.932	14891
917.044	14857
917.156	14883
917.268	14754
917.38	14834
917.491	14705
917.603	14731
917.715	14857
917.826	14758
917.938	14655
918.049	14514
918.161	14617
918.272	14910
918.384	14800
918.495	14686
918.606	14514
918.717	14461
918.828	14518
918.939	14552
919.05	14347
919.161	14473
919.272	14290
919.383	14286
919.494	14503
919.604	14785
919.715	14503
919.826	14465
919.936	14484
920.047	14438
920.157	14393
920.267	14663
920.378	14492
920.488	14419
920.598	14682
920.708	14819
920.818	14583
920.928	14549
921.038	14746
921.148	14701
921.258	14457
921.368	14343
921.477	14187
921.587	14309
921.697	14081
921.806	14107
921.916	14126
922.025	13951
922.134	13849
922.244	13871
922.353	13898
922.462	13811
922.571	13662
922.68	13616
922.789	13487
922.898	13533
923.007	13422
923.116	13426
923.224	13468
923.333	13445
923.442	13415
923.55	13304
923.659	13354
923.767	13369
923.876	13327
923.984	13324
924.092	13137
924.201	13259
924.309	13225
924.417	13244
924.525	13190
924.633	13137
924.741	13955
924.849	12954
924.956	13076
925.064	12970
925.172	12920
925.279	12867
925.387	12924
925.494	12913
925.602	13023
925.709	12947
925.816	12806
925.924	12863
926.031	13038
926.138	12882
926.245	12958
926.352	12798
926.459	12935
926.566	12901
926.673	12715
926.779	12612
926.886	12692
926.993	12563
927.099	12506
927.206	12521
927.312	12445
927.419	12483
927.525	12509
927.631	12467
927.737	12273
927.843	12315
927.95	12239
928.056	12277
928.162	12361
928.267	12319
928.373	12993
928.479	12422
928.585	12190
928.69	12308
928.796	12323
928.901	12117
929.007	12060
929.112	12117
929.218	12076
929.323	12072
929.428	12049
929.533	12171
929.638	11988
929.743	11973
929.848	11996
929.953	11984
930.058	11882
930.163	11771
930.267	11729
930.372	11870
930.477	11699
930.581	11885
930.685	11752
930.79	11608
930.894	11665
930.998	11539
931.103	11684
931.207	11258
931.311	11181
931.415	11220
931.519	11056
931.623	10980
