Data from test_V78500241_2751.txt Node
Date: Fri Mar 25 15:29:00 CST 2022
User: usil
Spectrometer: V785-0024
Trigger mode: 0
Integration Time (sec): 4.000000E-1
Scans to average: 1
Nonlinearity correction enabled: false
Boxcar width: 0
Storing dark spectrum: false
XAxis mode: Wavelengths
Number of Pixels in Spectrum: 1024
>>>>>Begin Spectral Data<<<<<
801.071	26906
801.214	26918
801.356	26682
801.499	26564
801.641	26488
801.783	26533
801.926	26522
802.068	26488
802.211	26343
802.353	26298
802.496	26119
802.638	26115
802.78	26016
802.923	26134
803.065	25932
803.208	26035
803.35	26092
803.492	26317
803.635	26298
803.777	26111
803.919	26309
804.061	26537
804.204	26290
804.346	26103
804.488	26111
804.63	26278
804.773	26050
804.915	26214
805.057	26309
805.199	26164
805.341	26339
805.483	26317
805.626	26294
805.768	26309
805.91	26351
806.052	26381
806.194	26218
806.336	26640
806.478	26377
806.62	26180
806.762	26404
806.904	26442
807.046	26727
807.188	26796
807.33	26811
807.472	26750
807.614	26571
807.756	26689
807.898	26537
808.04	26415
808.182	26537
808.324	26427
808.465	26613
808.607	26800
808.749	26929
808.891	26956
809.033	27047
809.174	26940
809.316	26940
809.458	26910
809.6	26838
809.741	26921
809.883	27093
810.025	27268
810.166	27043
810.308	27142
810.45	27226
810.591	27135
810.733	26921
810.875	26705
811.016	26868
811.158	26842
811.299	26864
811.441	27074
811.582	27051
811.724	26925
811.865	26842
812.007	26754
812.148	26819
812.29	26826
812.431	26963
812.573	27131
812.714	27275
812.855	27321
812.997	27447
813.138	27504
813.279	27523
813.421	27355
813.562	27302
813.703	27203
813.845	27028
813.986	26750
814.127	26670
814.268	26423
814.41	26590
814.551	26484
814.692	26473
814.833	26412
814.974	26347
815.115	26587
815.256	26465
815.397	26427
815.539	26511
815.68	26347
815.821	26275
815.962	26320
816.103	26221
816.244	26176
816.385	25875
816.526	26081
816.666	25902
816.807	25677
816.948	25704
817.089	25947
817.23	25909
817.371	25868
817.512	25742
817.653	25738
817.793	25795
817.934	25746
818.075	25742
818.216	25772
818.356	25852
818.497	25651
818.638	25438
818.778	25552
818.919	25533
819.06	25460
819.2	25635
819.341	25761
819.481	25677
819.622	25833
819.762	26024
819.903	26100
820.043	25966
820.184	25814
820.324	25852
820.465	25966
820.605	25871
820.746	25860
820.886	25818
821.026	25837
821.167	25750
821.307	25906
821.447	25898
821.588	25727
821.728	25521
821.868	25419
822.008	25289
822.149	25194
822.289	25270
822.429	24977
822.569	24829
822.709	24966
822.849	24749
822.99	24722
823.13	24681
823.27	24681
823.41	24696
823.55	24475
823.69	24601
823.83	24483
823.97	24540
824.11	24403
824.25	24308
824.389	24311
824.529	24330
824.669	24232
824.809	24536
824.949	24574
825.089	24471
825.228	24353
825.368	24228
825.508	24174
825.648	24277
825.787	24220
825.927	24266
826.067	24197
826.206	24289
826.346	24289
826.485	24281
826.625	24372
826.765	24330
826.904	24254
827.044	24136
827.183	24114
827.323	23843
827.462	23931
827.601	23992
827.741	23897
827.88	23965
828.02	23832
828.159	23958
828.298	23927
828.437	23828
828.577	23878
828.716	24076
828.855	23885
828.994	23604
829.134	23615
829.273	23695
829.412	23516
829.551	23832
829.69	23703
829.829	23687
829.968	23619
830.107	23707
830.246	23657
830.385	23547
830.524	23543
830.663	23345
830.802	23223
830.941	23330
831.08	23151
831.219	23174
831.357	23204
831.496	23429
831.635	23345
831.774	23216
831.913	23064
832.051	23060
832.19	22953
832.329	23067
832.467	23006
832.606	22873
832.744	22816
832.883	22885
833.022	22752
833.16	22976
833.299	23029
833.437	22957
833.576	23102
833.714	22987
833.852	22949
833.991	23029
834.129	23098
834.267	22949
834.406	23136
834.544	23060
834.682	23018
834.821	22995
834.959	23265
835.097	22934
835.235	23162
835.373	22923
835.511	23018
835.65	22908
835.788	22816
835.926	22698
836.064	22611
836.202	22622
836.34	22790
836.478	22995
836.615	22759
836.753	22752
836.891	22938
837.029	22717
837.167	22793
837.305	22793
837.443	22580
837.58	22736
837.718	22809
837.856	22634
837.993	22649
838.131	22702
838.269	22542
838.406	22550
838.544	22569
838.681	22424
838.819	22310
838.956	22166
839.094	22215
839.231	22120
839.369	22344
839.506	22565
839.643	22432
839.781	22200
839.918	22097
840.055	22097
840.193	22128
840.33	22036
840.467	22280
840.604	22150
840.742	22394
840.879	22021
841.016	22013
841.153	21994
841.29	22139
841.427	21991
841.564	22070
841.701	22074
841.838	22116
841.975	22135
842.112	21930
842.249	22074
842.385	21827
842.522	22093
842.659	22017
842.796	21880
842.933	21918
843.069	21857
843.206	21766
843.343	21987
843.479	21835
843.616	21873
843.752	21564
843.889	21595
844.025	21724
844.162	21580
844.298	21648
844.435	21694
844.571	21447
844.708	21747
844.844	21743
844.98	21816
845.117	21781
845.253	21587
845.389	21412
845.525	21610
845.661	21454
845.798	21405
845.934	21496
846.07	21348
846.206	21428
846.342	21603
846.478	21420
846.614	21135
846.75	21211
846.886	21195
847.022	21218
847.158	21275
847.294	21176
847.429	21268
847.565	21184
847.701	21317
847.837	20952
847.972	20921
848.108	20941
848.244	20994
848.379	20796
848.515	20739
848.65	20758
848.786	20708
848.921	20720
849.057	20785
849.192	20785
849.328	20887
849.463	20587
849.598	20701
849.734	20606
849.869	20590
850.004	20533
850.14	20484
850.275	20587
850.41	20503
850.545	20347
850.68	20636
850.815	20617
850.95	20461
851.085	20648
851.22	20629
851.355	20526
851.49	20423
851.625	20385
851.76	20434
851.895	20396
852.03	20400
852.165	20480
852.299	20507
852.434	20587
852.569	20488
852.703	20503
852.838	20446
852.973	20541
853.107	20552
853.242	20347
853.376	20324
853.511	20180
853.645	20290
853.78	20423
853.914	20313
854.048	20248
854.183	20278
854.317	20358
854.451	20564
854.585	20362
854.72	20476
854.854	20423
854.988	20244
855.122	20343
855.256	20149
855.39	20374
855.524	20263
855.658	20351
855.792	20275
855.926	20332
856.06	20374
856.194	20370
856.327	20233
856.461	20256
856.595	20370
856.729	20248
856.862	20396
856.996	20385
857.13	20343
857.263	20347
857.397	20347
857.53	20374
857.664	20286
857.797	20355
857.931	20396
858.064	20339
858.197	20343
858.331	20339
858.464	20389
858.597	20229
858.731	20343
858.864	20298
858.997	20324
859.13	20267
859.263	20358
859.396	20370
859.529	20267
859.662	20237
859.795	20248
859.928	20377
860.061	20442
860.194	20492
860.327	20358
860.46	20259
860.592	20377
860.725	20495
860.858	20454
860.99	20351
861.123	20183
861.256	20278
861.388	20313
861.521	20921
861.653	20237
861.786	20073
861.918	20134
862.05	20202
862.183	20309
862.315	20298
862.447	20320
862.58	20233
862.712	20096
862.844	19928
862.976	20111
863.108	20084
863.24	20571
863.372	19993
863.504	19967
863.636	19959
863.768	20005
863.9	19982
864.032	20092
864.164	19982
864.296	20005
864.428	20157
864.559	20130
864.691	20202
864.823	20065
864.954	20058
865.086	20039
865.217	19970
865.349	19879
865.48	19936
865.612	20111
865.743	20157
865.875	19993
866.006	19906
866.137	19989
866.269	19944
866.4	19970
866.531	19879
866.662	19830
866.793	19947
866.924	19997
867.055	19860
867.186	19868
867.317	19826
867.448	19898
867.579	19906
867.71	19696
867.841	19814
867.972	19913
868.103	19765
868.233	19978
868.364	19982
868.495	19997
868.625	20142
868.756	20073
868.886	19959
869.017	20126
869.147	20313
869.278	20225
869.408	20115
869.539	20210
869.669	20161
869.799	20324
869.929	20320
870.06	20164
870.19	20476
870.32	20309
870.45	20442
870.58	20461
870.71	20613
870.84	20659
870.97	20613
871.1	20499
871.23	20678
871.36	20705
871.489	20655
871.619	20708
871.749	20823
871.879	20781
872.008	21009
872.138	20785
872.267	20686
872.397	20583
872.526	20575
872.656	20492
872.785	20598
872.915	20746
873.044	20800
873.173	20807
873.303	20758
873.432	20659
873.561	20739
873.69	20750
873.819	20823
873.948	20754
874.077	20762
874.206	20686
874.335	20640
874.464	20838
874.593	20971
874.722	20998
874.851	21028
874.979	21112
875.108	21138
875.237	20982
875.365	20849
875.494	20895
875.623	21135
875.751	20902
875.88	21024
876.008	21207
876.136	21245
876.265	21317
876.393	21583
876.521	21443
876.65	21458
876.778	21397
876.906	21195
877.034	21272
877.162	21283
877.29	21313
877.418	21268
877.546	21355
877.674	21386
877.802	21268
877.93	21454
878.058	21313
878.185	21222
878.313	21332
878.441	21344
878.568	21165
878.696	21218
878.824	21359
878.951	21466
879.079	21549
879.206	21641
879.333	21523
879.461	21466
879.588	21496
879.715	21492
879.842	21648
879.97	21420
880.097	21233
880.224	21207
880.351	21207
880.478	21199
880.605	21192
880.732	21279
880.859	21443
880.986	21321
881.112	21199
881.239	21013
881.366	20902
881.493	20807
881.619	20769
881.746	20868
881.872	20655
881.999	20765
882.125	20750
882.252	20746
882.378	20743
882.505	20876
882.631	20716
882.757	20446
882.883	20583
883.01	20454
883.136	20355
883.262	20263
883.388	20305
883.514	20454
883.64	20556
883.766	20305
883.892	20263
884.018	20351
884.143	20423
884.269	20530
884.395	20290
884.52	20054
884.646	20259
884.772	20103
884.897	20050
885.023	20142
885.148	20248
885.274	20332
885.399	20225
885.524	20172
885.65	20233
885.775	20191
885.9	20077
886.025	20244
886.15	20225
886.275	20103
886.4	20031
886.525	20058
886.65	20046
886.775	20031
886.9	20324
887.025	20301
887.149	20164
887.274	19993
887.399	19868
887.523	19868
887.648	19845
887.773	19784
887.897	19890
888.021	19993
888.146	19818
888.27	19860
888.395	20035
888.519	19959
888.643	20012
888.767	19951
888.891	19693
889.015	19765
889.139	19761
889.263	19635
889.387	19871
889.511	19944
889.635	19883
889.759	19753
889.883	19746
890.006	19731
890.13	19788
890.254	19780
890.377	19655
890.501	19445
890.624	19518
890.748	19525
890.871	19343
890.995	19308
891.118	19293
891.241	19346
891.364	19312
891.488	19327
891.611	19282
891.734	19430
891.857	19343
891.98	19251
892.103	19312
892.226	19324
892.349	19324
892.471	19148
892.594	19126
892.717	19255
892.839	19285
892.962	19373
893.085	19293
893.207	19164
893.33	19114
893.452	19148
893.575	19171
893.697	19198
893.819	19308
893.941	19480
894.064	19369
894.186	19183
894.308	19053
894.43	19221
894.552	19358
894.674	19358
894.796	19061
894.918	19198
895.04	19362
895.161	19285
895.283	19255
895.405	19164
895.526	19202
895.648	19213
895.769	19297
895.891	19206
896.012	19247
896.134	19282
896.255	19244
896.376	19247
896.498	19202
896.619	19225
896.74	19187
896.861	19263
896.982	19491
897.103	19757
897.224	19468
897.345	19449
897.466	19327
897.587	19483
897.708	19559
897.828	19457
897.949	19384
898.07	19289
898.19	19358
898.311	19544
898.431	19472
898.552	19567
898.672	19647
898.792	19609
898.913	19502
899.033	19384
899.153	19293
899.273	19251
899.393	19293
899.513	19278
899.633	19217
899.753	19240
899.873	19209
899.993	19259
900.113	19148
900.232	19244
900.352	19164
900.472	19133
900.591	19012
900.711	19023
900.83	18935
900.95	19225
901.069	19160
901.189	18886
901.308	18753
901.427	18681
901.546	18673
901.665	18700
901.784	18616
901.904	18456
902.023	18319
902.141	18262
902.26	18174
902.379	18235
902.498	18064
902.617	18095
902.735	18285
902.854	18167
902.973	18174
903.091	17870
903.21	17798
903.328	17824
903.446	17668
903.565	17596
903.683	17684
903.801	17512
903.919	17646
904.038	17478
904.156	17387
904.274	17493
904.392	17436
904.51	17356
904.627	17478
904.745	17402
904.863	17467
904.981	17143
905.098	17181
905.216	17128
905.334	17223
905.451	17079
905.569	17067
905.686	17098
905.803	17029
905.921	16919
906.038	16934
906.155	16866
906.272	16881
906.389	16767
906.506	16725
906.623	16634
906.74	16679
906.857	16607
906.974	16603
907.091	16611
907.208	16713
907.324	16622
907.441	16531
907.557	16481
907.674	16424
907.79	16329
907.907	16428
908.023	16337
908.139	16310
908.256	16242
908.372	16303
908.488	16265
908.604	16166
908.72	16074
908.836	16128
908.952	16082
909.068	16154
909.184	16128
909.3	16048
909.415	16162
909.531	16131
909.647	15854
909.762	15903
909.878	15846
909.993	15728
910.108	15778
910.224	15778
910.339	15739
910.454	15622
910.57	15549
910.685	15477
910.8	15789
910.915	15644
911.03	15564
911.145	15454
911.259	15348
911.374	15340
911.489	15317
911.604	15287
911.718	15176
911.833	15192
911.947	15123
912.062	15100
912.176	15226
912.291	15131
912.405	15173
912.519	15462
912.633	15450
912.748	15237
912.862	15222
912.976	15062
913.09	15020
913.204	14994
913.318	14921
913.431	15062
913.545	15009
913.659	15077
913.772	14979
913.886	14826
914	14724
914.113	14785
914.226	14845
914.34	14864
914.453	14613
914.566	14933
914.68	14655
914.793	14727
914.906	14530
915.019	14412
915.132	14389
915.245	14434
915.358	14362
915.47	14442
915.583	14438
915.696	14415
915.809	14511
915.921	14617
916.034	14396
916.146	14336
916.259	14278
916.371	14461
916.483	14423
916.595	14305
916.708	14225
916.82	14351
916.932	14256
917.044	14286
917.156	14256
917.268	14054
917.38	14077
917.491	14111
917.603	14119
917.715	14191
917.826	14149
917.938	14050
918.049	13978
918.161	13951
918.272	14157
918.384	14149
918.495	14069
918.606	13917
918.717	13818
918.828	13883
918.939	13837
919.05	13712
919.161	13833
919.272	13609
919.383	13681
919.494	13913
919.604	14050
919.715	13887
919.826	13761
919.936	13803
920.047	13898
920.157	13852
920.267	14020
920.378	13814
920.488	13780
920.598	13978
920.708	14229
920.818	13967
920.928	14001
921.038	14084
921.148	14157
921.258	13826
921.368	13689
921.477	13647
921.587	13578
921.697	13422
921.806	13712
921.916	13453
922.025	13335
922.134	13240
922.244	13206
922.353	13228
922.462	13103
922.571	13069
922.68	12954
922.789	12958
922.898	12939
923.007	12802
923.116	12939
923.224	12875
923.333	12897
923.442	12707
923.55	12696
923.659	12715
923.767	12779
923.876	12711
923.984	12787
924.092	12684
924.201	12776
924.309	12665
924.417	12555
924.525	12574
924.633	12593
924.741	13578
924.849	12426
924.956	12536
925.064	12403
925.172	12266
925.279	12369
925.387	12391
925.494	12422
925.602	12490
925.709	12429
925.816	12213
925.924	12262
926.031	12414
926.138	12262
926.245	12395
926.352	12224
926.459	12270
926.566	12418
926.673	12266
926.779	12190
926.886	12041
926.993	12007
927.099	11977
927.206	11885
927.312	11908
927.419	11999
927.525	11889
927.631	11973
927.737	11695
927.843	11832
927.95	11714
928.056	11794
928.162	11737
928.267	11764
928.373	12372
928.479	11893
928.585	11649
928.69	11790
928.796	11729
928.901	11649
929.007	11493
929.112	11691
929.218	11589
929.323	11532
929.428	11509
929.533	11653
929.638	11368
929.743	11539
929.848	11581
929.953	11474
930.058	11349
930.163	11121
930.267	11299
930.372	11353
930.477	11136
930.581	11421
930.685	11341
930.79	11090
930.894	11094
930.998	11090
931.103	11334
931.207	10873
931.311	10782
931.415	10771
931.519	10497
931.623	10493
