Data from test_V78500241_3375.txt Node
Date: Fri Mar 25 15:33:21 CST 2022
User: usil
Spectrometer: V785-0024
Trigger mode: 0
Integration Time (sec): 4.000000E-1
Scans to average: 1
Nonlinearity correction enabled: false
Boxcar width: 0
Storing dark spectrum: false
XAxis mode: Wavelengths
Number of Pixels in Spectrum: 1024
>>>>>Begin Spectral Data<<<<<
801.071	27268
801.214	27146
801.356	26952
801.499	26857
801.641	26689
801.783	26678
801.926	26762
802.068	26762
802.211	26720
802.353	26552
802.496	26484
802.638	26457
802.78	26252
802.923	26393
803.065	26294
803.208	26259
803.35	26294
803.492	26541
803.635	26617
803.777	26370
803.919	26571
804.061	26697
804.204	26621
804.346	26648
804.488	26419
804.63	26575
804.773	26294
804.915	26453
805.057	26621
805.199	26453
805.341	26511
805.483	26644
805.626	26518
805.768	26594
805.91	26739
806.052	26602
806.194	26617
806.336	26857
806.478	26564
806.62	26587
806.762	26693
806.904	26982
807.046	27142
807.188	26975
807.33	27058
807.472	27058
807.614	26975
807.756	26971
807.898	26899
808.04	26796
808.182	26800
808.324	26849
808.465	26937
808.607	27142
808.749	27249
808.891	27523
809.033	27340
809.174	27207
809.316	27241
809.458	27195
809.6	27203
809.741	27298
809.883	27256
810.025	27469
810.166	27538
810.308	27424
810.45	27348
810.591	27420
810.733	27325
810.875	27245
811.016	27154
811.158	27093
811.299	27325
811.441	27412
811.582	27351
811.724	27256
811.865	27268
812.007	27214
812.148	27207
812.29	27283
812.431	27332
812.573	27469
812.714	27671
812.855	27671
812.997	27781
813.138	27873
813.279	27816
813.421	27580
813.562	27739
813.703	27545
813.845	27447
813.986	27089
814.127	27051
814.268	26853
814.41	26902
814.551	26921
814.692	26807
814.833	26868
814.974	26769
815.115	26857
815.256	26689
815.397	26701
815.539	26853
815.68	26594
815.821	26617
815.962	26587
816.103	26765
816.244	26537
816.385	26427
816.526	26301
816.666	26191
816.807	26187
816.948	26229
817.089	26210
817.23	26240
817.371	25989
817.512	26073
817.653	26168
817.793	26122
817.934	26161
818.075	26069
818.216	26111
818.356	26058
818.497	26050
818.638	25883
818.778	25887
818.919	25742
819.06	25989
819.2	26043
819.341	26012
819.481	26225
819.622	26282
819.762	26419
819.903	26355
820.043	26362
820.184	26351
820.324	26301
820.465	26431
820.605	26282
820.746	26244
820.886	26031
821.026	26290
821.167	26161
821.307	26244
821.447	26202
821.588	26084
821.728	26035
821.868	25727
822.008	25757
822.149	25696
822.289	25712
822.429	25495
822.569	25259
822.709	25228
822.849	25126
822.99	25228
823.13	25183
823.27	25088
823.41	25050
823.55	24760
823.69	24992
823.83	24951
823.97	24810
824.11	24696
824.25	24840
824.389	24795
824.529	24856
824.669	24779
824.809	24966
824.949	24878
825.089	24825
825.228	24802
825.368	24555
825.508	24437
825.648	24658
825.787	24711
825.927	24608
826.067	24688
826.206	24696
826.346	24692
826.485	24703
826.625	24429
826.765	24745
826.904	24753
827.044	24513
827.183	24429
827.323	24327
827.462	24464
827.601	24376
827.741	24296
827.88	24285
828.02	24266
828.159	24338
828.298	24391
828.437	24365
828.577	24350
828.716	24315
828.855	24285
828.994	24159
829.134	24011
829.273	24197
829.412	24003
829.551	24026
829.69	24129
829.829	24125
829.968	24133
830.107	24114
830.246	24079
830.385	23999
830.524	24053
830.663	23977
830.802	23885
830.941	23722
831.08	23577
831.219	23756
831.357	23779
831.496	23870
831.635	23642
831.774	23585
831.913	23455
832.051	23459
832.19	23505
832.329	23444
832.467	23459
832.606	23242
832.744	23307
832.883	23299
833.022	23353
833.16	23410
833.299	23292
833.437	23345
833.576	23429
833.714	23330
833.852	23440
833.991	23493
834.129	23387
834.267	23478
834.406	23463
834.544	23398
834.682	23349
834.821	23410
834.959	23623
835.097	23436
835.235	23600
835.373	23433
835.511	23326
835.65	23303
835.788	23311
835.926	23105
836.064	22984
836.202	23086
836.34	23250
836.478	23345
836.615	23311
836.753	23299
836.891	23364
837.029	23383
837.167	23269
837.305	23318
837.443	23185
837.58	23162
837.718	23185
837.856	23235
837.993	23060
838.131	23181
838.269	22968
838.406	23140
838.544	22987
838.681	22782
838.819	22801
838.956	22596
839.094	22622
839.231	22615
839.369	22790
839.506	23033
839.643	22991
839.781	22577
839.918	22691
840.055	22611
840.193	22725
840.33	22504
840.467	22512
840.604	22645
840.742	22698
840.879	22443
841.016	22386
841.153	22497
841.29	22618
841.427	22523
841.564	22550
841.701	22550
841.838	22535
841.975	22516
842.112	22550
842.249	22379
842.385	22325
842.522	22573
842.659	22588
842.796	22409
842.933	22318
843.069	22169
843.206	22226
843.343	22386
843.479	22386
843.616	22398
843.752	22116
843.889	22192
844.025	22226
844.162	22051
844.298	22090
844.435	22051
844.571	22086
844.708	22166
844.844	22249
844.98	22196
845.117	22303
845.253	21987
845.389	21857
845.525	22044
845.661	22006
845.798	21922
845.934	21892
846.07	21789
846.206	21907
846.342	21915
846.478	21743
846.614	21682
846.75	21614
846.886	21591
847.022	21698
847.158	21553
847.294	21557
847.429	21618
847.565	21488
847.701	21831
847.837	21374
847.972	21329
848.108	21382
848.244	21348
848.379	21222
848.515	21188
848.65	21032
848.786	21237
848.921	21096
849.057	21237
849.192	21203
849.328	21237
849.463	21184
849.598	21112
849.734	21146
849.869	20990
850.004	21062
850.14	21020
850.275	20982
850.41	20914
850.545	20834
850.68	20956
850.815	20868
850.95	20914
851.085	21039
851.22	20910
851.355	20929
851.49	20967
851.625	20918
851.76	20872
851.895	20902
852.03	20838
852.165	20956
852.299	20971
852.434	20998
852.569	20902
852.703	20895
852.838	20944
852.973	21047
853.107	21001
853.242	20876
853.376	20769
853.511	20625
853.645	20667
853.78	20868
853.914	20670
854.048	20682
854.183	20606
854.317	20826
854.451	20960
854.585	20777
854.72	20712
854.854	20864
854.988	20640
855.122	20689
855.256	20678
855.39	20678
855.524	20731
855.658	20712
855.792	20746
855.926	20872
856.06	20781
856.194	20792
856.327	20663
856.461	20705
856.595	20697
856.729	20781
856.862	20739
856.996	20815
857.13	20804
857.263	20819
857.397	20868
857.53	20758
857.664	20735
857.797	20800
857.931	20804
858.064	20826
858.197	20857
858.331	20746
858.464	20724
858.597	20693
858.731	20762
858.864	20670
858.997	20754
859.13	20689
859.263	20823
859.396	20883
859.529	20663
859.662	20754
859.795	20590
859.928	20743
860.061	20925
860.194	20979
860.327	20720
860.46	20731
860.592	20868
860.725	20796
860.858	20727
860.99	20533
861.123	20667
861.256	20674
861.388	20697
861.521	21458
861.653	20632
861.786	20629
861.918	20651
862.05	20575
862.183	20670
862.315	20705
862.447	20716
862.58	20617
862.712	20427
862.844	20438
862.976	20549
863.108	20511
863.24	20895
863.372	20446
863.504	20412
863.636	20518
863.768	20442
863.9	20351
864.032	20404
864.164	20461
864.296	20476
864.428	20518
864.559	20590
864.691	20636
864.823	20571
864.954	20461
865.086	20434
865.217	20362
865.349	20256
865.48	20301
865.612	20484
865.743	20537
865.875	20396
866.006	20358
866.137	20355
866.269	20347
866.4	20298
866.531	20259
866.662	20301
866.793	20218
866.924	20282
867.055	20351
867.186	20434
867.317	20301
867.448	20153
867.579	20301
867.71	20180
867.841	20256
867.972	20275
868.103	20313
868.233	20404
868.364	20355
868.495	20366
868.625	20499
868.756	20621
868.886	20427
869.017	20518
869.147	20655
869.278	20693
869.408	20533
869.539	20575
869.669	20674
869.799	20594
869.929	20720
870.06	20629
870.19	20952
870.32	20819
870.45	20929
870.58	20910
870.71	21039
870.84	21119
870.97	20849
871.1	20986
871.23	21100
871.36	21062
871.489	21093
871.619	21169
871.749	21093
871.879	21154
872.008	21192
872.138	21184
872.267	21211
872.397	20975
872.526	20925
872.656	21020
872.785	20990
872.915	21233
873.044	21302
873.173	21157
873.303	21214
873.432	21188
873.561	21374
873.69	21154
873.819	21077
873.948	21268
874.077	21146
874.206	21192
874.335	21222
874.464	21283
874.593	21416
874.722	21473
874.851	21382
874.979	21500
875.108	21431
875.237	21401
875.365	21386
875.494	21416
875.623	21485
875.751	21507
875.88	21591
876.008	21515
876.136	21564
876.265	21838
876.393	21865
876.521	21827
876.65	21972
876.778	21850
876.906	21690
877.034	21713
877.162	21831
877.29	21656
877.418	21648
877.546	21800
877.674	21827
877.802	21781
877.93	21819
878.058	21663
878.185	21682
878.313	21755
878.441	21656
878.568	21736
878.696	21599
878.824	21755
878.951	21774
879.079	21888
879.206	22158
879.333	21975
879.461	21937
879.588	21911
879.715	21838
879.842	21930
879.97	21861
880.097	21705
880.224	21583
880.351	21667
880.478	21542
880.605	21690
880.732	21576
880.859	21793
880.986	21660
881.112	21603
881.239	21549
881.366	21272
881.493	21230
881.619	21093
881.746	21222
881.872	21188
881.999	21195
882.125	21047
882.252	21131
882.378	21226
882.505	21226
882.631	21062
882.757	20895
882.883	20982
883.01	20842
883.136	20937
883.262	20701
883.388	20773
883.514	20941
883.64	20872
883.766	20800
883.892	20648
884.018	20670
884.143	20769
884.269	20906
884.395	20545
884.52	20473
884.646	20583
884.772	20473
884.897	20415
885.023	20526
885.148	20727
885.274	20765
885.399	20625
885.524	20556
885.65	20450
885.775	20537
885.9	20488
886.025	20625
886.15	20568
886.275	20484
886.4	20393
886.525	20541
886.65	20469
886.775	20526
886.9	20663
887.025	20724
887.149	20545
887.274	20294
887.399	20305
887.523	20313
887.648	20229
887.773	20176
887.897	20343
888.021	20290
888.146	20263
888.27	20381
888.395	20412
888.519	20415
888.643	20404
888.767	20317
888.891	20328
889.015	20058
889.139	20149
889.263	20031
889.387	20168
889.511	20259
889.635	20267
889.759	20096
889.883	19925
890.006	20088
890.13	20229
890.254	19982
890.377	20088
890.501	19883
890.624	19780
890.748	19807
890.871	19719
890.995	19704
891.118	19651
891.241	19750
891.364	19643
891.488	19811
891.611	19670
891.734	19635
891.857	19662
891.98	19613
892.103	19791
892.226	19753
892.349	19647
892.471	19445
892.594	19632
892.717	19533
892.839	19635
892.962	19567
893.085	19685
893.207	19586
893.33	19525
893.452	19544
893.575	19563
893.697	19525
893.819	19639
893.941	19807
894.064	19670
894.186	19540
894.308	19495
894.43	19731
894.552	19750
894.674	19658
894.796	19514
894.918	19518
895.04	19597
895.161	19658
895.283	19529
895.405	19518
895.526	19537
895.648	19521
895.769	19590
895.891	19567
896.012	19635
896.134	19620
896.255	19731
896.376	19624
896.498	19597
896.619	19696
896.74	19647
896.861	19658
896.982	19947
897.103	20145
897.224	19993
897.345	19936
897.466	19799
897.587	19811
897.708	19894
897.828	19944
897.949	19715
898.07	19632
898.19	19776
898.311	19860
898.431	19734
898.552	19845
898.672	19928
898.792	19913
898.913	19761
899.033	19696
899.153	19719
899.273	19567
899.393	19613
899.513	19563
899.633	19422
899.753	19521
899.873	19502
899.993	19586
900.113	19495
900.232	19575
900.352	19563
900.472	19453
900.591	19301
900.711	19464
900.83	19373
900.95	19449
901.069	19506
901.189	19228
901.308	19004
901.427	19023
901.546	18928
901.665	18939
901.784	18966
901.904	18753
902.023	18817
902.141	18574
902.26	18593
902.379	18551
902.498	18403
902.617	18525
902.735	18585
902.854	18399
902.973	18361
903.091	18209
903.21	18159
903.328	18163
903.446	18136
903.565	17984
903.683	18019
903.801	17859
903.919	17912
904.038	17889
904.156	17710
904.274	17817
904.392	17649
904.51	17767
904.627	17722
904.745	17699
904.863	17657
904.981	17604
905.098	17364
905.216	17364
905.334	17478
905.451	17421
905.569	17326
905.686	17410
905.803	17341
905.921	17128
906.038	17261
906.155	17140
906.272	17102
906.389	17113
906.506	16885
906.623	16900
906.74	16930
906.857	16656
906.974	16885
907.091	16984
907.208	16961
907.324	16949
907.441	16927
907.557	16656
907.674	16660
907.79	16736
907.907	16641
908.023	16637
908.139	16660
908.256	16508
908.372	16599
908.488	16596
908.604	16481
908.72	16375
908.836	16341
908.952	16375
909.068	16413
909.184	16565
909.3	16421
909.415	16390
909.531	16291
909.647	16154
909.762	16169
909.878	16044
909.993	16090
910.108	15953
910.224	16010
910.339	16017
910.454	15991
910.57	15892
910.685	15785
910.8	16162
910.915	15972
911.03	15983
911.145	15800
911.259	15717
911.374	15667
911.489	15720
911.604	15709
911.718	15496
911.833	15492
911.947	15450
912.062	15310
912.176	15507
912.291	15610
912.405	15351
912.519	15682
912.633	15641
912.748	15610
912.862	15386
912.976	15256
913.09	15138
913.204	15260
913.318	15306
913.431	15348
913.545	15488
913.659	15386
913.772	15237
913.886	15150
914	15112
914.113	15020
914.226	15154
914.34	15070
914.453	14956
914.566	15260
914.68	14967
914.793	14906
914.906	14823
915.019	14754
915.132	14606
915.245	14773
915.358	14762
915.47	14716
915.583	14674
915.696	14701
915.809	14792
915.921	14834
916.034	14659
916.146	14568
916.259	14648
916.371	14663
916.483	14689
916.595	14511
916.708	14587
916.82	14610
916.932	14408
917.044	14476
917.156	14499
917.268	14351
917.38	14431
917.491	14313
917.603	14400
917.715	14404
917.826	14427
917.938	14305
918.049	14240
918.161	14271
918.272	14457
918.384	14374
918.495	14328
918.606	14168
918.717	14062
918.828	14195
918.939	14176
919.05	14088
919.161	14073
919.272	13906
919.383	13978
919.494	14081
919.604	14313
919.715	14206
919.826	14012
919.936	14012
920.047	14119
920.157	13997
920.267	14389
920.378	14027
920.488	14119
920.598	14221
920.708	14396
920.818	14271
920.928	14180
921.038	14396
921.148	14252
921.258	14115
921.368	13902
921.477	13944
921.587	13795
921.697	13757
921.806	13875
921.916	13693
922.025	13670
922.134	13582
922.244	13480
922.353	13529
922.462	13388
922.571	13350
922.68	13236
922.789	13206
922.898	13236
923.007	13175
923.116	13160
923.224	13156
923.333	13137
923.442	12966
923.55	13000
923.659	12920
923.767	13145
923.876	12924
923.984	13012
924.092	12958
924.201	12981
924.309	12932
924.417	12928
924.525	12840
924.633	12852
924.741	13761
924.849	12620
924.956	12726
925.064	12673
925.172	12566
925.279	12566
925.387	12623
925.494	12521
925.602	12730
925.709	12745
925.816	12517
925.924	12506
926.031	12662
926.138	12544
926.245	12627
926.352	12479
926.459	12551
926.566	12597
926.673	12551
926.779	12330
926.886	12346
926.993	12182
927.099	12175
927.206	12133
927.312	12148
927.419	12273
927.525	12182
927.631	12171
927.737	12114
927.843	12076
927.95	11961
928.056	11954
928.162	12034
928.267	12049
928.373	12627
928.479	12098
928.585	11866
928.69	11942
928.796	11935
928.901	11840
929.007	11714
929.112	11920
929.218	11821
929.323	11722
929.428	11722
929.533	11843
929.638	11691
929.743	11710
929.848	11695
929.953	11707
930.058	11611
930.163	11421
930.267	11425
930.372	11566
930.477	11410
930.581	11547
930.685	11406
930.79	11246
930.894	11353
930.998	11345
931.103	11471
931.207	11041
931.311	11067
931.415	10889
931.519	10736
931.623	10698
