Data from test_V78500241_3329.txt Node
Date: Fri Mar 25 15:33:02 CST 2022
User: usil
Spectrometer: V785-0024
Trigger mode: 0
Integration Time (sec): 4.000000E-1
Scans to average: 1
Nonlinearity correction enabled: false
Boxcar width: 0
Storing dark spectrum: false
XAxis mode: Wavelengths
Number of Pixels in Spectrum: 1024
>>>>>Begin Spectral Data<<<<<
801.071	27272
801.214	27393
801.356	27199
801.499	27051
801.641	26872
801.783	26948
801.926	26982
802.068	26937
802.211	26785
802.353	26743
802.496	26545
802.638	26708
802.78	26412
802.923	26495
803.065	26412
803.208	26366
803.35	26655
803.492	26575
803.635	26678
803.777	26556
803.919	26731
804.061	26895
804.204	26746
804.346	26629
804.488	26575
804.63	26659
804.773	26488
804.915	26655
805.057	26693
805.199	26606
805.341	26731
805.483	26849
805.626	26845
805.768	26693
805.91	26785
806.052	26899
806.194	26701
806.336	26792
806.478	26792
806.62	26522
806.762	26952
806.904	26986
807.046	27378
807.188	27260
807.33	27173
807.472	27275
807.614	27096
807.756	27154
807.898	27085
808.04	26990
808.182	26994
808.324	27020
808.465	26998
808.607	27393
808.749	27473
808.891	27378
809.033	27405
809.174	27397
809.316	27249
809.458	27279
809.6	27283
809.741	27504
809.883	27587
810.025	27587
810.166	27747
810.308	27648
810.45	27564
810.591	27610
810.733	27424
810.875	27382
811.016	27291
811.158	27283
811.299	27542
811.441	27606
811.582	27603
811.724	27359
811.865	27275
812.007	27363
812.148	27447
812.29	27321
812.431	27515
812.573	27720
812.714	27747
812.855	27800
812.997	27964
813.138	28105
813.279	28006
813.421	27907
813.562	27762
813.703	27648
813.845	27496
813.986	27393
814.127	27123
814.268	27051
814.41	26994
814.551	26960
814.692	27169
814.833	27077
814.974	27005
815.115	26895
815.256	26735
815.397	26845
815.539	26769
815.68	26765
815.821	26857
815.962	26754
816.103	26792
816.244	26697
816.385	26492
816.526	26522
816.666	26415
816.807	26336
816.948	26343
817.089	26408
817.23	26313
817.371	26206
817.512	26145
817.653	26282
817.793	26286
817.934	26218
818.075	26313
818.216	26248
818.356	26328
818.497	26214
818.638	26096
818.778	25955
818.919	26069
819.06	26077
819.2	26191
819.341	26317
819.481	26244
819.622	26385
819.762	26568
819.903	26568
820.043	26469
820.184	26362
820.324	26389
820.465	26396
820.605	26355
820.746	26419
820.886	26096
821.026	26526
821.167	26294
821.307	26339
821.447	26377
821.588	26290
821.728	26168
821.868	25932
822.008	25769
822.149	25803
822.289	25734
822.429	25556
822.569	25426
822.709	25445
822.849	25232
822.99	25301
823.13	25266
823.27	25122
823.41	25122
823.55	24954
823.69	25141
823.83	25057
823.97	25008
824.11	24825
824.25	24783
824.389	24837
824.529	24833
824.669	24882
824.809	25023
824.949	25034
825.089	25015
825.228	24821
825.368	24848
825.508	24601
825.648	24715
825.787	24726
825.927	24760
826.067	24620
826.206	24856
826.346	24817
826.485	24817
826.625	24791
826.765	24848
826.904	24681
827.044	24475
827.183	24426
827.323	24429
827.462	24464
827.601	24498
827.741	24479
827.88	24525
828.02	24270
828.159	24517
828.298	24521
828.437	24357
828.577	24414
828.716	24483
828.855	24323
828.994	24155
829.134	24334
829.273	24304
829.412	24095
829.551	24045
829.69	24148
829.829	24357
829.968	24182
830.107	24117
830.246	24235
830.385	24182
830.524	24167
830.663	24064
830.802	23965
830.941	23779
831.08	23771
831.219	23790
831.357	24026
831.496	24106
831.635	23821
831.774	23741
831.913	23589
832.051	23623
832.19	23455
832.329	23672
832.467	23566
832.606	23376
832.744	23406
832.883	23414
833.022	23493
833.16	23528
833.299	23459
833.437	23558
833.576	23558
833.714	23551
833.852	23596
833.991	23589
834.129	23634
834.267	23718
834.406	23577
834.544	23600
834.682	23524
834.821	23554
834.959	23786
835.097	23471
835.235	23726
835.373	23665
835.511	23505
835.65	23387
835.788	23395
835.926	23334
836.064	23155
836.202	23383
836.34	23516
836.478	23493
836.615	23471
836.753	23429
836.891	23524
837.029	23402
837.167	23273
837.305	23315
837.443	23204
837.58	23322
837.718	23349
837.856	23318
837.993	23269
838.131	23235
838.269	23124
838.406	23140
838.544	23128
838.681	22889
838.819	23025
838.956	22767
839.094	22839
839.231	22786
839.369	23010
839.506	23121
839.643	23060
839.781	22687
839.918	22828
840.055	22774
840.193	22759
840.33	22710
840.467	22740
840.604	22706
840.742	22919
840.879	22561
841.016	22538
841.153	22512
841.29	22740
841.427	22626
841.564	22672
841.701	22577
841.838	22713
841.975	22580
842.112	22561
842.249	22523
842.385	22485
842.522	22717
842.659	22588
842.796	22516
842.933	22508
843.069	22459
843.206	22344
843.343	22493
843.479	22451
843.616	22337
843.752	22226
843.889	22284
844.025	22428
844.162	22284
844.298	22356
844.435	22097
844.571	22166
844.708	22314
844.844	22409
844.98	22451
845.117	22382
845.253	21998
845.389	22147
845.525	22105
845.661	21975
845.798	21979
845.934	21941
846.07	21918
846.206	22036
846.342	22169
846.478	21907
846.614	21762
846.75	21660
846.886	21743
847.022	21743
847.158	21778
847.294	21701
847.429	21622
847.565	21732
847.701	21812
847.837	21492
847.972	21466
848.108	21447
848.244	21500
848.379	21359
848.515	21458
848.65	21245
848.786	21386
848.921	21355
849.057	21317
849.192	21325
849.328	21416
849.463	21287
849.598	21165
849.734	21260
849.869	21108
850.004	21032
850.14	21127
850.275	21032
850.41	20998
850.545	21005
850.68	20960
850.815	21119
850.95	21047
851.085	21332
851.22	21093
851.355	21096
851.49	20944
851.625	21116
851.76	21009
851.895	20880
852.03	20853
852.165	21017
852.299	20998
852.434	21154
852.569	21123
852.703	21135
852.838	21123
852.973	21085
853.107	21157
853.242	20967
853.376	20868
853.511	20754
853.645	20815
853.78	21058
853.914	20956
854.048	20853
854.183	20807
854.317	20864
854.451	21070
854.585	20921
854.72	20788
854.854	20986
854.988	20785
855.122	20861
855.256	20727
855.39	20887
855.524	20906
855.658	20788
855.792	20887
855.926	20979
856.06	20986
856.194	20914
856.327	20838
856.461	20880
856.595	20731
856.729	20883
856.862	20963
856.996	20925
857.13	20887
857.263	21017
857.397	20906
857.53	20788
857.664	20952
857.797	21009
857.931	21123
858.064	20910
858.197	20979
858.331	20902
858.464	20952
858.597	20735
858.731	20933
858.864	20826
858.997	20667
859.13	20952
859.263	20845
859.396	21005
859.529	20906
859.662	20864
859.795	20807
859.928	20838
860.061	21043
860.194	20994
860.327	20921
860.46	20834
860.592	20960
860.725	20971
860.858	20979
860.99	20921
861.123	20701
861.256	20773
861.388	20853
861.521	21553
861.653	20765
861.786	20705
861.918	20830
862.05	20785
862.183	20777
862.315	20845
862.447	20842
862.58	20876
862.712	20583
862.844	20579
862.976	20632
863.108	20655
863.24	21055
863.372	20484
863.504	20594
863.636	20575
863.768	20629
863.9	20621
864.032	20587
864.164	20629
864.296	20682
864.428	20762
864.559	20735
864.691	20735
864.823	20598
864.954	20583
865.086	20579
865.217	20484
865.349	20393
865.48	20556
865.612	20446
865.743	20549
865.875	20457
866.006	20389
866.137	20434
866.269	20457
866.4	20533
866.531	20507
866.662	20385
866.793	20442
866.924	20404
867.055	20492
867.186	20503
867.317	20370
867.448	20431
867.579	20370
867.71	20438
867.841	20438
867.972	20423
868.103	20454
868.233	20309
868.364	20476
868.495	20564
868.625	20670
868.756	20743
868.886	20564
869.017	20682
869.147	20743
869.278	20845
869.408	20705
869.539	20697
869.669	20682
869.799	20823
869.929	20788
870.06	20815
870.19	21013
870.32	21005
870.45	21066
870.58	21051
870.71	21199
870.84	21207
870.97	21020
871.1	21066
871.23	21245
871.36	21283
871.489	21142
871.619	21310
871.749	21226
871.879	21359
872.008	21291
872.138	21233
872.267	21359
872.397	21112
872.526	21123
872.656	21116
872.785	21173
872.915	21294
873.044	21287
873.173	21287
873.303	21272
873.432	21428
873.561	21302
873.69	21214
873.819	21218
873.948	21450
874.077	21340
874.206	21351
874.335	21260
874.464	21488
874.593	21545
874.722	21416
874.851	21652
874.979	21622
875.108	21568
875.237	21492
875.365	21401
875.494	21603
875.623	21629
875.751	21553
875.88	21637
876.008	21804
876.136	21728
876.265	22124
876.393	22032
876.521	22021
876.65	22158
876.778	22048
876.906	21903
877.034	21873
877.162	21975
877.29	21793
877.418	21956
877.546	21968
877.674	22017
877.802	21850
877.93	21888
878.058	21911
878.185	21812
878.313	21911
878.441	21857
878.568	21641
878.696	21759
878.824	21835
878.951	21937
879.079	22093
879.206	22143
879.333	22013
879.461	22021
879.588	21918
879.715	22128
879.842	22337
879.97	21968
880.097	21705
880.224	21648
880.351	21747
880.478	21804
880.605	21717
880.732	21724
880.859	21873
880.986	21705
881.112	21827
881.239	21572
881.366	21397
881.493	21435
881.619	21359
881.746	21161
881.872	21401
881.999	21287
882.125	21252
882.252	21306
882.378	21310
882.505	21424
882.631	21089
882.757	21058
882.883	21043
883.01	20921
883.136	20971
883.262	20872
883.388	20952
883.514	20921
883.64	20902
883.766	20906
883.892	20796
884.018	20891
884.143	21020
884.269	21127
884.395	20693
884.52	20590
884.646	20644
884.772	20583
884.897	20503
885.023	20651
885.148	20689
885.274	20712
885.399	20773
885.524	20579
885.65	20689
885.775	20514
885.9	20583
886.025	20754
886.15	20720
886.275	20621
886.4	20556
886.525	20495
886.65	20579
886.775	20499
886.9	20739
887.025	20849
887.149	20511
887.274	20454
887.399	20408
887.523	20431
887.648	20233
887.773	20320
887.897	20530
888.021	20469
888.146	20282
888.27	20499
888.395	20488
888.519	20450
888.643	20438
888.767	20362
888.891	20343
889.015	20317
889.139	20252
889.263	20248
889.387	20434
889.511	20358
889.635	20396
889.759	20065
889.883	20240
890.006	20225
890.13	20244
890.254	20225
890.377	20210
890.501	20024
890.624	19974
890.748	20043
890.871	19856
890.995	19837
891.118	19738
891.241	19780
891.364	19670
891.488	19860
891.611	19780
891.734	19822
891.857	19856
891.98	19765
892.103	19845
892.226	19883
892.349	19769
892.471	19613
892.594	19818
892.717	19715
892.839	19635
892.962	19826
893.085	19788
893.207	19837
893.33	19597
893.452	19704
893.575	19772
893.697	19693
893.819	19879
893.941	19970
894.064	19898
894.186	19537
894.308	19666
894.43	19917
894.552	19795
894.674	19765
894.796	19594
894.918	19769
895.04	19632
895.161	19837
895.283	19788
895.405	19632
895.526	19578
895.648	19670
895.769	19727
895.891	19723
896.012	19761
896.134	19670
896.255	19689
896.376	19666
896.498	19666
896.619	19860
896.74	19765
896.861	19761
896.982	20058
897.103	20244
897.224	19997
897.345	19856
897.466	19830
897.587	19921
897.708	20077
897.828	20016
897.949	19913
898.07	19864
898.19	19860
898.311	19997
898.431	19928
898.552	20024
898.672	20012
898.792	19928
898.913	19894
899.033	19856
899.153	19715
899.273	19658
899.393	19708
899.513	19738
899.633	19719
899.753	19696
899.873	19704
899.993	19715
900.113	19609
900.232	19647
900.352	19597
900.472	19548
900.591	19392
900.711	19525
900.83	19400
900.95	19472
901.069	19430
901.189	19221
901.308	19171
901.427	19091
901.546	19091
901.665	19156
901.784	19061
901.904	18886
902.023	18821
902.141	18681
902.26	18589
902.379	18696
902.498	18521
902.617	18551
902.735	18608
902.854	18582
902.973	18532
903.091	18277
903.21	18129
903.328	18247
903.446	18133
903.565	18114
903.683	18083
903.801	18053
903.919	18083
904.038	17984
904.156	17832
904.274	17916
904.392	17882
904.51	17729
904.627	17904
904.745	17977
904.863	17859
904.981	17581
905.098	17558
905.216	17562
905.334	17539
905.451	17551
905.569	17478
905.686	17585
905.803	17611
905.921	17261
906.038	17429
906.155	17250
906.272	17197
906.389	17178
906.506	17075
906.623	17048
906.74	17022
906.857	16923
906.974	16927
907.091	17003
907.208	17109
907.324	17140
907.441	16949
907.557	16786
907.674	16713
907.79	16664
907.907	16740
908.023	16778
908.139	16801
908.256	16721
908.372	16656
908.488	16660
908.604	16508
908.72	16443
908.836	16504
908.952	16436
909.068	16432
909.184	16588
909.3	16516
909.415	16550
909.531	16535
909.647	16325
909.762	16230
909.878	16173
909.993	16284
910.108	16230
910.224	16185
910.339	16219
910.454	16044
910.57	16002
910.685	16021
910.8	16169
910.915	16158
911.03	16036
911.145	15915
911.259	15808
911.374	15994
911.489	15816
911.604	15713
911.718	15568
911.833	15580
911.947	15500
912.062	15462
912.176	15591
912.291	15606
912.405	15614
912.519	15781
912.633	15778
912.748	15641
912.862	15542
912.976	15405
913.09	15344
913.204	15367
913.318	15397
913.431	15553
913.545	15485
913.659	15500
913.772	15306
913.886	15157
914	15180
914.113	15321
914.226	15287
914.34	15184
914.453	15211
914.566	15226
914.68	15131
914.793	15085
914.906	14891
915.019	14857
915.132	14853
915.245	14811
915.358	14785
915.47	14883
915.583	14807
915.696	14861
915.809	14944
915.921	14891
916.034	14765
916.146	14693
916.259	14674
916.371	14849
916.483	14811
916.595	14739
916.708	14667
916.82	14720
916.932	14655
917.044	14602
917.156	14606
917.268	14469
917.38	14511
917.491	14571
917.603	14488
917.715	14602
917.826	14632
917.938	14492
918.049	14396
918.161	14408
918.272	14583
918.384	14568
918.495	14396
918.606	14210
918.717	14313
918.828	14271
918.939	14256
919.05	14206
919.161	14267
919.272	14043
919.383	14024
919.494	14256
919.604	14385
919.715	14278
919.826	14183
919.936	14180
920.047	14271
920.157	14202
920.267	14339
920.378	14145
920.488	14206
920.598	14381
920.708	14473
920.818	14355
920.928	14393
921.038	14454
921.148	14450
921.258	14271
921.368	14119
921.477	13967
921.587	13986
921.697	13894
921.806	13982
921.916	13772
922.025	13624
922.134	13643
922.244	13681
922.353	13658
922.462	13445
922.571	13430
922.68	13263
922.789	13194
922.898	13304
923.007	13183
923.116	13183
923.224	13266
923.333	13278
923.442	13183
923.55	12977
923.659	13152
923.767	13114
923.876	12973
923.984	13160
924.092	13000
924.201	13065
924.309	12977
924.417	13008
924.525	12951
924.633	12913
924.741	13890
924.849	12696
924.956	12882
925.064	12692
925.172	12620
925.279	12715
925.387	12601
925.494	12635
925.602	12932
925.709	12692
925.816	12608
925.924	12620
926.031	12745
926.138	12673
926.245	12722
926.352	12536
926.459	12669
926.566	12719
926.673	12574
926.779	12433
926.886	12513
926.993	12384
927.099	12258
927.206	12186
927.312	12213
927.419	12292
927.525	12289
927.631	12338
927.737	12175
927.843	12178
927.95	12038
928.056	12038
928.162	12133
928.267	12152
928.373	12631
928.479	12205
928.585	11870
928.69	12076
928.796	12038
928.901	12053
929.007	11874
929.112	11920
929.218	11866
929.323	11878
929.428	11855
929.533	11920
929.638	11741
929.743	11783
929.848	11767
929.953	11783
930.058	11775
930.163	11486
930.267	11516
930.372	11676
930.477	11505
930.581	11630
930.685	11611
930.79	11398
930.894	11474
930.998	11459
931.103	11490
931.207	11288
931.311	11075
931.415	10919
931.519	10900
931.623	10805
