Data from test_V78500241_1436.txt Node
Date: Fri Mar 25 15:19:51 CST 2022
User: usil
Spectrometer: V785-0024
Trigger mode: 0
Integration Time (sec): 4.000000E-1
Scans to average: 1
Nonlinearity correction enabled: false
Boxcar width: 0
Storing dark spectrum: false
XAxis mode: Wavelengths
Number of Pixels in Spectrum: 1024
>>>>>Begin Spectral Data<<<<<
801.071	28070
801.214	28025
801.356	27880
801.499	27728
801.641	27473
801.783	27629
801.926	27743
802.068	27667
802.211	27595
802.353	27587
802.496	27245
802.638	27169
802.78	27298
802.923	27119
803.065	27161
803.208	27192
803.35	27131
803.492	27408
803.635	27325
803.777	27363
803.919	27427
804.061	27713
804.204	27515
804.346	27340
804.488	27386
804.63	27568
804.773	27298
804.915	27466
805.057	27492
805.199	27450
805.341	27553
805.483	27770
805.626	27622
805.768	27526
805.91	27542
806.052	27523
806.194	27408
806.336	27892
806.478	27770
806.62	27580
806.762	27576
806.904	27816
807.046	28040
807.188	27975
807.33	28010
807.472	28105
807.614	28002
807.756	27842
807.898	27991
808.04	27743
808.182	27789
808.324	27922
808.465	27979
808.607	28169
808.749	28200
808.891	28303
809.033	28341
809.174	28185
809.316	28234
809.458	28367
809.6	28124
809.741	28424
809.883	28470
810.025	28531
810.166	28535
810.308	28466
810.45	28455
810.591	28516
810.733	28413
810.875	28196
811.016	27960
811.158	28063
811.299	28348
811.441	28401
811.582	28417
811.724	28226
811.865	28158
812.007	28306
812.148	28344
812.29	28314
812.431	28607
812.573	28584
812.714	28615
812.855	28744
812.997	28888
813.138	28976
813.279	29025
813.421	28740
813.562	28809
813.703	28497
813.845	28432
813.986	28280
814.127	28017
814.268	27953
814.41	27972
814.551	27972
814.692	28025
814.833	28013
814.974	27956
815.115	27911
815.256	27774
815.397	27918
815.539	27876
815.68	27819
815.821	27660
815.962	27816
816.103	27705
816.244	27625
816.385	27435
816.526	27564
816.666	27325
816.807	27325
816.948	27317
817.089	27291
817.23	27173
817.371	27184
817.512	27275
817.653	27188
817.793	27233
817.934	27230
818.075	27268
818.216	27173
818.356	27241
818.497	27211
818.638	26979
818.778	27085
818.919	27017
819.06	27150
819.2	27116
819.341	27294
819.481	27298
819.622	27443
819.762	27591
819.903	27618
820.043	27416
820.184	27397
820.324	27329
820.465	27473
820.605	27488
820.746	27272
820.886	27173
821.026	27374
821.167	27275
821.307	27500
821.447	27252
821.588	27138
821.728	26998
821.868	26952
822.008	26697
822.149	26583
822.289	26667
822.429	26461
822.569	26427
822.709	26427
822.849	26305
822.99	26229
823.13	26362
823.27	26111
823.41	25963
823.55	26092
823.69	26107
823.83	26024
823.97	26142
824.11	25875
824.25	25833
824.389	25788
824.529	25989
824.669	25833
824.809	26065
824.949	25879
825.089	25894
825.228	25890
825.368	25780
825.508	25689
825.648	25696
825.787	25738
825.927	25757
826.067	25670
826.206	25746
826.346	25738
826.485	25921
826.625	25791
826.765	25837
826.904	25685
827.044	25457
827.183	25529
827.323	25312
827.462	25521
827.601	25571
827.741	25403
827.88	25510
828.02	25335
828.159	25369
828.298	25559
828.437	25441
828.577	25411
828.716	25468
828.855	25266
828.994	25228
829.134	25065
829.273	25206
829.412	25244
829.551	25065
829.69	25175
829.829	25137
829.968	25251
830.107	25160
830.246	25076
830.385	25057
830.524	25126
830.663	25008
830.802	24966
830.941	24745
831.08	24711
831.219	24890
831.357	24806
831.496	25004
831.635	24833
831.774	24582
831.913	24654
832.051	24566
832.19	24597
832.329	24521
832.467	24563
832.606	24490
832.744	24422
832.883	24429
833.022	24422
833.16	24486
833.299	24475
833.437	24445
833.576	24563
833.714	24483
833.852	24547
833.991	24597
834.129	24646
834.267	24593
834.406	24555
834.544	24570
834.682	24464
834.821	24635
834.959	24559
835.097	24528
835.235	24410
835.373	24433
835.511	24410
835.65	24471
835.788	24289
835.926	24174
836.064	24232
836.202	24159
836.34	24429
836.478	24452
836.615	24296
836.753	24251
836.891	24346
837.029	24399
837.167	24289
837.305	24159
837.443	24201
837.58	24121
837.718	24144
837.856	24213
837.993	24064
838.131	24129
838.269	23969
838.406	24098
838.544	23935
838.681	23813
838.819	23923
838.956	23570
839.094	23642
839.231	23570
839.369	23809
839.506	24068
839.643	23794
839.781	23592
839.918	23585
840.055	23570
840.193	23520
840.33	23680
840.467	23467
840.604	23501
840.742	23798
840.879	23372
841.016	23493
841.153	23429
841.29	23467
841.427	23531
841.564	23596
841.701	23600
841.838	23474
841.975	23452
842.112	23440
842.249	23360
842.385	23292
842.522	23535
842.659	23299
842.796	23273
842.933	23307
843.069	23136
843.206	23303
843.343	23223
843.479	23265
843.616	23318
843.752	23064
843.889	23132
844.025	23216
844.162	23041
844.298	23147
844.435	22972
844.571	22968
844.708	23155
844.844	23231
844.98	23105
845.117	22972
845.253	22991
845.389	22953
845.525	22919
845.661	22965
845.798	22835
845.934	22911
846.07	22793
846.206	22801
846.342	22965
846.478	22740
846.614	22573
846.75	22550
846.886	22569
847.022	22527
847.158	22603
847.294	22542
847.429	22516
847.565	22459
847.701	22710
847.837	22295
847.972	22188
848.108	22295
848.244	22356
848.379	22226
848.515	22086
848.65	22070
848.786	22230
848.921	22150
849.057	22150
849.192	22211
849.328	22055
849.463	22150
849.598	22101
849.734	22067
849.869	21895
850.004	21816
850.14	21873
850.275	21880
850.41	21842
850.545	21709
850.68	21743
850.815	21983
850.95	21884
851.085	22013
851.22	22021
851.355	21888
851.49	21751
851.625	21838
851.76	21842
851.895	21713
852.03	21648
852.165	21816
852.299	21907
852.434	21888
852.569	21953
852.703	21899
852.838	21854
852.973	22006
853.107	21964
853.242	21781
853.376	21629
853.511	21648
853.645	21789
853.78	21835
853.914	21572
854.048	21648
854.183	21641
854.317	21766
854.451	21804
854.585	21667
854.72	21736
854.854	21690
854.988	21614
855.122	21667
855.256	21523
855.39	21736
855.524	21804
855.658	21705
855.792	21690
855.926	21793
856.06	21747
856.194	21618
856.327	21667
856.461	21648
856.595	21572
856.729	21778
856.862	21724
856.996	21743
857.13	21720
857.263	21888
857.397	21797
857.53	21720
857.664	21701
857.797	21667
857.931	21739
858.064	21663
858.197	21903
858.331	21644
858.464	21686
858.597	21542
858.731	21614
858.864	21603
858.997	21538
859.13	21686
859.263	21682
859.396	21751
859.529	21671
859.662	21686
859.795	21572
859.928	21705
860.061	21770
860.194	21983
860.327	21751
860.46	21766
860.592	21766
860.725	21907
860.858	21831
860.99	21614
861.123	21488
861.256	21606
861.388	21656
861.521	22348
861.653	21564
861.786	21428
861.918	21545
862.05	21549
862.183	21732
862.315	21705
862.447	21641
862.58	21682
862.712	21408
862.844	21348
862.976	21519
863.108	21519
863.24	21671
863.372	21302
863.504	21473
863.636	21424
863.768	21420
863.9	21378
864.032	21401
864.164	21283
864.296	21439
864.428	21583
864.559	21397
864.691	21507
864.823	21367
864.954	21397
865.086	21469
865.217	21214
865.349	21302
865.48	21298
865.612	21146
865.743	21382
865.875	21306
866.006	21214
866.137	21298
866.269	21192
866.4	21192
866.531	21195
866.662	21165
866.793	21169
866.924	21192
867.055	21195
867.186	21233
867.317	21142
867.448	21207
867.579	21230
867.71	21138
867.841	21123
867.972	21226
868.103	21287
868.233	21192
868.364	21188
868.495	21230
868.625	21374
868.756	21538
868.886	21443
869.017	21507
869.147	21420
869.278	21511
869.408	21538
869.539	21405
869.669	21466
869.799	21542
869.929	21542
870.06	21530
870.19	21797
870.32	21766
870.45	21831
870.58	21907
870.71	22017
870.84	21926
870.97	21827
871.1	21808
871.23	22006
871.36	22082
871.489	21888
871.619	21998
871.749	22116
871.879	22124
872.008	22166
872.138	22082
872.267	22032
872.397	21835
872.526	21781
872.656	21888
872.785	21876
872.915	22032
873.044	22177
873.173	21918
873.303	22055
873.432	22143
873.561	22162
873.69	22055
873.819	22059
873.948	22067
874.077	21964
874.206	21994
874.335	22124
874.464	22105
874.593	22329
874.722	22238
874.851	22310
874.979	22333
875.108	22390
875.237	22249
875.365	22116
875.494	22154
875.623	22451
875.751	22177
875.88	22230
876.008	22337
876.136	22485
876.265	22588
876.393	22790
876.521	22782
876.65	22839
876.778	22782
876.906	22546
877.034	22504
877.162	22668
877.29	22637
877.418	22630
877.546	22561
877.674	22615
877.802	22626
877.93	22577
878.058	22618
878.185	22573
878.313	22675
878.441	22637
878.568	22493
878.696	22592
878.824	22512
878.951	22672
879.079	22793
879.206	22858
879.333	22706
879.461	22546
879.588	22626
879.715	22790
879.842	22869
879.97	22649
880.097	22341
880.224	22291
880.351	22523
880.478	22367
880.605	22375
880.732	22424
880.859	22584
880.986	22466
881.112	22440
881.239	22367
881.366	22040
881.493	21953
881.619	22013
881.746	22067
881.872	21953
881.999	21949
882.125	21941
882.252	21994
882.378	21972
882.505	22006
882.631	21793
882.757	21816
882.883	21660
883.01	21648
883.136	21781
883.262	21622
883.388	21511
883.514	21671
883.64	21675
883.766	21561
883.892	21462
884.018	21496
884.143	21671
884.269	21709
884.395	21454
884.52	21329
884.646	21332
884.772	21279
884.897	21165
885.023	21378
885.148	21397
885.274	21466
885.399	21481
885.524	21283
885.65	21321
885.775	21370
885.9	21214
886.025	21519
886.15	21393
886.275	21313
886.4	21131
886.525	21348
886.65	21218
886.775	21203
886.9	21310
887.025	21428
887.149	21272
887.274	21093
887.399	21127
887.523	21127
887.648	21001
887.773	20921
887.897	21119
888.021	21176
888.146	21135
888.27	21203
888.395	21161
888.519	21165
888.643	21161
888.767	21150
888.891	20838
889.015	20777
889.139	20990
889.263	20849
889.387	20937
889.511	21047
889.635	21051
889.759	20883
889.883	20785
890.006	20929
890.13	20941
890.254	20807
890.377	20788
890.501	20705
890.624	20731
890.748	20701
890.871	20450
890.995	20434
891.118	20457
891.241	20457
891.364	20492
891.488	20617
891.611	20374
891.734	20446
891.857	20419
891.98	20556
892.103	20549
892.226	20366
892.349	20385
892.471	20282
892.594	20442
892.717	20317
892.839	20298
892.962	20305
893.085	20267
893.207	20294
893.33	20259
893.452	20351
893.575	20320
893.697	20336
893.819	20484
893.941	20575
894.064	20503
894.186	20267
894.308	20305
894.43	20507
894.552	20503
894.674	20423
894.796	20202
894.918	20256
895.04	20332
895.161	20469
895.283	20511
895.405	20218
895.526	20324
895.648	20423
895.769	20298
895.891	20408
896.012	20400
896.134	20454
896.255	20263
896.376	20328
896.498	20317
896.619	20343
896.74	20256
896.861	20396
896.982	20659
897.103	20811
897.224	20686
897.345	20602
897.466	20465
897.587	20530
897.708	20617
897.828	20503
897.949	20446
898.07	20389
898.19	20465
898.311	20537
898.431	20541
898.552	20583
898.672	20693
898.792	20686
898.913	20537
899.033	20385
899.153	20438
899.273	20248
899.393	20320
899.513	20393
899.633	20309
899.753	20347
899.873	20256
899.993	20259
900.113	20202
900.232	20282
900.352	20259
900.472	20275
900.591	20115
900.711	20103
900.83	20153
900.95	20206
901.069	20084
901.189	19970
901.308	19666
901.427	19655
901.546	19613
901.665	19670
901.784	19647
901.904	19578
902.023	19552
902.141	19217
902.26	19156
902.379	19324
902.498	19190
902.617	19190
902.735	19221
902.854	19050
902.973	19088
903.091	18825
903.21	18844
903.328	18749
903.446	18715
903.565	18661
903.683	18719
903.801	18467
903.919	18551
904.038	18608
904.156	18407
904.274	18464
904.392	18422
904.51	18429
904.627	18433
904.745	18441
904.863	18467
904.981	18224
905.098	18076
905.216	18171
905.334	18076
905.451	18076
905.569	18011
905.686	18064
905.803	17977
905.921	17897
906.038	17965
906.155	17897
906.272	17779
906.389	17851
906.506	17691
906.623	17707
906.74	17524
906.857	17493
906.974	17512
907.091	17695
907.208	17729
907.324	17646
907.441	17520
907.557	17376
907.674	17242
907.79	17303
907.907	17246
908.023	17372
908.139	17296
908.256	17223
908.372	17223
908.488	17166
908.604	16999
908.72	17136
908.836	16938
908.952	16999
909.068	17056
909.184	17132
909.3	17014
909.415	17075
909.531	17071
909.647	16740
909.762	16812
909.878	16626
909.993	16626
910.108	16778
910.224	16656
910.339	16668
910.454	16588
910.57	16481
910.685	16363
910.8	16752
910.915	16626
911.03	16550
911.145	16417
911.259	16360
911.374	16360
911.489	16238
911.604	16238
911.718	16013
911.833	16036
911.947	15949
912.062	15892
912.176	16025
912.291	16082
912.405	16032
912.519	16200
912.633	16246
912.748	16215
912.862	16025
912.976	15884
913.09	15690
913.204	15880
913.318	15892
913.431	15945
913.545	15854
913.659	15899
913.772	15774
913.886	15614
914	15679
914.113	15823
914.226	15800
914.34	15736
914.453	15637
914.566	15614
914.68	15572
914.793	15553
914.906	15317
915.019	15272
915.132	15230
915.245	15226
915.358	15279
915.47	15272
915.583	15283
915.696	15230
915.809	15412
915.921	15344
916.034	15173
916.146	15256
916.259	15116
916.371	15279
916.483	15192
916.595	15146
916.708	15112
916.82	15176
916.932	15043
917.044	15039
917.156	15116
917.268	14921
917.38	14971
917.491	14861
917.603	14857
917.715	15013
917.826	15070
917.938	14811
918.049	14826
918.161	14838
918.272	15005
918.384	14967
918.495	14906
918.606	14701
918.717	14678
918.828	14659
918.939	14693
919.05	14541
919.161	14708
919.272	14423
919.383	14530
919.494	14727
919.604	14804
919.715	14579
919.826	14629
919.936	14655
920.047	14613
920.157	14590
920.267	14785
920.378	14663
920.488	14663
920.598	14712
920.708	15017
920.818	14739
920.928	14804
921.038	14998
921.148	14796
921.258	14663
921.368	14484
921.477	14389
921.587	14431
921.697	14164
921.806	14412
921.916	14225
922.025	14126
922.134	13986
922.244	13921
922.353	14054
922.462	13955
922.571	13803
922.68	13693
922.789	13734
922.898	13712
923.007	13628
923.116	13696
923.224	13590
923.333	13624
923.442	13457
923.55	13480
923.659	13460
923.767	13559
923.876	13441
923.984	13540
924.092	13350
924.201	13415
924.309	13434
924.417	13426
924.525	13365
924.633	13426
924.741	14077
924.849	13110
924.956	13247
925.064	13050
925.172	13012
925.279	13008
925.387	13080
925.494	13099
925.602	13099
925.709	13126
925.816	12962
925.924	13012
926.031	13133
926.138	13114
926.245	13069
926.352	12840
926.459	13114
926.566	13076
926.673	12943
926.779	12802
926.886	12719
926.993	12700
927.099	12620
927.206	12597
927.312	12555
927.419	12646
927.525	12612
927.631	12635
927.737	12681
927.843	12555
927.95	12315
928.056	12452
928.162	12509
928.267	12429
928.373	12875
928.479	12464
928.585	12228
928.69	12369
928.796	12486
928.901	12311
929.007	12136
929.112	12422
929.218	12228
929.323	12220
929.428	12133
929.533	12285
929.638	12091
929.743	12117
929.848	12197
929.953	12155
930.058	12087
930.163	11779
930.267	11790
930.372	12072
930.477	11840
930.581	12110
930.685	11851
930.79	11779
930.894	11718
930.998	11748
931.103	11889
931.207	11493
931.311	11421
931.415	11364
931.519	11113
931.623	11136
