Data from test_V78500241_3284.txt Node
Date: Fri Mar 25 15:32:43 CST 2022
User: usil
Spectrometer: V785-0024
Trigger mode: 0
Integration Time (sec): 4.000000E-1
Scans to average: 1
Nonlinearity correction enabled: false
Boxcar width: 0
Storing dark spectrum: false
XAxis mode: Wavelengths
Number of Pixels in Spectrum: 1024
>>>>>Begin Spectral Data<<<<<
801.071	27214
801.214	27195
801.356	27024
801.499	26963
801.641	26796
801.783	26849
801.926	26906
802.068	26880
802.211	26807
802.353	26727
802.496	26511
802.638	26332
802.78	26396
802.923	26347
803.065	26244
803.208	26343
803.35	26450
803.492	26571
803.635	26712
803.777	26408
803.919	26533
804.061	26921
804.204	26629
804.346	26575
804.488	26499
804.63	26438
804.773	26602
804.915	26511
805.057	26651
805.199	26556
805.341	26617
805.483	26792
805.626	26644
805.768	26788
805.91	26682
806.052	26727
806.194	26549
806.336	26883
806.478	26598
806.62	26689
806.762	26819
806.904	26975
807.046	27272
807.188	27123
807.33	27150
807.472	27058
807.614	27146
807.756	26982
807.898	26925
808.04	26853
808.182	26746
808.324	27017
808.465	26948
808.607	27184
808.749	27317
808.891	27367
809.033	27340
809.174	27321
809.316	27184
809.458	27230
809.6	27100
809.741	27500
809.883	27515
810.025	27595
810.166	27583
810.308	27637
810.45	27610
810.591	27332
810.733	27420
810.875	27298
811.016	27252
811.158	27093
811.299	27321
811.441	27435
811.582	27332
811.724	27397
811.865	27272
812.007	27283
812.148	27321
812.29	27226
812.431	27344
812.573	27568
812.714	27728
812.855	27713
812.997	27797
813.138	27914
813.279	27854
813.421	27914
813.562	27705
813.703	27595
813.845	27469
813.986	27116
814.127	27089
814.268	27062
814.41	26929
814.551	26838
814.692	27135
814.833	26906
814.974	26868
815.115	26921
815.256	26853
815.397	26796
815.539	26868
815.68	26750
815.821	26629
815.962	26807
816.103	26705
816.244	26533
816.385	26461
816.526	26476
816.666	26358
816.807	26134
816.948	26400
817.089	26263
817.23	26233
817.371	26244
817.512	26077
817.653	26225
817.793	26092
817.934	26278
818.075	26278
818.216	26278
818.356	26077
818.497	26050
818.638	25940
818.778	25898
818.919	25856
819.06	25974
819.2	26050
819.341	26187
819.481	26092
819.622	26286
819.762	26533
819.903	26473
820.043	26484
820.184	26351
820.324	26237
820.465	26427
820.605	26229
820.746	26290
820.886	26183
821.026	26225
821.167	26351
821.307	26294
821.447	26237
821.588	26084
821.728	25925
821.868	25841
822.008	25772
822.149	25609
822.289	25666
822.429	25499
822.569	25449
822.709	25388
822.849	25236
822.99	25236
823.13	25076
823.27	25031
823.41	24951
823.55	24954
823.69	24973
823.83	24913
823.97	25012
824.11	24631
824.25	24745
824.389	24760
824.529	24753
824.669	24882
824.809	24924
824.949	24810
825.089	24760
825.228	24677
825.368	24578
825.508	24696
825.648	24696
825.787	24726
825.927	24798
826.067	24684
826.206	24639
826.346	24547
826.485	24745
826.625	24715
826.765	24726
826.904	24669
827.044	24456
827.183	24528
827.323	24311
827.462	24532
827.601	24418
827.741	24479
827.88	24365
828.02	24323
828.159	24228
828.298	24418
828.437	24445
828.577	24414
828.716	24365
828.855	24330
828.994	24148
829.134	23984
829.273	24136
829.412	24117
829.551	23988
829.69	24163
829.829	24110
829.968	24178
830.107	24171
830.246	24053
830.385	24015
830.524	23904
830.663	23859
830.802	23805
830.941	23756
831.08	23707
831.219	23786
831.357	23729
831.496	23912
831.635	23707
831.774	23653
831.913	23570
832.051	23642
832.19	23467
832.329	23528
832.467	23360
832.606	23341
832.744	23170
832.883	23330
833.022	23299
833.16	23334
833.299	23497
833.437	23463
833.576	23490
833.714	23482
833.852	23524
833.991	23551
834.129	23512
834.267	23535
834.406	23364
834.544	23623
834.682	23444
834.821	23440
834.959	23646
835.097	23364
835.235	23440
835.373	23535
835.511	23482
835.65	23315
835.788	23318
835.926	23200
836.064	23269
836.202	23265
836.34	23280
836.478	23421
836.615	23220
836.753	23235
836.891	23433
837.029	23315
837.167	23258
837.305	23204
837.443	23037
837.58	23140
837.718	23117
837.856	23231
837.993	23105
838.131	23284
838.269	23109
838.406	23075
838.544	22999
838.681	22831
838.819	22812
838.956	22531
839.094	22603
839.231	22733
839.369	22843
839.506	23003
839.643	22873
839.781	22649
839.918	22641
840.055	22573
840.193	22500
840.33	22588
840.467	22626
840.604	22679
840.742	22873
840.879	22527
841.016	22542
841.153	22569
841.29	22664
841.427	22455
841.564	22630
841.701	22459
841.838	22516
841.975	22569
842.112	22500
842.249	22432
842.385	22432
842.522	22573
842.659	22390
842.796	22318
842.933	22280
843.069	22169
843.206	22379
843.343	22394
843.479	22344
843.616	22398
843.752	22173
843.889	22112
844.025	22284
844.162	22044
844.298	22246
844.435	22116
844.571	22025
844.708	22074
844.844	22234
844.98	22207
845.117	22082
845.253	21979
845.389	21911
845.525	21968
845.661	21922
845.798	21743
845.934	21926
846.07	21774
846.206	21873
846.342	22017
846.478	21899
846.614	21595
846.75	21519
846.886	21549
847.022	21698
847.158	21663
847.294	21667
847.429	21618
847.565	21507
847.701	21850
847.837	21310
847.972	21241
848.108	21348
848.244	21363
848.379	21184
848.515	21161
848.65	21184
848.786	21203
848.921	21226
849.057	21325
849.192	21226
849.328	21108
849.463	21203
849.598	21165
849.734	21024
849.869	21043
850.004	20967
850.14	20861
850.275	21047
850.41	20899
850.545	20864
850.68	20895
850.815	20880
850.95	20861
851.085	21116
851.22	21096
851.355	20933
851.49	20925
851.625	20868
851.76	20967
851.895	20921
852.03	20762
852.165	20975
852.299	21055
852.434	21058
852.569	20845
852.703	20967
852.838	20872
852.973	21093
853.107	21043
853.242	20781
853.376	20743
853.511	20674
853.645	20731
853.78	20921
853.914	20686
854.048	20724
854.183	20727
854.317	20842
854.451	20887
854.585	20765
854.72	20754
854.854	20891
854.988	20762
855.122	20735
855.256	20598
855.39	20758
855.524	20819
855.658	20807
855.792	20834
855.926	20819
856.06	20811
856.194	20868
856.327	20689
856.461	20674
856.595	20758
856.729	20712
856.862	20815
856.996	20731
857.13	20811
857.263	20925
857.397	20876
857.53	20743
857.664	20754
857.797	20895
857.931	20948
858.064	20880
858.197	20864
858.331	20743
858.464	20651
858.597	20594
858.731	20769
858.864	20826
858.997	20746
859.13	20815
859.263	20842
859.396	20880
859.529	20727
859.662	20765
859.795	20682
859.928	20762
860.061	20941
860.194	20963
860.327	20823
860.46	20682
860.592	20971
860.725	20944
860.858	20842
860.99	20804
861.123	20788
861.256	20705
861.388	20750
861.521	21329
861.653	20625
861.786	20545
861.918	20583
862.05	20697
862.183	20651
862.315	20758
862.447	20792
862.58	20853
862.712	20511
862.844	20484
862.976	20594
863.108	20590
863.24	20998
863.372	20499
863.504	20511
863.636	20583
863.768	20594
863.9	20613
864.032	20442
864.164	20530
864.296	20552
864.428	20621
864.559	20648
864.691	20518
864.823	20526
864.954	20434
865.086	20450
865.217	20366
865.349	20237
865.48	20473
865.612	20290
865.743	20545
865.875	20438
866.006	20412
866.137	20434
866.269	20404
866.4	20290
866.531	20271
866.662	20290
866.793	20309
866.924	20457
867.055	20301
867.186	20309
867.317	20271
867.448	20229
867.579	20336
867.71	20229
867.841	20256
867.972	20336
868.103	20336
868.233	20301
868.364	20298
868.495	20457
868.625	20549
868.756	20590
868.886	20431
869.017	20533
869.147	20659
869.278	20689
869.408	20583
869.539	20564
869.669	20606
869.799	20667
869.929	20708
870.06	20705
870.19	20845
870.32	20823
870.45	20838
870.58	20899
870.71	21100
870.84	21005
870.97	20925
871.1	20994
871.23	21104
871.36	21176
871.489	21108
871.619	21116
871.749	21260
871.879	21108
872.008	21169
872.138	21203
872.267	21055
872.397	21047
872.526	20963
872.656	20937
872.785	21157
872.915	21291
873.044	21218
873.173	21195
873.303	21279
873.432	21146
873.561	21329
873.69	21226
873.819	21138
873.948	21237
874.077	21176
874.206	20960
874.335	21184
874.464	21378
874.593	21416
874.722	21374
874.851	21644
874.979	21374
875.108	21515
875.237	21370
875.365	21348
875.494	21504
875.623	21530
875.751	21401
875.88	21515
876.008	21625
876.136	21534
876.265	21781
876.393	22013
876.521	21998
876.65	21930
876.778	21892
876.906	21759
877.034	21789
877.162	21804
877.29	21709
877.418	21861
877.546	21789
877.674	21797
877.802	21857
877.93	21808
878.058	21728
878.185	21648
878.313	21743
878.441	21747
878.568	21622
878.696	21698
878.824	21823
878.951	21850
879.079	21930
879.206	21968
879.333	21922
879.461	21880
879.588	21998
879.715	21926
879.842	22048
879.97	21785
880.097	21694
880.224	21652
880.351	21656
880.478	21603
880.605	21576
880.732	21663
880.859	21785
880.986	21751
881.112	21610
881.239	21458
881.366	21332
881.493	21237
881.619	21249
881.746	21218
881.872	21131
881.999	21150
882.125	21066
882.252	21233
882.378	21123
882.505	21237
882.631	21142
882.757	21017
882.883	20952
883.01	20910
883.136	20910
883.262	20670
883.388	20712
883.514	20971
883.64	20864
883.766	20716
883.892	20686
884.018	20693
884.143	20815
884.269	20933
884.395	20545
884.52	20533
884.646	20522
884.772	20541
884.897	20541
885.023	20617
885.148	20583
885.274	20632
885.399	20651
885.524	20549
885.65	20568
885.775	20590
885.9	20568
886.025	20594
886.15	20609
886.275	20450
886.4	20564
886.525	20549
886.65	20507
886.775	20613
886.9	20575
887.025	20678
887.149	20454
887.274	20419
887.399	20221
887.523	20370
887.648	20237
887.773	20294
887.897	20343
888.021	20393
888.146	20180
888.27	20339
888.395	20434
888.519	20275
888.643	20267
888.767	20351
888.891	20210
889.015	20107
889.139	20206
889.263	20077
889.387	20240
889.511	20351
889.635	20263
889.759	20157
889.883	20050
890.006	20168
890.13	20187
890.254	19997
890.377	20092
890.501	19944
890.624	19841
890.748	19967
890.871	19712
890.995	19635
891.118	19742
891.241	19791
891.364	19791
891.488	19826
891.611	19731
891.734	19670
891.857	19791
891.98	19693
892.103	19757
892.226	19761
892.349	19609
892.471	19449
892.594	19662
892.717	19719
892.839	19590
892.962	19586
893.085	19696
893.207	19670
893.33	19480
893.452	19525
893.575	19727
893.697	19632
893.819	19875
893.941	19742
894.064	19795
894.186	19609
894.308	19571
894.43	19776
894.552	19761
894.674	19620
894.796	19472
894.918	19651
895.04	19655
895.161	19696
895.283	19765
895.405	19487
895.526	19620
895.648	19552
895.769	19567
895.891	19643
896.012	19693
896.134	19677
896.255	19670
896.376	19540
896.498	19620
896.619	19651
896.74	19666
896.861	19651
896.982	19879
897.103	20035
897.224	19921
897.345	19974
897.466	19860
897.587	19818
897.708	19856
897.828	19951
897.949	19776
898.07	19624
898.19	19635
898.311	19940
898.431	19715
898.552	19826
898.672	19978
898.792	19890
898.913	19917
899.033	19681
899.153	19708
899.273	19590
899.393	19620
899.513	19780
899.633	19677
899.753	19635
899.873	19464
899.993	19685
900.113	19495
900.232	19544
900.352	19567
900.472	19392
900.591	19434
900.711	19457
900.83	19354
900.95	19483
901.069	19472
901.189	19362
901.308	19031
901.427	18958
901.546	19114
901.665	18951
901.784	18993
901.904	18798
902.023	18779
902.141	18525
902.26	18544
902.379	18582
902.498	18399
902.617	18418
902.735	18540
902.854	18479
902.973	18414
903.091	18148
903.21	18186
903.328	18129
903.446	18091
903.565	18053
903.683	17984
903.801	17775
903.919	17882
904.038	17817
904.156	17809
904.274	17802
904.392	17726
904.51	17760
904.627	17786
904.745	17771
904.863	17726
904.981	17539
905.098	17463
905.216	17383
905.334	17535
905.451	17379
905.569	17398
905.686	17516
905.803	17433
905.921	17143
906.038	17303
906.155	17292
906.272	17159
906.389	17181
906.506	16915
906.623	17121
906.74	16919
906.857	16972
906.974	16877
907.091	17003
907.208	17086
907.324	16904
907.441	16839
907.557	16763
907.674	16725
907.79	16611
907.907	16634
908.023	16755
908.139	16805
908.256	16565
908.372	16592
908.488	16523
908.604	16493
908.72	16337
908.836	16402
908.952	16436
909.068	16417
909.184	16451
909.3	16428
909.415	16432
909.531	16386
909.647	16135
909.762	16147
909.878	16120
909.993	16185
910.108	16143
910.224	16032
910.339	16158
910.454	16112
910.57	15968
910.685	15888
910.8	16169
910.915	16032
911.03	15888
911.145	15797
911.259	15641
911.374	15751
911.489	15713
911.604	15595
911.718	15530
911.833	15492
911.947	15447
912.062	15359
912.176	15481
912.291	15519
912.405	15606
912.519	15671
912.633	15675
912.748	15507
912.862	15447
912.976	15340
913.09	15218
913.204	15332
913.318	15386
913.431	15310
913.545	15374
913.659	15382
913.772	15222
913.886	15207
914	15051
914.113	15192
914.226	15245
914.34	15195
914.453	15020
914.566	15043
914.68	15032
914.793	14899
914.906	14701
915.019	14830
915.132	14648
915.245	14689
915.358	14792
915.47	14674
915.583	14648
915.696	14697
915.809	14769
915.921	14834
916.034	14674
916.146	14610
916.259	14571
916.371	14781
916.483	14705
916.595	14514
916.708	14625
916.82	14594
916.932	14541
917.044	14480
917.156	14480
917.268	14476
917.38	14495
917.491	14343
917.603	14434
917.715	14446
917.826	14385
917.938	14336
918.049	14252
918.161	14374
918.272	14484
918.384	14408
918.495	14339
918.606	14202
918.717	14172
918.828	14153
918.939	14298
919.05	14012
919.161	14191
919.272	13974
919.383	14054
919.494	14145
919.604	14385
919.715	14153
919.826	14069
919.936	14168
920.047	14191
920.157	14073
920.267	14248
920.378	14237
920.488	14058
920.598	14214
920.708	14469
920.818	14263
920.928	14225
921.038	14465
921.148	14339
921.258	14134
921.368	13974
921.477	13917
921.587	13860
921.697	13693
921.806	13902
921.916	13693
922.025	13556
922.134	13597
922.244	13578
922.353	13487
922.462	13472
922.571	13438
922.68	13251
922.789	13164
922.898	13164
923.007	13129
923.116	13156
923.224	13206
923.333	13247
923.442	13000
923.55	13008
923.659	13008
923.767	13034
923.876	13034
923.984	13053
924.092	12844
924.201	12962
924.309	12871
924.417	12928
924.525	12886
924.633	12833
924.741	13849
924.849	12620
924.956	12768
925.064	12658
925.172	12483
925.279	12601
925.387	12601
925.494	12506
925.602	12719
925.709	12582
925.816	12460
925.924	12467
926.031	12620
926.138	12616
926.245	12528
926.352	12467
926.459	12528
926.566	12566
926.673	12479
926.779	12346
926.886	12281
926.993	12262
927.099	12228
927.206	12152
927.312	12155
927.419	12213
927.525	12262
927.631	12194
927.737	12038
927.843	12079
927.95	11916
928.056	11973
928.162	11984
928.267	12117
928.373	12631
928.479	12114
928.585	11824
928.69	11927
928.796	11980
928.901	11908
929.007	11691
929.112	11828
929.218	11813
929.323	11733
929.428	11733
929.533	11851
929.638	11649
929.743	11691
929.848	11699
929.953	11691
930.058	11486
930.163	11395
930.267	11429
930.372	11566
930.477	11379
930.581	11596
930.685	11486
930.79	11360
930.894	11311
930.998	11376
931.103	11421
931.207	11010
931.311	11029
931.415	10911
931.519	10847
931.623	10653
