Data from test_V78500241_1327.txt Node
Date: Fri Mar 25 15:19:05 CST 2022
User: usil
Spectrometer: V785-0024
Trigger mode: 0
Integration Time (sec): 4.000000E-1
Scans to average: 1
Nonlinearity correction enabled: false
Boxcar width: 0
Storing dark spectrum: false
XAxis mode: Wavelengths
Number of Pixels in Spectrum: 1024
>>>>>Begin Spectral Data<<<<<
801.071	28010
801.214	28120
801.356	27736
801.499	27694
801.641	27599
801.783	27534
801.926	27599
802.068	27553
802.211	27564
802.353	27424
802.496	27169
802.638	27374
802.78	27241
802.923	27184
803.065	27024
803.208	27275
803.35	27077
803.492	27310
803.635	27576
803.777	27439
803.919	27427
804.061	27785
804.204	27393
804.346	27435
804.488	27545
804.63	27389
804.773	27450
804.915	27485
805.057	27633
805.199	27553
805.341	27644
805.483	27610
805.626	27538
805.768	27462
805.91	27606
806.052	27667
806.194	27583
806.336	27728
806.478	27793
806.62	27633
806.762	27644
806.904	27831
807.046	28143
807.188	28086
807.33	27945
807.472	27975
807.614	28029
807.756	27964
807.898	27884
808.04	27873
808.182	27819
808.324	27918
808.465	27968
808.607	27983
808.749	28234
808.891	28360
809.033	28261
809.174	28268
809.316	28253
809.458	28158
809.6	28341
809.741	28348
809.883	28401
810.025	28577
810.166	28440
810.308	28569
810.45	28497
810.591	28504
810.733	28215
810.875	28215
811.016	28177
811.158	28025
811.299	28371
811.441	28341
811.582	28363
811.724	28329
811.865	28257
812.007	28230
812.148	28344
812.29	28440
812.431	28489
812.573	28603
812.714	28694
812.855	28839
812.997	28908
813.138	29064
813.279	28816
813.421	28930
813.562	28733
813.703	28577
813.845	28519
813.986	28204
814.127	28154
814.268	28109
814.41	27960
814.551	27941
814.692	27968
814.833	28029
814.974	27873
815.115	28059
815.256	27892
815.397	27728
815.539	27816
815.68	27739
815.821	27778
815.962	27850
816.103	27705
816.244	27572
816.385	27564
816.526	27530
816.666	27275
816.807	27184
816.948	27412
817.089	27287
817.23	27389
817.371	27283
817.512	27142
817.653	27249
817.793	27142
817.934	27264
818.075	27378
818.216	27298
818.356	27275
818.497	27100
818.638	27119
818.778	27051
818.919	27020
819.06	27264
819.2	27081
819.341	27230
819.481	27161
819.622	27336
819.762	27583
819.903	27564
820.043	27469
820.184	27355
820.324	27447
820.465	27332
820.605	27431
820.746	27374
820.886	27291
821.026	27397
821.167	27374
821.307	27355
821.447	27359
821.588	27184
821.728	27108
821.868	26864
822.008	26819
822.149	26750
822.289	26613
822.429	26495
822.569	26415
822.709	26317
822.849	26408
822.99	26248
823.13	26180
823.27	26183
823.41	26043
823.55	25955
823.69	26058
823.83	26100
823.97	26096
824.11	26020
824.25	25940
824.389	25868
824.529	26024
824.669	25917
824.809	25974
824.949	25928
825.089	25966
825.228	25788
825.368	25746
825.508	25852
825.648	25784
825.787	25833
825.927	25814
826.067	25681
826.206	25818
826.346	25890
826.485	25753
826.625	25674
826.765	25864
826.904	25856
827.044	25590
827.183	25632
827.323	25373
827.462	25514
827.601	25396
827.741	25460
827.88	25521
828.02	25422
828.159	25392
828.298	25464
828.437	25586
828.577	25422
828.716	25392
828.855	25479
828.994	25217
829.134	25168
829.273	25247
829.412	25103
829.551	24966
829.69	25042
829.829	25316
829.968	25350
830.107	25221
830.246	25164
830.385	25050
830.524	25103
830.663	25069
830.802	24905
830.941	24764
831.08	24829
831.219	24901
831.357	24852
831.496	25019
831.635	24764
831.774	24783
831.913	24764
832.051	24551
832.19	24544
832.329	24559
832.467	24532
832.606	24517
832.744	24528
832.883	24502
833.022	24426
833.16	24372
833.299	24505
833.437	24505
833.576	24452
833.714	24521
833.852	24540
833.991	24540
834.129	24578
834.267	24544
834.406	24517
834.544	24525
834.682	24471
834.821	24418
834.959	24631
835.097	24388
835.235	24509
835.373	24509
835.511	24467
835.65	24350
835.788	24334
835.926	24220
836.064	24194
836.202	24167
836.34	24346
836.478	24410
836.615	24308
836.753	24399
836.891	24429
837.029	24365
837.167	24292
837.305	24292
837.443	24224
837.58	24155
837.718	24190
837.856	24311
837.993	24213
838.131	24281
838.269	23992
838.406	24064
838.544	23980
838.681	23855
838.819	23897
838.956	23657
839.094	23684
839.231	23547
839.369	23741
839.506	23969
839.643	24015
839.781	23642
839.918	23611
840.055	23668
840.193	23703
840.33	23539
840.467	23581
840.604	23589
840.742	23786
840.879	23436
841.016	23608
841.153	23425
841.29	23729
841.427	23505
841.564	23680
841.701	23531
841.838	23539
841.975	23387
842.112	23547
842.249	23341
842.385	23178
842.522	23535
842.659	23227
842.796	23318
842.933	23368
843.069	23258
843.206	23383
843.343	23296
843.479	23299
843.616	23185
843.752	23170
843.889	23174
844.025	23269
844.162	23022
844.298	23239
844.435	23029
844.571	23235
844.708	23200
844.844	23337
844.98	23326
845.117	23147
845.253	22961
845.389	22930
845.525	22957
845.661	22892
845.798	22793
845.934	22953
846.07	22900
846.206	22991
846.342	22965
846.478	22862
846.614	22504
846.75	22645
846.886	22588
847.022	22615
847.158	22679
847.294	22580
847.429	22675
847.565	22618
847.701	22725
847.837	22371
847.972	22299
848.108	22500
848.244	22314
848.379	22139
848.515	22166
848.65	22207
848.786	22230
848.921	22120
849.057	22367
849.192	22173
849.328	22200
849.463	22093
849.598	22109
849.734	21987
849.869	22067
850.004	21937
850.14	21907
850.275	21956
850.41	21793
850.545	21797
850.68	21941
850.815	21842
850.95	21987
851.085	22090
851.22	22010
851.355	21827
851.49	21797
851.625	21846
851.76	21941
851.895	21846
852.03	21854
852.165	21854
852.299	21941
852.434	21964
852.569	21987
852.703	21964
852.838	22051
852.973	21956
853.107	22109
853.242	21899
853.376	21876
853.511	21743
853.645	21759
853.78	21854
853.914	21869
854.048	21656
854.183	21778
854.317	21641
854.451	22051
854.585	21667
854.72	21724
854.854	21842
854.988	21663
855.122	21724
855.256	21564
855.39	21686
855.524	21793
855.658	21804
855.792	21797
855.926	21755
856.06	21899
856.194	21930
856.327	21774
856.461	21629
856.595	21736
856.729	21823
856.862	21747
856.996	21720
857.13	21838
857.263	21854
857.397	21774
857.53	21603
857.664	21698
857.797	21842
857.931	21861
858.064	21682
858.197	21930
858.331	21774
858.464	21622
858.597	21587
858.731	21770
858.864	21637
858.997	21667
859.13	21774
859.263	21663
859.396	21819
859.529	21656
859.662	21759
859.795	21663
859.928	21705
860.061	21785
860.194	22067
860.327	21720
860.46	21724
860.592	21819
860.725	21850
860.858	21865
860.99	21762
861.123	21660
861.256	21739
861.388	21759
861.521	22398
861.653	21587
861.786	21416
861.918	21538
862.05	21679
862.183	21736
862.315	21720
862.447	21755
862.58	21561
862.712	21500
862.844	21389
862.976	21488
863.108	21561
863.24	21720
863.372	21416
863.504	21416
863.636	21397
863.768	21408
863.9	21405
864.032	21287
864.164	21416
864.296	21469
864.428	21542
864.559	21454
864.691	21500
864.823	21443
864.954	21405
865.086	21329
865.217	21386
865.349	21192
865.48	21317
865.612	21195
865.743	21523
865.875	21378
866.006	21203
866.137	21268
866.269	21203
866.4	21275
866.531	21233
866.662	21062
866.793	21256
866.924	21207
867.055	21169
867.186	21211
867.317	21264
867.448	21226
867.579	21211
867.71	21203
867.841	21100
867.972	21272
868.103	21325
868.233	21325
868.364	21237
868.495	21275
868.625	21454
868.756	21534
868.886	21405
869.017	21443
869.147	21572
869.278	21599
869.408	21466
869.539	21359
869.669	21561
869.799	21545
869.929	21603
870.06	21705
870.19	21789
870.32	21778
870.45	21884
870.58	21892
870.71	21953
870.84	22032
870.97	21907
871.1	21789
871.23	22082
871.36	22166
871.489	22006
871.619	21960
871.749	22086
871.879	22124
872.008	22101
872.138	22105
872.267	22017
872.397	21930
872.526	21835
872.656	21941
872.785	21953
872.915	22162
873.044	22166
873.173	22219
873.303	22048
873.432	22131
873.561	22211
873.69	22211
873.819	21998
873.948	22139
874.077	22067
874.206	22070
874.335	22116
874.464	22253
874.593	22291
874.722	22310
874.851	22318
874.979	22257
875.108	22352
875.237	22246
875.365	22268
875.494	22344
875.623	22371
875.751	22287
875.88	22333
876.008	22535
876.136	22455
876.265	22641
876.393	22873
876.521	22736
876.65	22790
876.778	22763
876.906	22679
877.034	22710
877.162	22622
877.29	22531
877.418	22660
877.546	22618
877.674	22706
877.802	22622
877.93	22626
878.058	22725
878.185	22546
878.313	22573
878.441	22622
878.568	22527
878.696	22516
878.824	22649
878.951	22710
879.079	22812
879.206	22858
879.333	22831
879.461	22622
879.588	22687
879.715	22824
879.842	22972
879.97	22694
880.097	22462
880.224	22577
880.351	22478
880.478	22485
880.605	22573
880.732	22489
880.859	22797
880.986	22580
881.112	22508
881.239	22451
881.366	22204
881.493	22150
881.619	22078
881.746	22032
881.872	21968
881.999	22086
882.125	22025
882.252	22010
882.378	22013
882.505	22090
882.631	21991
882.757	21800
882.883	21994
883.01	21709
883.136	21599
883.262	21701
883.388	21648
883.514	21705
883.64	21762
883.766	21629
883.892	21568
884.018	21466
884.143	21686
884.269	21720
884.395	21405
884.52	21367
884.646	21553
884.772	21420
884.897	21241
885.023	21401
885.148	21454
885.274	21561
885.399	21523
885.524	21355
885.65	21348
885.775	21412
885.9	21401
886.025	21435
886.15	21416
886.275	21454
886.4	21245
886.525	21405
886.65	21283
886.775	21287
886.9	21435
887.025	21564
887.149	21435
887.274	21226
887.399	21138
887.523	21150
887.648	21150
887.773	21066
887.897	21161
888.021	21058
888.146	21089
888.27	21252
888.395	21203
888.519	21184
888.643	21252
888.767	21298
888.891	20929
889.015	21005
889.139	21036
889.263	20906
889.387	20975
889.511	21154
889.635	21085
889.759	20868
889.883	20921
890.006	20944
890.13	21017
890.254	20857
890.377	20887
890.501	20708
890.624	20724
890.748	20724
890.871	20598
890.995	20514
891.118	20412
891.241	20541
891.364	20575
891.488	20640
891.611	20404
891.734	20533
891.857	20651
891.98	20556
892.103	20564
892.226	20408
892.349	20389
892.471	20259
892.594	20339
892.717	20396
892.839	20469
892.962	20454
893.085	20556
893.207	20412
893.33	20332
893.452	20282
893.575	20446
893.697	20377
893.819	20495
893.941	20651
894.064	20480
894.186	20419
894.308	20332
894.43	20473
894.552	20454
894.674	20488
894.796	20381
894.918	20358
895.04	20336
895.161	20412
895.283	20377
895.405	20282
895.526	20423
895.648	20298
895.769	20461
895.891	20396
896.012	20503
896.134	20366
896.255	20400
896.376	20286
896.498	20442
896.619	20434
896.74	20415
896.861	20446
896.982	20667
897.103	20750
897.224	20663
897.345	20625
897.466	20533
897.587	20594
897.708	20765
897.828	20667
897.949	20640
898.07	20374
898.19	20511
898.311	20674
898.431	20629
898.552	20621
898.672	20590
898.792	20716
898.913	20659
899.033	20423
899.153	20396
899.273	20233
899.393	20305
899.513	20377
899.633	20362
899.753	20320
899.873	20202
899.993	20385
900.113	20214
900.232	20237
900.352	20210
900.472	20229
900.591	20111
900.711	20145
900.83	20065
900.95	20271
901.069	20263
901.189	20027
901.308	19868
901.427	19765
901.546	19738
901.665	19715
901.784	19693
901.904	19635
902.023	19403
902.141	19247
902.26	19247
902.379	19324
902.498	19285
902.617	19103
902.735	19282
902.854	19297
902.973	19217
903.091	18833
903.21	18852
903.328	18772
903.446	18779
903.565	18791
903.683	18734
903.801	18566
903.919	18745
904.038	18635
904.156	18448
904.274	18570
904.392	18441
904.51	18479
904.627	18426
904.745	18460
904.863	18376
904.981	18262
905.098	18076
905.216	18133
905.334	18205
905.451	18125
905.569	18011
905.686	18117
905.803	18102
905.921	17885
906.038	18019
906.155	18019
906.272	17802
906.389	17760
906.506	17695
906.623	17722
906.74	17752
906.857	17512
906.974	17608
907.091	17672
907.208	17726
907.324	17634
907.441	17474
907.557	17444
907.674	17372
907.79	17220
907.907	17383
908.023	17398
908.139	17303
908.256	17280
908.372	17200
908.488	17151
908.604	17075
908.72	16999
908.836	17159
908.952	17048
909.068	17170
909.184	17231
909.3	17124
909.415	17220
909.531	17048
909.647	16911
909.762	16892
909.878	16668
909.993	16797
910.108	16771
910.224	16755
910.339	16736
910.454	16626
910.57	16634
910.685	16558
910.8	16771
910.915	16626
911.03	16637
911.145	16379
911.259	16390
911.374	16462
911.489	16261
911.604	16223
911.718	16105
911.833	16090
911.947	16036
912.062	15857
912.176	16002
912.291	16246
912.405	16082
912.519	16310
912.633	16322
912.748	16112
912.862	16112
912.976	15972
913.09	15812
913.204	15880
913.318	15934
913.431	16097
913.545	15975
913.659	15994
913.772	15865
913.886	15812
914	15755
914.113	15770
914.226	15842
914.34	15713
914.453	15595
914.566	15869
914.68	15584
914.793	15587
914.906	15545
915.019	15306
915.132	15222
915.245	15313
915.358	15264
915.47	15302
915.583	15298
915.696	15313
915.809	15325
915.921	15408
916.034	15283
916.146	15218
916.259	15230
916.371	15226
916.483	15245
916.595	15154
916.708	15329
916.82	15169
916.932	15211
917.044	15066
917.156	15055
917.268	14952
917.38	15028
917.491	15005
917.603	14994
917.715	15051
917.826	14982
917.938	14910
918.049	14765
918.161	14937
918.272	15077
918.384	15058
918.495	14876
918.606	14826
918.717	14667
918.828	14762
918.939	14731
919.05	14686
919.161	14788
919.272	14556
919.383	14568
919.494	14762
919.604	14872
919.715	14731
919.826	14598
919.936	14651
920.047	14743
920.157	14640
920.267	14918
920.378	14590
920.488	14594
920.598	14880
920.708	14960
920.818	14941
920.928	14689
921.038	15047
921.148	14899
921.258	14670
921.368	14488
921.477	14511
921.587	14415
921.697	14320
921.806	14454
921.916	14248
922.025	14138
922.134	14062
922.244	14031
922.353	14157
922.462	13993
922.571	13917
922.68	13662
922.789	13738
922.898	13674
923.007	13559
923.116	13807
923.224	13719
923.333	13666
923.442	13514
923.55	13480
923.659	13476
923.767	13616
923.876	13464
923.984	13620
924.092	13411
924.201	13445
924.309	13460
924.417	13426
924.525	13407
924.633	13381
924.741	14339
924.849	13198
924.956	13335
925.064	13194
925.172	13057
925.279	13095
925.387	13160
925.494	13145
925.602	13152
925.709	13072
925.816	12966
925.924	13042
926.031	13129
926.138	12993
926.245	13133
926.352	12939
926.459	13084
926.566	13099
926.673	12989
926.779	12764
926.886	12840
926.993	12677
927.099	12722
927.206	12582
927.312	12574
927.419	12703
927.525	12662
927.631	12703
927.737	12578
927.843	12555
927.95	12395
928.056	12445
928.162	12506
928.267	12559
928.373	13213
928.479	12555
928.585	12323
928.69	12479
928.796	12452
928.901	12323
929.007	12205
929.112	12407
929.218	12308
929.323	12266
929.428	12175
929.533	12311
929.638	12182
929.743	12167
929.848	12216
929.953	12216
930.058	12015
930.163	11912
930.267	11946
930.372	11984
930.477	11878
930.581	12087
930.685	11927
930.79	11817
930.894	11745
930.998	11680
931.103	11912
931.207	11493
931.311	11448
931.415	11383
931.519	11181
931.623	11113
