Data from test_V78500241_56.txt Node
Date: Fri Mar 25 15:10:15 CST 2022
User: usil
Spectrometer: V785-0024
Trigger mode: 0
Integration Time (sec): 4.000000E-1
Scans to average: 1
Nonlinearity correction enabled: false
Boxcar width: 0
Storing dark spectrum: false
XAxis mode: Wavelengths
Number of Pixels in Spectrum: 1024
>>>>>Begin Spectral Data<<<<<
801.071	28839
801.214	28675
801.356	28436
801.499	28261
801.641	28242
801.783	28238
801.926	28188
802.068	28295
802.211	28070
802.353	27994
802.496	27869
802.638	27838
802.78	27869
802.923	27747
803.065	27823
803.208	27736
803.35	27694
803.492	27857
803.635	27884
803.777	27823
803.919	28036
804.061	28337
804.204	27838
804.346	27717
804.488	27793
804.63	27743
804.773	27762
804.915	27903
805.057	27934
805.199	27926
805.341	27930
805.483	28029
805.626	27934
805.768	27720
805.91	27956
806.052	28086
806.194	27903
806.336	28063
806.478	27987
806.62	27899
806.762	27972
806.904	28280
807.046	28299
807.188	28234
807.33	28230
807.472	28421
807.614	28272
807.756	28230
807.898	28017
808.04	28082
808.182	28169
808.324	28105
808.465	28090
808.607	28181
808.749	28341
808.891	28550
809.033	28630
809.174	28447
809.316	28337
809.458	28371
809.6	28325
809.741	28504
809.883	28512
810.025	28500
810.166	28660
810.308	28683
810.45	28542
810.591	28516
810.733	28329
810.875	28367
811.016	28207
811.158	28177
811.299	28500
811.441	28500
811.582	28295
811.724	28223
811.865	28363
812.007	28306
812.148	28466
812.29	28371
812.431	28588
812.573	28497
812.714	28771
812.855	28736
812.997	28900
813.138	28991
813.279	28915
813.421	28835
813.562	28744
813.703	28645
813.845	28584
813.986	28109
814.127	28116
814.268	27835
814.41	27926
814.551	27918
814.692	28044
814.833	27819
814.974	27778
815.115	27991
815.256	27705
815.397	27728
815.539	27648
815.68	27614
815.821	27633
815.962	27622
816.103	27652
816.244	27378
816.385	27500
816.526	27344
816.666	27173
816.807	27112
816.948	27112
817.089	27036
817.23	27085
817.371	27070
817.512	27055
817.653	27119
817.793	27024
817.934	26998
818.075	26944
818.216	27058
818.356	26910
818.497	26891
818.638	26807
818.778	26716
818.919	26663
819.06	26857
819.2	26769
819.341	26880
819.481	26952
819.622	27081
819.762	27272
819.903	27123
820.043	27024
820.184	27024
820.324	27096
820.465	27093
820.605	27138
820.746	27009
820.886	26750
821.026	27058
821.167	26952
821.307	27108
821.447	26872
821.588	26842
821.728	26720
821.868	26480
822.008	26400
822.149	26427
822.289	26324
822.429	26206
822.569	26119
822.709	25986
822.849	25955
822.99	25864
823.13	25807
823.27	25845
823.41	25635
823.55	25567
823.69	25715
823.83	25708
823.97	25616
824.11	25384
824.25	25301
824.389	25400
824.529	25403
824.669	25491
824.809	25662
824.949	25521
825.089	25575
825.228	25415
825.368	25274
825.508	25274
825.648	25148
825.787	25274
825.927	25209
826.067	25247
826.206	25114
826.346	25259
826.485	25175
826.625	25168
826.765	25312
826.904	25255
827.044	24962
827.183	24977
827.323	24928
827.462	25114
827.601	24875
827.741	24825
827.88	24890
828.02	24741
828.159	24817
828.298	24916
828.437	24932
828.577	24848
828.716	24882
828.855	24726
828.994	24582
829.134	24547
829.273	24578
829.412	24532
829.551	24483
829.69	24433
829.829	24547
829.968	24585
830.107	24578
830.246	24635
830.385	24418
830.524	24483
830.663	24342
830.802	24232
830.941	24011
831.08	24114
831.219	24087
831.357	24190
831.496	24205
831.635	24091
831.774	23855
831.913	24015
832.051	23927
832.19	23840
832.329	23840
832.467	23771
832.606	23729
832.744	23737
832.883	23718
833.022	23786
833.16	23767
833.299	23634
833.437	23623
833.576	23836
833.714	23805
833.852	23775
833.991	23684
834.129	23779
834.267	23859
834.406	23737
834.544	23775
834.682	23733
834.821	23756
834.959	23878
835.097	23646
835.235	23718
835.373	23741
835.511	23722
835.65	23577
835.788	23516
835.926	23436
836.064	23372
836.202	23452
836.34	23497
836.478	23676
836.615	23528
836.753	23444
836.891	23642
837.029	23646
837.167	23482
837.305	23486
837.443	23531
837.58	23368
837.718	23463
837.856	23478
837.993	23254
838.131	23284
838.269	23330
838.406	23220
838.544	23220
838.681	23075
838.819	23010
838.956	22866
839.094	22801
839.231	22885
839.369	22915
839.506	23204
839.643	23067
839.781	22778
839.918	22793
840.055	22820
840.193	22637
840.33	22588
840.467	22656
840.604	22721
840.742	22835
840.879	22584
841.016	22641
841.153	22542
841.29	22713
841.427	22679
841.564	22668
841.701	22550
841.838	22607
841.975	22611
842.112	22550
842.249	22379
842.385	22424
842.522	22561
842.659	22447
842.796	22455
842.933	22356
843.069	22356
843.206	22291
843.343	22356
843.479	22394
843.616	22360
843.752	22173
843.889	22082
844.025	22162
844.162	22021
844.298	22192
844.435	22044
844.571	22150
844.708	22158
844.844	22417
844.98	22192
845.117	22265
845.253	22055
845.389	22029
845.525	22025
845.661	21979
845.798	21850
845.934	21831
846.07	21892
846.206	21911
846.342	21979
846.478	21755
846.614	21641
846.75	21447
846.886	21549
847.022	21679
847.158	21538
847.294	21500
847.429	21606
847.565	21545
847.701	21831
847.837	21214
847.972	21161
848.108	21382
848.244	21329
848.379	21077
848.515	21142
848.65	21207
848.786	21093
848.921	21051
849.057	21077
849.192	21272
849.328	21116
849.463	21085
849.598	21062
849.734	20994
849.869	20891
850.004	20823
850.14	20868
850.275	20918
850.41	20842
850.545	20804
850.68	20754
850.815	20735
850.95	20807
851.085	21051
851.22	20986
851.355	20883
851.49	20876
851.625	20804
851.76	20902
851.895	20659
852.03	20678
852.165	20739
852.299	20811
852.434	20883
852.569	20750
852.703	20743
852.838	20743
852.973	20944
853.107	20826
853.242	20864
853.376	20568
853.511	20446
853.645	20659
853.78	20773
853.914	20682
854.048	20720
854.183	20537
854.317	20762
854.451	20838
854.585	20659
854.72	20492
854.854	20758
854.988	20427
855.122	20686
855.256	20488
855.39	20488
855.524	20602
855.658	20800
855.792	20682
855.926	20640
856.06	20689
856.194	20724
856.327	20583
856.461	20530
856.595	20625
856.729	20541
856.862	20823
856.996	20693
857.13	20674
857.263	20571
857.397	20895
857.53	20556
857.664	20655
857.797	20609
857.931	20629
858.064	20693
858.197	20705
858.331	20518
858.464	20583
858.597	20450
858.731	20408
858.864	20473
858.997	20465
859.13	20587
859.263	20552
859.396	20640
859.529	20492
859.662	20461
859.795	20423
859.928	20579
860.061	20701
860.194	20758
860.327	20511
860.46	20511
860.592	20526
860.725	20560
860.858	20507
860.99	20545
861.123	20412
861.256	20499
861.388	20541
861.521	20975
861.653	20313
861.786	20225
861.918	20499
862.05	20511
862.183	20442
862.315	20579
862.447	20590
862.58	20552
862.712	20343
862.844	20183
862.976	20370
863.108	20374
863.24	20746
863.372	20138
863.504	20240
863.636	20237
863.768	20229
863.9	20195
864.032	20206
864.164	20199
864.296	20164
864.428	20271
864.559	20263
864.691	20286
864.823	20343
864.954	20172
865.086	20218
865.217	20191
865.349	19887
865.48	20229
865.612	20199
865.743	20278
865.875	20267
866.006	20035
866.137	20130
866.269	20153
866.4	20138
866.531	20145
866.662	20088
866.793	20012
866.924	20069
867.055	20012
867.186	20092
867.317	20024
867.448	19989
867.579	19944
867.71	19921
867.841	19978
867.972	19997
868.103	20001
868.233	20046
868.364	20046
868.495	20081
868.625	20358
868.756	20415
868.886	20138
869.017	20248
869.147	20362
869.278	20271
869.408	20275
869.539	20370
869.669	20286
869.799	20309
869.929	20408
870.06	20480
870.19	20587
870.32	20518
870.45	20670
870.58	20655
870.71	20686
870.84	20819
870.97	20667
871.1	20674
871.23	20800
871.36	20788
871.489	20876
871.619	20834
871.749	20834
871.879	20899
872.008	20937
872.138	20853
872.267	20918
872.397	20670
872.526	20663
872.656	20655
872.785	20701
872.915	20914
873.044	21009
873.173	20872
873.303	20986
873.432	21039
873.561	20967
873.69	20906
873.819	20982
873.948	20963
874.077	20910
874.206	20948
874.335	21020
874.464	21058
874.593	21135
874.722	21154
874.851	21283
874.979	21131
875.108	21184
875.237	21100
875.365	21142
875.494	21074
875.623	21233
875.751	21062
875.88	21184
876.008	21291
876.136	21355
876.265	21614
876.393	21591
876.521	21587
876.65	21751
876.778	21408
876.906	21473
877.034	21382
877.162	21435
877.29	21401
877.418	21389
877.546	21481
877.674	21370
877.802	21507
877.93	21641
878.058	21378
878.185	21317
878.313	21329
878.441	21412
878.568	21306
878.696	21405
878.824	21485
878.951	21583
879.079	21557
879.206	21785
879.333	21671
879.461	21500
879.588	21564
879.715	21587
879.842	21774
879.97	21458
880.097	21294
880.224	21321
880.351	21237
880.478	21329
880.605	21218
880.732	21310
880.859	21488
880.986	21294
881.112	21272
881.239	21245
881.366	21001
881.493	20979
881.619	20899
881.746	20975
881.872	20895
881.999	20861
882.125	20845
882.252	20979
882.378	20994
882.505	21005
882.631	20868
882.757	20754
882.883	20739
883.01	20746
883.136	20693
883.262	20431
883.388	20545
883.514	20640
883.64	20796
883.766	20648
883.892	20457
884.018	20507
884.143	20594
884.269	20705
884.395	20427
884.52	20244
884.646	20336
884.772	20317
884.897	20218
885.023	20233
885.148	20427
885.274	20465
885.399	20442
885.524	20206
885.65	20328
885.775	20415
885.9	20202
886.025	20358
886.15	20351
886.275	20240
886.4	20126
886.525	20317
886.65	20172
886.775	20164
886.9	20389
887.025	20484
887.149	20225
887.274	20081
887.399	20054
887.523	19989
887.648	20016
887.773	19970
887.897	20008
888.021	20046
888.146	19932
888.27	20088
888.395	20153
888.519	20050
888.643	19913
888.767	20180
888.891	19974
889.015	19837
889.139	19925
889.263	19750
889.387	20073
889.511	19951
889.635	19898
889.759	19864
889.883	19856
890.006	19803
890.13	19830
890.254	19586
890.377	19696
890.501	19582
890.624	19578
890.748	19605
890.871	19544
890.995	19396
891.118	19263
891.241	19472
891.364	19365
891.488	19331
891.611	19480
891.734	19384
891.857	19464
891.98	19400
892.103	19510
892.226	19487
892.349	19316
892.471	19175
892.594	19369
892.717	19255
892.839	19308
892.962	19362
893.085	19324
893.207	19209
893.33	19282
893.452	19259
893.575	19381
893.697	19297
893.819	19491
893.941	19613
894.064	19445
894.186	19266
894.308	19312
894.43	19419
894.552	19525
894.674	19365
894.796	19156
894.918	19312
895.04	19285
895.161	19350
895.283	19381
895.405	19244
895.526	19304
895.648	19316
895.769	19396
895.891	19365
896.012	19499
896.134	19384
896.255	19362
896.376	19282
896.498	19365
896.619	19438
896.74	19422
896.861	19457
896.982	19727
897.103	19917
897.224	19647
897.345	19666
897.466	19544
897.587	19616
897.708	19811
897.828	19670
897.949	19419
898.07	19457
898.19	19578
898.311	19628
898.431	19400
898.552	19567
898.672	19544
898.792	19605
898.913	19483
899.033	19434
899.153	19358
899.273	19232
899.393	19316
899.513	19270
899.633	19266
899.753	19266
899.873	19308
899.993	19282
900.113	19240
900.232	19164
900.352	19194
900.472	19171
900.591	19065
900.711	18993
900.83	19004
900.95	19171
901.069	19152
901.189	19042
901.308	18814
901.427	18719
901.546	18730
901.665	18593
901.784	18608
901.904	18536
902.023	18506
902.141	18266
902.26	18201
902.379	18205
902.498	18190
902.617	18140
902.735	18224
902.854	18247
902.973	18098
903.091	17950
903.21	17828
903.328	17916
903.446	17737
903.565	17718
903.683	17805
903.801	17585
903.919	17703
904.038	17619
904.156	17505
904.274	17554
904.392	17562
904.51	17406
904.627	17379
904.745	17516
904.863	17573
904.981	17250
905.098	17159
905.216	17220
905.334	17075
905.451	17121
905.569	17037
905.686	17204
905.803	17102
905.921	16885
906.038	17010
906.155	16976
906.272	16782
906.389	16881
906.506	16637
906.623	16637
906.74	16634
906.857	16508
906.974	16413
907.091	16596
907.208	16793
907.324	16664
907.441	16516
907.557	16333
907.674	16432
907.79	16253
907.907	16268
908.023	16405
908.139	16291
908.256	16226
908.372	16154
908.488	16162
908.604	16078
908.72	16006
908.836	16097
908.952	15983
909.068	16082
909.184	16063
909.3	16013
909.415	16044
909.531	16067
909.647	15595
909.762	15762
909.878	15595
909.993	15675
910.108	15728
910.224	15633
910.339	15564
910.454	15603
910.57	15511
910.685	15485
910.8	15728
910.915	15599
911.03	15504
911.145	15374
911.259	15291
911.374	15279
911.489	15283
911.604	15233
911.718	15100
911.833	15066
911.947	14941
912.062	14914
912.176	15043
912.291	14986
912.405	15009
912.519	15237
912.633	15222
912.748	15039
912.862	15020
912.976	15005
913.09	14743
913.204	14929
913.318	14830
913.431	14921
913.545	14918
913.659	14895
913.772	14796
913.886	14716
914	14667
914.113	14788
914.226	14804
914.34	14754
914.453	14644
914.566	14762
914.68	14636
914.793	14556
914.906	14412
915.019	14343
915.132	14381
915.245	14415
915.358	14290
915.47	14305
915.583	14362
915.696	14438
915.809	14446
915.921	14431
916.034	14259
916.146	14183
916.259	14275
916.371	14240
916.483	14244
916.595	14134
916.708	14233
916.82	14164
916.932	14065
917.044	14126
917.156	14096
917.268	13986
917.38	14027
917.491	13989
917.603	14039
917.715	14183
917.826	14062
917.938	13868
918.049	13864
918.161	13955
918.272	14145
918.384	14058
918.495	13997
918.606	13757
918.717	13799
918.828	13753
918.939	13769
919.05	13723
919.161	13719
919.272	13525
919.383	13575
919.494	13769
919.604	13887
919.715	13776
919.826	13582
919.936	13597
920.047	13784
920.157	13769
920.267	13925
920.378	13784
920.488	13651
920.598	13925
920.708	13986
920.818	13780
920.928	13879
921.038	13989
921.148	13997
921.258	13651
921.368	13537
921.477	13518
921.587	13472
921.697	13373
921.806	13491
921.916	13312
922.025	13198
922.134	13137
922.244	13027
922.353	13160
922.462	12981
922.571	12894
922.68	12783
922.789	12814
922.898	12726
923.007	12711
923.116	12726
923.224	12696
923.333	12715
923.442	12574
923.55	12555
923.659	12623
923.767	12555
923.876	12490
923.984	12639
924.092	12563
924.201	12490
924.309	12490
924.417	12471
924.525	12410
924.633	12471
924.741	13194
924.849	12296
924.956	12353
925.064	12216
925.172	12213
925.279	12247
925.387	12296
925.494	12243
925.602	12281
925.709	12239
925.816	12102
925.924	12159
926.031	12300
926.138	12140
926.245	12186
926.352	11996
926.459	12129
926.566	12270
926.673	12167
926.779	11961
926.886	11961
926.993	11920
927.099	11805
927.206	11703
927.312	11745
927.419	11836
927.525	11722
927.631	11870
927.737	11623
927.843	11665
927.95	11524
928.056	11577
928.162	11596
928.267	11668
928.373	12273
928.479	11688
928.585	11535
928.69	11604
928.796	11592
928.901	11532
929.007	11326
929.112	11383
929.218	11474
929.323	11364
929.428	11315
929.533	11429
929.638	11353
929.743	11353
929.848	11345
929.953	11311
930.058	11216
930.163	11067
930.267	11102
930.372	11273
930.477	10934
930.581	11254
930.685	11071
930.79	10908
930.894	10980
930.998	10885
931.103	11102
931.207	10596
931.311	10656
931.415	10527
931.519	10329
931.623	10318
