Data from test_V78500241_2431.txt Node
Date: Fri Mar 25 15:26:47 CST 2022
User: usil
Spectrometer: V785-0024
Trigger mode: 0
Integration Time (sec): 4.000000E-1
Scans to average: 1
Nonlinearity correction enabled: false
Boxcar width: 0
Storing dark spectrum: false
XAxis mode: Wavelengths
Number of Pixels in Spectrum: 1024
>>>>>Begin Spectral Data<<<<<
801.071	27070
801.214	27024
801.356	26819
801.499	26811
801.641	26602
801.783	26678
801.926	26667
802.068	26743
802.211	26434
802.353	26431
802.496	26153
802.638	26233
802.78	26161
802.923	26309
803.065	26100
803.208	26168
803.35	26210
803.492	26324
803.635	26533
803.777	26202
803.919	26427
804.061	26663
804.204	26469
804.346	26332
804.488	26263
804.63	26453
804.773	26290
804.915	26396
805.057	26541
805.199	26294
805.341	26434
805.483	26644
805.626	26438
805.768	26351
805.91	26712
806.052	26530
806.194	26446
806.336	26644
806.478	26317
806.62	26393
806.762	26648
806.904	26765
807.046	26902
807.188	26826
807.33	26899
807.472	26963
807.614	26788
807.756	26815
807.898	26594
808.04	26724
808.182	26621
808.324	26731
808.465	26963
808.607	26944
808.749	26952
808.891	27313
809.033	27237
809.174	27039
809.316	27100
809.458	27039
809.6	27070
809.741	27135
809.883	27150
810.025	27272
810.166	27325
810.308	27393
810.45	27344
810.591	27389
810.733	27119
810.875	27051
811.016	26765
811.158	27085
811.299	27047
811.441	27131
811.582	27123
811.724	26944
811.865	27009
812.007	27017
812.148	27100
812.29	26994
812.431	27176
812.573	27370
812.714	27450
812.855	27599
812.997	27774
813.138	27854
813.279	27622
813.421	27610
813.562	27492
813.703	27378
813.845	27245
813.986	27028
814.127	26727
814.268	26807
814.41	26800
814.551	26712
814.692	26773
814.833	26644
814.974	26701
815.115	26792
815.256	26571
815.397	26674
815.539	26488
815.68	26537
815.821	26320
815.962	26549
816.103	26507
816.244	26450
816.385	26218
816.526	26164
816.666	26088
816.807	25940
816.948	26035
817.089	26073
817.23	25982
817.371	26008
817.512	26005
817.653	26016
817.793	25788
817.934	25982
818.075	26084
818.216	25890
818.356	25906
818.497	25928
818.638	25685
818.778	25837
818.919	25708
819.06	25632
819.2	25879
819.341	25909
819.481	26020
819.622	26134
819.762	26393
819.903	26240
820.043	25989
820.184	25913
820.324	25966
820.465	26142
820.605	26180
820.746	26088
820.886	25955
821.026	26012
821.167	25997
821.307	26168
821.447	26046
821.588	25769
821.728	25784
821.868	25658
822.008	25415
822.149	25384
822.289	25434
822.429	25285
822.569	25118
822.709	25202
822.849	24871
822.99	25019
823.13	24901
823.27	24852
823.41	24738
823.55	24669
823.69	24882
823.83	24779
823.97	24616
824.11	24509
824.25	24479
824.389	24639
824.529	24734
824.669	24517
824.809	24715
824.949	24593
825.089	24692
825.228	24665
825.368	24429
825.508	24372
825.648	24505
825.787	24486
825.927	24559
826.067	24460
826.206	24289
826.346	24471
826.485	24494
826.625	24475
826.765	24544
826.904	24688
827.044	24155
827.183	24315
827.323	24220
827.462	24300
827.601	24182
827.741	24353
827.88	24281
828.02	23992
828.159	24110
828.298	24121
828.437	24133
828.577	24064
828.716	24292
828.855	24095
828.994	23908
829.134	23870
829.273	23977
829.412	23783
829.551	23908
829.69	24003
829.829	23958
829.968	24072
830.107	23901
830.246	24003
830.385	23832
830.524	23809
830.663	23729
830.802	23646
830.941	23474
831.08	23463
831.219	23634
831.357	23531
831.496	23729
831.635	23516
831.774	23414
831.913	23280
832.051	23299
832.19	23368
832.329	23292
832.467	23105
832.606	23090
832.744	23079
832.883	23102
833.022	23174
833.16	23166
833.299	23269
833.437	23071
833.576	23246
833.714	23132
833.852	23098
833.991	23242
834.129	23239
834.267	23307
834.406	23231
834.544	23315
834.682	23254
834.821	23208
834.959	23425
835.097	23273
835.235	23265
835.373	23265
835.511	23216
835.65	22961
835.788	23105
835.926	22953
836.064	22896
836.202	22892
836.34	23124
836.478	23151
836.615	22991
836.753	23018
836.891	23143
837.029	23044
837.167	23071
837.305	22976
837.443	22999
837.58	22946
837.718	23048
837.856	22980
837.993	22915
838.131	22885
838.269	22729
838.406	22923
838.544	22675
838.681	22527
838.819	22687
838.956	22436
839.094	22379
839.231	22508
839.369	22694
839.506	22957
839.643	22710
839.781	22390
839.918	22287
840.055	22390
840.193	22421
840.33	22291
840.467	22348
840.604	22314
840.742	22592
840.879	22124
841.016	22246
841.153	22261
841.29	22367
841.427	22242
841.564	22337
841.701	22230
841.838	22238
841.975	22268
842.112	22223
842.249	22101
842.385	22105
842.522	22306
842.659	22249
842.796	22086
842.933	22139
843.069	22036
843.206	22200
843.343	22105
843.479	22025
843.616	22154
843.752	21918
843.889	21895
844.025	22029
844.162	21892
844.298	22010
844.435	21968
844.571	21736
844.708	21899
844.844	21991
844.98	21998
845.117	21854
845.253	21819
845.389	21880
845.525	21682
845.661	21736
845.798	21576
845.934	21690
846.07	21500
846.206	21549
846.342	21690
846.478	21633
846.614	21412
846.75	21355
846.886	21370
847.022	21344
847.158	21428
847.294	21340
847.429	21382
847.565	21351
847.701	21534
847.837	21089
847.972	21062
848.108	21203
848.244	21184
848.379	21028
848.515	21089
848.65	20937
848.786	20830
848.921	21001
849.057	21127
849.192	21157
849.328	20895
849.463	21074
849.598	20864
849.734	20883
849.869	20811
850.004	20769
850.14	20716
850.275	20724
850.41	20571
850.545	20712
850.68	20533
850.815	20804
850.95	20568
851.085	20956
851.22	20823
851.355	20815
851.49	20678
851.625	20762
851.76	20804
851.895	20629
852.03	20590
852.165	20754
852.299	20659
852.434	20830
852.569	20697
852.703	20678
852.838	20724
852.973	20929
853.107	20743
853.242	20644
853.376	20518
853.511	20461
853.645	20454
853.78	20667
853.914	20594
854.048	20568
854.183	20514
854.317	20533
854.451	20716
854.585	20434
854.72	20492
854.854	20590
854.988	20518
855.122	20495
855.256	20374
855.39	20446
855.524	20564
855.658	20609
855.792	20568
855.926	20705
856.06	20602
856.194	20670
856.327	20385
856.461	20454
856.595	20419
856.729	20393
856.862	20689
856.996	20518
857.13	20682
857.263	20686
857.397	20629
857.53	20526
857.664	20655
857.797	20503
857.931	20598
858.064	20655
858.197	20758
858.331	20522
858.464	20522
858.597	20465
858.731	20495
858.864	20503
858.997	20511
859.13	20636
859.263	20644
859.396	20632
859.529	20434
859.662	20499
859.795	20499
859.928	20503
860.061	20705
860.194	20834
860.327	20511
860.46	20606
860.592	20629
860.725	20568
860.858	20522
860.99	20476
861.123	20476
861.256	20499
861.388	20511
861.521	21020
861.653	20423
861.786	20328
861.918	20275
862.05	20377
862.183	20461
862.315	20552
862.447	20465
862.58	20400
862.712	20256
862.844	20172
862.976	20336
863.108	20244
863.24	20541
863.372	20168
863.504	20267
863.636	20320
863.768	20290
863.9	20298
864.032	20161
864.164	20271
864.296	20278
864.428	20492
864.559	20317
864.691	20412
864.823	20343
864.954	20157
865.086	20176
865.217	20187
865.349	20065
865.48	20176
865.612	20100
865.743	20404
865.875	20130
866.006	20153
866.137	20248
866.269	20202
866.4	20157
866.531	20088
866.662	20058
866.793	20103
866.924	20111
867.055	20172
867.186	20130
867.317	20058
867.448	19932
867.579	20046
867.71	19978
867.841	20069
867.972	20202
868.103	20092
868.233	20100
868.364	20103
868.495	20183
868.625	20271
868.756	20503
868.886	20290
869.017	20400
869.147	20545
869.278	20404
869.408	20351
869.539	20324
869.669	20503
869.799	20396
869.929	20473
870.06	20389
870.19	20750
870.32	20686
870.45	20640
870.58	20762
870.71	20823
870.84	20773
870.97	20724
871.1	20788
871.23	20941
871.36	20941
871.489	20826
871.619	20762
871.749	20830
871.879	20971
872.008	21093
872.138	20883
872.267	20918
872.397	20876
872.526	20678
872.656	20902
872.785	20758
872.915	21036
873.044	21081
873.173	20933
873.303	21001
873.432	21032
873.561	21123
873.69	21020
873.819	21017
873.948	21017
874.077	20982
874.206	21043
874.335	20952
874.464	21119
874.593	21161
874.722	21142
874.851	21150
874.979	21222
875.108	21351
875.237	21116
875.365	21062
875.494	21249
875.623	21237
875.751	21313
875.88	21146
876.008	21363
876.136	21431
876.265	21698
876.393	21572
876.521	21720
876.65	21660
876.778	21610
876.906	21500
877.034	21469
877.162	21561
877.29	21553
877.418	21523
877.546	21637
877.674	21504
877.802	21564
877.93	21545
878.058	21500
878.185	21431
878.313	21530
878.441	21595
878.568	21420
878.696	21492
878.824	21618
878.951	21698
879.079	21762
879.206	21804
879.333	21759
879.461	21614
879.588	21603
879.715	21701
879.842	21774
879.97	21572
880.097	21378
880.224	21291
880.351	21485
880.478	21416
880.605	21382
880.732	21313
880.859	21652
880.986	21370
881.112	21431
881.239	21272
881.366	21116
881.493	21157
881.619	20952
881.746	20929
881.872	20986
881.999	21009
882.125	20986
882.252	20834
882.378	20902
882.505	20895
882.631	20731
882.757	20705
882.883	20765
883.01	20724
883.136	20651
883.262	20552
883.388	20499
883.514	20674
883.64	20762
883.766	20617
883.892	20465
884.018	20518
884.143	20655
884.269	20746
884.395	20366
884.52	20374
884.646	20358
884.772	20301
884.897	20138
885.023	20275
885.148	20431
885.274	20370
885.399	20446
885.524	20377
885.65	20305
885.775	20317
885.9	20317
886.025	20412
886.15	20374
886.275	20282
886.4	20206
886.525	20164
886.65	20275
886.775	20233
886.9	20480
887.025	20484
887.149	20305
887.274	20164
887.399	20138
887.523	19989
887.648	20081
887.773	20012
887.897	20111
888.021	20119
888.146	20035
888.27	20202
888.395	20252
888.519	20138
888.643	20187
888.767	20157
888.891	20043
889.015	19890
889.139	19883
889.263	19780
889.387	19936
889.511	20065
889.635	19978
889.759	19814
889.883	19940
890.006	19913
890.13	19974
890.254	19803
890.377	19818
890.501	19666
890.624	19651
890.748	19651
890.871	19552
890.995	19544
891.118	19438
891.241	19594
891.364	19578
891.488	19506
891.611	19518
891.734	19544
891.857	19632
891.98	19533
892.103	19681
892.226	19529
892.349	19419
892.471	19346
892.594	19537
892.717	19518
892.839	19354
892.962	19483
893.085	19487
893.207	19445
893.33	19453
893.452	19285
893.575	19384
893.697	19358
893.819	19518
893.941	19521
894.064	19578
894.186	19263
894.308	19369
894.43	19483
894.552	19567
894.674	19415
894.796	19346
894.918	19392
895.04	19419
895.161	19419
895.283	19441
895.405	19453
895.526	19426
895.648	19457
895.769	19529
895.891	19430
896.012	19609
896.134	19521
896.255	19312
896.376	19453
896.498	19396
896.619	19430
896.74	19449
896.861	19407
896.982	19765
897.103	19879
897.224	19613
897.345	19757
897.466	19559
897.587	19769
897.708	19681
897.828	19639
897.949	19590
898.07	19499
898.19	19506
898.311	19712
898.431	19613
898.552	19635
898.672	19704
898.792	19708
898.913	19586
899.033	19499
899.153	19362
899.273	19373
899.393	19400
899.513	19438
899.633	19377
899.753	19350
899.873	19304
899.993	19487
900.113	19297
900.232	19392
900.352	19263
900.472	19202
900.591	19293
900.711	19187
900.83	19141
900.95	19228
901.069	19316
901.189	19069
901.308	18878
901.427	18734
901.546	18791
901.665	18958
901.784	18795
901.904	18658
902.023	18654
902.141	18418
902.26	18296
902.379	18338
902.498	18308
902.617	18258
902.735	18224
902.854	18319
902.973	18251
903.091	18007
903.21	17942
903.328	18003
903.446	17927
903.565	17904
903.683	17843
903.801	17657
903.919	17737
904.038	17771
904.156	17562
904.274	17729
904.392	17649
904.51	17581
904.627	17543
904.745	17649
904.863	17627
904.981	17353
905.098	17277
905.216	17273
905.334	17395
905.451	17220
905.569	17200
905.686	17318
905.803	17261
905.921	16938
906.038	17117
906.155	17064
906.272	17037
906.389	16999
906.506	16824
906.623	16782
906.74	16786
906.857	16664
906.974	16672
907.091	16949
907.208	16968
907.324	16786
907.441	16649
907.557	16599
907.674	16451
907.79	16348
907.907	16489
908.023	16436
908.139	16489
908.256	16375
908.372	16455
908.488	16280
908.604	16314
908.72	16234
908.836	16200
908.952	16158
909.068	16291
909.184	16329
909.3	16223
909.415	16234
909.531	16192
909.647	16021
909.762	15930
909.878	15953
909.993	15960
910.108	15915
910.224	15873
910.339	15873
910.454	15827
910.57	15785
910.685	15743
910.8	15915
910.915	15869
911.03	15831
911.145	15603
911.259	15519
911.374	15660
911.489	15610
911.604	15298
911.718	15340
911.833	15226
911.947	15150
912.062	15104
912.176	15230
912.291	15310
912.405	15287
912.519	15485
912.633	15454
912.748	15260
912.862	15283
912.976	15100
913.09	14979
913.204	15104
913.318	15142
913.431	15184
913.545	15146
913.659	15108
913.772	15074
913.886	14944
914	14963
914.113	14967
914.226	14948
914.34	14914
914.453	14788
914.566	14948
914.68	14857
914.793	14762
914.906	14610
915.019	14617
915.132	14431
915.245	14549
915.358	14533
915.47	14590
915.583	14583
915.696	14533
915.809	14526
915.921	14701
916.034	14511
916.146	14495
916.259	14457
916.371	14613
916.483	14587
916.595	14351
916.708	14389
916.82	14389
916.932	14381
917.044	14332
917.156	14328
917.268	14107
917.38	14191
917.491	14244
917.603	14229
917.715	14271
917.826	14404
917.938	14176
918.049	14103
918.161	14218
918.272	14294
918.384	14412
918.495	14138
918.606	13963
918.717	13928
918.828	14081
918.939	14111
919.05	13833
919.161	14043
919.272	13795
919.383	13772
919.494	13982
919.604	14275
919.715	14077
919.826	13898
919.936	13986
920.047	13959
920.157	13947
920.267	14103
920.378	14016
920.488	13993
920.598	14187
920.708	14202
920.818	14134
920.928	14142
921.038	14275
921.148	14164
921.258	13860
921.368	13868
921.477	13727
921.587	13696
921.697	13575
921.806	13647
921.916	13586
922.025	13415
922.134	13316
922.244	13335
922.353	13285
922.462	13187
922.571	13194
922.68	13004
922.789	12973
922.898	13061
923.007	12916
923.116	13015
923.224	13008
923.333	12905
923.442	12886
923.55	12738
923.659	12878
923.767	12848
923.876	12798
923.984	12875
924.092	12783
924.201	12817
924.309	12753
924.417	12749
924.525	12692
924.633	12681
924.741	13582
924.849	12494
924.956	12623
925.064	12570
925.172	12407
925.279	12490
925.387	12532
925.494	12445
925.602	12521
925.709	12460
925.816	12388
925.924	12319
926.031	12536
926.138	12372
926.245	12418
926.352	12311
926.459	12384
926.566	12570
926.673	12388
926.779	12152
926.886	12323
926.993	12129
927.099	11984
927.206	11965
927.312	12011
927.419	12011
927.525	11984
927.631	12091
927.737	11931
927.843	11885
927.95	11790
928.056	11859
928.162	11802
928.267	11904
928.373	12483
928.479	12034
928.585	11703
928.69	11878
928.796	11847
928.901	11733
929.007	11665
929.112	11630
929.218	11790
929.323	11551
929.428	11638
929.533	11707
929.638	11604
929.743	11535
929.848	11589
929.953	11520
930.058	11421
930.163	11334
930.267	11353
930.372	11406
930.477	11292
930.581	11554
930.685	11311
930.79	11235
930.894	11197
930.998	11197
931.103	11258
931.207	11029
931.311	10862
931.415	10816
931.519	10546
931.623	10592
