Data from test_V78500241_1053.txt Node
Date: Fri Mar 25 15:17:11 CST 2022
User: usil
Spectrometer: V785-0024
Trigger mode: 0
Integration Time (sec): 4.000000E-1
Scans to average: 1
Nonlinearity correction enabled: false
Boxcar width: 0
Storing dark spectrum: false
XAxis mode: Wavelengths
Number of Pixels in Spectrum: 1024
>>>>>Begin Spectral Data<<<<<
801.071	28173
801.214	27998
801.356	27557
801.499	27679
801.641	27576
801.783	27606
801.926	27652
802.068	27397
802.211	27564
802.353	27348
802.496	27256
802.638	27154
802.78	27233
802.923	27116
803.065	27241
803.208	27142
803.35	27161
803.492	27272
803.635	27397
803.777	27237
803.919	27325
804.061	27625
804.204	27450
804.346	27549
804.488	27283
804.63	27252
804.773	27272
804.915	27454
805.057	27534
805.199	27431
805.341	27637
805.483	27507
805.626	27557
805.768	27427
805.91	27462
806.052	27469
806.194	27397
806.336	27599
806.478	27572
806.62	27580
806.762	27739
806.904	27876
807.046	28048
807.188	28025
807.33	28036
807.472	28093
807.614	27812
807.756	28010
807.898	27968
808.04	27873
808.182	27854
808.324	27781
808.465	27797
808.607	27964
808.749	28196
808.891	28196
809.033	28287
809.174	28291
809.316	28314
809.458	28268
809.6	28166
809.741	28223
809.883	28322
810.025	28618
810.166	28455
810.308	28443
810.45	28344
810.591	28314
810.733	28169
810.875	28329
811.016	28055
811.158	28044
811.299	28196
811.441	28261
811.582	28314
811.724	28207
811.865	28124
812.007	28162
812.148	28211
812.29	28242
812.431	28428
812.573	28554
812.714	28679
812.855	28664
812.997	28877
813.138	28896
813.279	28778
813.421	28653
813.562	28752
813.703	28580
813.845	28493
813.986	28147
814.127	28021
814.268	27922
814.41	27884
814.551	27991
814.692	28010
814.833	27804
814.974	27857
815.115	27907
815.256	27709
815.397	27876
815.539	27728
815.68	27633
815.821	27580
815.962	27690
816.103	27648
816.244	27530
816.385	27507
816.526	27492
816.666	27370
816.807	27249
816.948	27291
817.089	27310
817.23	27218
817.371	27214
817.512	27260
817.653	27119
817.793	27180
817.934	27199
818.075	27249
818.216	27294
818.356	27123
818.497	27062
818.638	27005
818.778	26998
818.919	26960
819.06	26883
819.2	26975
819.341	27024
819.481	27131
819.622	27283
819.762	27553
819.903	27519
820.043	27462
820.184	27351
820.324	27374
820.465	27370
820.605	27291
820.746	27405
820.886	27058
821.026	27287
821.167	27127
821.307	27275
821.447	27104
821.588	27093
821.728	26815
821.868	26834
822.008	26686
822.149	26659
822.289	26594
822.429	26336
822.569	26358
822.709	26275
822.849	26180
822.99	26176
823.13	26142
823.27	26183
823.41	26043
823.55	25921
823.69	26035
823.83	26050
823.97	25887
824.11	25761
824.25	25830
824.389	25712
824.529	26001
824.669	25890
824.809	26016
824.949	26062
825.089	25830
825.228	25696
825.368	25628
825.508	25727
825.648	25803
825.787	25822
825.927	25784
826.067	25712
826.206	25795
826.346	25624
826.485	25769
826.625	25803
826.765	25875
826.904	25818
827.044	25559
827.183	25540
827.323	25301
827.462	25544
827.601	25422
827.741	25422
827.88	25578
828.02	25266
828.159	25502
828.298	25476
828.437	25483
828.577	25453
828.716	25441
828.855	25232
828.994	25183
829.134	25118
829.273	25168
829.412	25251
829.551	25057
829.69	25221
829.829	25099
829.968	25099
830.107	25255
830.246	25019
830.385	25061
830.524	25088
830.663	24943
830.802	24859
830.941	24741
831.08	24703
831.219	24738
831.357	24760
831.496	24943
831.635	24787
831.774	24585
831.913	24745
832.051	24627
832.19	24582
832.329	24627
832.467	24536
832.606	24304
832.744	24422
832.883	24384
833.022	24403
833.16	24445
833.299	24604
833.437	24467
833.576	24380
833.714	24528
833.852	24490
833.991	24566
834.129	24585
834.267	24540
834.406	24479
834.544	24532
834.682	24574
834.821	24452
834.959	24730
835.097	24505
835.235	24540
835.373	24509
835.511	24509
835.65	24372
835.788	24300
835.926	24266
836.064	24129
836.202	24068
836.34	24296
836.478	24471
836.615	24384
836.753	24403
836.891	24330
837.029	24437
837.167	24247
837.305	24213
837.443	24273
837.58	24239
837.718	24220
837.856	24171
837.993	24209
838.131	24091
838.269	24030
838.406	24155
838.544	24049
838.681	23969
838.819	23836
838.956	23684
839.094	23672
839.231	23703
839.369	23828
839.506	24064
839.643	23996
839.781	23764
839.918	23600
840.055	23737
840.193	23691
840.33	23547
840.467	23581
840.604	23657
840.742	23840
840.879	23478
841.016	23497
841.153	23467
841.29	23687
841.427	23493
841.564	23657
841.701	23543
841.838	23505
841.975	23421
842.112	23414
842.249	23493
842.385	23239
842.522	23665
842.659	23592
842.796	23299
842.933	23471
843.069	23208
843.206	23391
843.343	23478
843.479	23433
843.616	23231
843.752	23094
843.889	23102
844.025	23250
844.162	23044
844.298	23239
844.435	23227
844.571	23010
844.708	23151
844.844	23307
844.98	23334
845.117	23311
845.253	23208
845.389	23022
845.525	23075
845.661	22953
845.798	22862
845.934	22854
846.07	22942
846.206	22881
846.342	22938
846.478	22835
846.614	22797
846.75	22698
846.886	22451
847.022	22603
847.158	22683
847.294	22592
847.429	22592
847.565	22615
847.701	22713
847.837	22371
847.972	22287
848.108	22432
848.244	22398
848.379	22169
848.515	22261
848.65	22135
848.786	22329
848.921	22295
849.057	22360
849.192	22318
849.328	22249
849.463	22196
849.598	22177
849.734	22090
849.869	22143
850.004	22010
850.14	22070
850.275	22116
850.41	21987
850.545	21724
850.68	21941
850.815	21926
850.95	21934
851.085	22200
851.22	22131
851.355	22112
851.49	21884
851.625	21934
851.76	21991
851.895	21922
852.03	21956
852.165	21983
852.299	22021
852.434	22025
852.569	22029
852.703	21930
852.838	22063
852.973	22017
853.107	22143
853.242	21911
853.376	21827
853.511	21717
853.645	21709
853.78	21949
853.914	21865
854.048	21759
854.183	21755
854.317	21747
854.451	21991
854.585	21842
854.72	21759
854.854	21831
854.988	21743
855.122	21724
855.256	21641
855.39	21762
855.524	21827
855.658	21819
855.792	21838
855.926	21888
856.06	21739
856.194	21922
856.327	21785
856.461	21637
856.595	21717
856.729	21686
856.862	21804
856.996	21724
857.13	21884
857.263	21934
857.397	21838
857.53	21717
857.664	21838
857.797	21778
857.931	21797
858.064	21762
858.197	21865
858.331	21701
858.464	21739
858.597	21747
858.731	21705
858.864	21778
858.997	21846
859.13	21774
859.263	21838
859.396	21972
859.529	21739
859.662	21747
859.795	21720
859.928	21793
860.061	21960
860.194	22143
860.327	21880
860.46	21736
860.592	21888
860.725	21876
860.858	21960
860.99	21835
861.123	21690
861.256	21804
861.388	21717
861.521	22481
861.653	21622
861.786	21526
861.918	21606
862.05	21701
862.183	21736
862.315	21622
862.447	21736
862.58	21652
862.712	21496
862.844	21507
862.976	21534
863.108	21629
863.24	21994
863.372	21450
863.504	21481
863.636	21519
863.768	21477
863.9	21519
864.032	21420
864.164	21424
864.296	21572
864.428	21515
864.559	21717
864.691	21477
864.823	21485
864.954	21325
865.086	21485
865.217	21496
865.349	21188
865.48	21359
865.612	21382
865.743	21530
865.875	21443
866.006	21329
866.137	21340
866.269	21485
866.4	21408
866.531	21481
866.662	21287
866.793	21321
866.924	21287
867.055	21291
867.186	21302
867.317	21291
867.448	21317
867.579	21226
867.71	21249
867.841	21112
867.972	21245
868.103	21275
868.233	21393
868.364	21321
868.495	21443
868.625	21606
868.756	21717
868.886	21557
869.017	21496
869.147	21515
869.278	21701
869.408	21504
869.539	21504
869.669	21614
869.799	21614
869.929	21724
870.06	21671
870.19	21835
870.32	21812
870.45	21895
870.58	21918
870.71	21979
870.84	22078
870.97	21930
871.1	21972
871.23	22070
871.36	22204
871.489	21922
871.619	22048
871.749	22230
871.879	22192
872.008	22276
872.138	22086
872.267	22120
872.397	22070
872.526	21918
872.656	22124
872.785	22101
872.915	22143
873.044	22188
873.173	22078
873.303	22295
873.432	22150
873.561	22257
873.69	22181
873.819	22150
873.948	22204
874.077	22230
874.206	22090
874.335	22124
874.464	22154
874.593	22318
874.722	22497
874.851	22470
874.979	22409
875.108	22546
875.237	22314
875.365	22261
875.494	22322
875.623	22459
875.751	22314
875.88	22367
876.008	22561
876.136	22573
876.265	22797
876.393	22782
876.521	22782
876.65	22767
876.778	22752
876.906	22645
877.034	22615
877.162	22752
877.29	22645
877.418	22782
877.546	22729
877.674	22725
877.802	22649
877.93	22672
878.058	22550
878.185	22603
878.313	22630
878.441	22630
878.568	22535
878.696	22550
878.824	22797
878.951	22828
879.079	22824
879.206	22999
879.333	22911
879.461	22729
879.588	22953
879.715	22904
879.842	23029
879.97	22797
880.097	22527
880.224	22557
880.351	22584
880.478	22538
880.605	22599
880.732	22592
880.859	22752
880.986	22440
881.112	22649
881.239	22310
881.366	22253
881.493	22139
881.619	22192
881.746	22226
881.872	22188
881.999	22192
882.125	21979
882.252	22192
882.378	22029
882.505	22246
882.631	21895
882.757	21975
882.883	21930
883.01	21816
883.136	21747
883.262	21797
883.388	21675
883.514	21812
883.64	21713
883.766	21816
883.892	21515
884.018	21568
884.143	21804
884.269	21717
884.395	21496
884.52	21458
884.646	21424
884.772	21393
884.897	21306
885.023	21458
885.148	21473
885.274	21603
885.399	21618
885.524	21344
885.65	21447
885.775	21374
885.9	21401
886.025	21629
886.15	21492
886.275	21389
886.4	21325
886.525	21386
886.65	21332
886.775	21355
886.9	21504
887.025	21724
887.149	21420
887.274	21237
887.399	21207
887.523	21256
887.648	21116
887.773	21154
887.897	21317
888.021	21355
888.146	21142
888.27	21199
888.395	21329
888.519	21214
888.643	21321
888.767	21241
888.891	21108
889.015	20994
889.139	20990
889.263	21028
889.387	21070
889.511	21116
889.635	21051
889.759	20914
889.883	20925
890.006	21028
890.13	21089
890.254	20910
890.377	20899
890.501	20773
890.624	20735
890.748	20781
890.871	20621
890.995	20560
891.118	20495
891.241	20640
891.364	20522
891.488	20750
891.611	20651
891.734	20651
891.857	20549
891.98	20499
892.103	20602
892.226	20663
892.349	20511
892.471	20412
892.594	20473
892.717	20507
892.839	20492
892.962	20442
893.085	20579
893.207	20434
893.33	20256
893.452	20495
893.575	20476
893.697	20484
893.819	20476
893.941	20579
894.064	20667
894.186	20366
894.308	20358
894.43	20499
894.552	20629
894.674	20480
894.796	20370
894.918	20366
895.04	20355
895.161	20431
895.283	20495
895.405	20305
895.526	20412
895.648	20442
895.769	20533
895.891	20355
896.012	20560
896.134	20438
896.255	20465
896.376	20377
896.498	20549
896.619	20537
896.74	20537
896.861	20568
896.982	20731
897.103	20762
897.224	20773
897.345	20731
897.466	20587
897.587	20678
897.708	20758
897.828	20712
897.949	20606
898.07	20389
898.19	20560
898.311	20648
898.431	20511
898.552	20568
898.672	20655
898.792	20743
898.913	20682
899.033	20412
899.153	20396
899.273	20355
899.393	20427
899.513	20465
899.633	20381
899.753	20404
899.873	20351
899.993	20442
900.113	20366
900.232	20370
900.352	20358
900.472	20206
900.591	20126
900.711	20161
900.83	20073
900.95	20240
901.069	20282
901.189	20130
901.308	19898
901.427	19746
901.546	19742
901.665	19864
901.784	19719
901.904	19685
902.023	19434
902.141	19320
902.26	19179
902.379	19316
902.498	19232
902.617	19202
902.735	19236
902.854	19179
902.973	19046
903.091	18985
903.21	18928
903.328	18810
903.446	18833
903.565	18661
903.683	18719
903.801	18650
903.919	18688
904.038	18650
904.156	18475
904.274	18578
904.392	18498
904.51	18555
904.627	18517
904.745	18422
904.863	18506
904.981	18353
905.098	18209
905.216	18186
905.334	18167
905.451	18194
905.569	18072
905.686	18266
905.803	18091
905.921	17996
906.038	17954
906.155	17939
906.272	17809
906.389	17882
906.506	17668
906.623	17695
906.74	17703
906.857	17596
906.974	17543
907.091	17737
907.208	17817
907.324	17733
907.441	17630
907.557	17395
907.674	17395
907.79	17341
907.907	17429
908.023	17459
908.139	17383
908.256	17269
908.372	17235
908.488	17254
908.604	17128
908.72	17018
908.836	17056
908.952	17075
909.068	17136
909.184	17337
909.3	17166
909.415	17181
909.531	17212
909.647	16911
909.762	16767
909.878	16759
909.993	16759
910.108	16801
910.224	16725
910.339	16816
910.454	16660
910.57	16687
910.685	16584
910.8	16824
910.915	16755
911.03	16626
911.145	16348
911.259	16352
911.374	16443
911.489	16344
911.604	16333
911.718	16188
911.833	16169
911.947	16029
912.062	16010
912.176	16166
912.291	16154
912.405	16071
912.519	16246
912.633	16299
912.748	16207
912.862	16021
912.976	16124
913.09	15846
913.204	15968
913.318	15979
913.431	16021
913.545	16044
913.659	16181
913.772	16048
913.886	15838
914	15736
914.113	15846
914.226	15823
914.34	15732
914.453	15728
914.566	15762
914.68	15701
914.793	15644
914.906	15500
915.019	15321
915.132	15329
915.245	15412
915.358	15344
915.47	15447
915.583	15310
915.696	15401
915.809	15511
915.921	15458
916.034	15256
916.146	15154
916.259	15222
916.371	15340
916.483	15275
916.595	15241
916.708	15256
916.82	15199
916.932	15169
917.044	15173
917.156	15146
917.268	14986
917.38	15043
917.491	14933
917.603	14967
917.715	15066
917.826	15085
917.938	14986
918.049	14750
918.161	14963
918.272	15089
918.384	15089
918.495	14876
918.606	14746
918.717	14670
918.828	14686
918.939	14762
919.05	14606
919.161	14762
919.272	14473
919.383	14568
919.494	14811
919.604	14941
919.715	14727
919.826	14636
919.936	14705
920.047	14773
920.157	14762
920.267	14982
920.378	14678
920.488	14629
920.598	14796
920.708	15001
920.818	14876
920.928	14826
921.038	15028
921.148	15013
921.258	14731
921.368	14602
921.477	14457
921.587	14377
921.697	14305
921.806	14396
921.916	14301
922.025	14111
922.134	14065
922.244	14043
922.353	14084
922.462	13921
922.571	13913
922.68	13746
922.789	13757
922.898	13704
923.007	13750
923.116	13791
923.224	13632
923.333	13715
923.442	13590
923.55	13506
923.659	13628
923.767	13639
923.876	13529
923.984	13647
924.092	13483
924.201	13499
924.309	13464
924.417	13430
924.525	13400
924.633	13422
924.741	14370
924.849	13236
924.956	13384
925.064	13110
925.172	13057
925.279	13190
925.387	13202
925.494	13080
925.602	13232
925.709	13194
925.816	13038
925.924	13137
926.031	13221
926.138	13061
926.245	13168
926.352	12989
926.459	13149
926.566	13133
926.673	13015
926.779	12886
926.886	12947
926.993	12757
927.099	12673
927.206	12696
927.312	12612
927.419	12726
927.525	12650
927.631	12768
927.737	12574
927.843	12623
927.95	12353
928.056	12563
928.162	12433
928.267	12540
928.373	13057
928.479	12582
928.585	12357
928.69	12471
928.796	12563
928.901	12357
929.007	12205
929.112	12357
929.218	12300
929.323	12228
929.428	12194
929.533	12372
929.638	12091
929.743	12190
929.848	12190
929.953	12133
930.058	12060
930.163	11882
930.267	11954
930.372	12038
930.477	11885
930.581	12057
930.685	11980
930.79	11901
930.894	11798
930.998	11779
931.103	11783
931.207	11577
931.311	11524
931.415	11467
931.519	11235
931.623	11136
