Data from test_V78500241_1114.txt Node
Date: Fri Mar 25 15:17:36 CST 2022
User: usil
Spectrometer: V785-0024
Trigger mode: 0
Integration Time (sec): 4.000000E-1
Scans to average: 1
Nonlinearity correction enabled: false
Boxcar width: 0
Storing dark spectrum: false
XAxis mode: Wavelengths
Number of Pixels in Spectrum: 1024
>>>>>Begin Spectral Data<<<<<
801.071	28029
801.214	27812
801.356	27842
801.499	27770
801.641	27549
801.783	27606
801.926	27576
802.068	27778
802.211	27545
802.353	27580
802.496	27317
802.638	27272
802.78	27268
802.923	27142
803.065	27154
803.208	27355
803.35	27294
803.492	27466
803.635	27431
803.777	27306
803.919	27420
804.061	27755
804.204	27572
804.346	27279
804.488	27416
804.63	27523
804.773	27386
804.915	27504
805.057	27648
805.199	27450
805.341	27652
805.483	27580
805.626	27492
805.768	27313
805.91	27603
806.052	27656
806.194	27618
806.336	27785
806.478	27789
806.62	27606
806.762	27743
806.904	27899
807.046	28063
807.188	28177
807.33	28173
807.472	28048
807.614	27892
807.756	27987
807.898	27968
808.04	27911
808.182	27865
808.324	27789
808.465	27956
808.607	28078
808.749	28284
808.891	28310
809.033	28432
809.174	28299
809.316	28299
809.458	28322
809.6	28211
809.741	28363
809.883	28443
810.025	28481
810.166	28607
810.308	28622
810.45	28550
810.591	28329
810.733	28363
810.875	28257
811.016	28249
811.158	28067
811.299	28489
811.441	28447
811.582	28432
811.724	28363
811.865	28192
812.007	28181
812.148	28211
812.29	28284
812.431	28565
812.573	28672
812.714	28687
812.855	28782
812.997	29010
813.138	28824
813.279	28953
813.421	28778
813.562	28858
813.703	28615
813.845	28546
813.986	28280
814.127	28097
814.268	28044
814.41	28040
814.551	27869
814.692	28074
814.833	27918
814.974	27831
815.115	28032
815.256	27812
815.397	27808
815.539	27953
815.68	27865
815.821	27759
815.962	27831
816.103	27766
816.244	27774
816.385	27679
816.526	27492
816.666	27427
816.807	27291
816.948	27313
817.089	27435
817.23	27313
817.371	27412
817.512	27245
817.653	27359
817.793	27237
817.934	27252
818.075	27310
818.216	27233
818.356	27199
818.497	27108
818.638	26986
818.778	27043
818.919	27119
819.06	27066
819.2	27207
819.341	27340
819.481	27298
819.622	27568
819.762	27637
819.903	27538
820.043	27378
820.184	27504
820.324	27359
820.465	27492
820.605	27481
820.746	27405
820.886	27351
821.026	27344
821.167	27344
821.307	27329
821.447	27374
821.588	27241
821.728	27112
821.868	26872
822.008	26811
822.149	26754
822.289	26811
822.429	26556
822.569	26309
822.709	26575
822.849	26134
822.99	26317
823.13	26355
823.27	26248
823.41	26145
823.55	26081
823.69	26115
823.83	26229
823.97	26081
824.11	25928
824.25	25921
824.389	25955
824.529	25970
824.669	25925
824.809	26172
824.949	26031
825.089	25966
825.228	26092
825.368	25765
825.508	25700
825.648	25841
825.787	25852
825.927	25871
826.067	25795
826.206	25879
826.346	25761
826.485	25860
826.625	25776
826.765	25951
826.904	25742
827.044	25605
827.183	25674
827.323	25464
827.462	25620
827.601	25529
827.741	25422
827.88	25586
828.02	25373
828.159	25529
828.298	25613
828.437	25518
828.577	25518
828.716	25685
828.855	25422
828.994	25304
829.134	25377
829.273	25293
829.412	25114
829.551	25259
829.69	25206
829.829	25407
829.968	25407
830.107	25259
830.246	25206
830.385	25274
830.524	25000
830.663	24992
830.802	25046
830.941	24875
831.08	24935
831.219	25057
831.357	24935
831.496	25072
831.635	24928
831.774	24901
831.913	24814
832.051	24681
832.19	24681
832.329	24631
832.467	24627
832.606	24665
832.744	24593
832.883	24498
833.022	24521
833.16	24540
833.299	24627
833.437	24722
833.576	24555
833.714	24570
833.852	24757
833.991	24726
834.129	24650
834.267	24848
834.406	24627
834.544	24654
834.682	24612
834.821	24551
834.959	24760
835.097	24513
835.235	24696
835.373	24601
835.511	24639
835.65	24445
835.788	24574
835.926	24426
836.064	24372
836.202	24273
836.34	24551
836.478	24483
836.615	24490
836.753	24433
836.891	24467
837.029	24623
837.167	24311
837.305	24372
837.443	24372
837.58	24254
837.718	24327
837.856	24376
837.993	24361
838.131	24266
838.269	24228
838.406	24182
838.544	24007
838.681	23950
838.819	23931
838.956	23824
839.094	23775
839.231	23942
839.369	23999
839.506	24159
839.643	24091
839.781	23973
839.918	23634
840.055	23676
840.193	23855
840.33	23551
840.467	23710
840.604	23828
840.742	23988
840.879	23573
841.016	23589
841.153	23566
841.29	23707
841.427	23657
841.564	23741
841.701	23798
841.838	23741
841.975	23615
842.112	23524
842.249	23528
842.385	23505
842.522	23786
842.659	23463
842.796	23436
842.933	23387
843.069	23467
843.206	23353
843.343	23463
843.479	23429
843.616	23372
843.752	23239
843.889	23364
844.025	23372
844.162	23220
844.298	23349
844.435	23292
844.571	23227
844.708	23227
844.844	23391
844.98	23440
845.117	23200
845.253	23121
845.389	23124
845.525	23113
845.661	23189
845.798	22961
845.934	23010
846.07	22889
846.206	23075
846.342	23090
846.478	22976
846.614	22805
846.75	22683
846.886	22626
847.022	22828
847.158	22736
847.294	22698
847.429	22618
847.565	22820
847.701	22904
847.837	22440
847.972	22413
848.108	22523
848.244	22455
848.379	22382
848.515	22284
848.65	22344
848.786	22242
848.921	22287
849.057	22470
849.192	22413
849.328	22363
849.463	22249
849.598	22242
849.734	22215
849.869	22128
850.004	22109
850.14	21998
850.275	22109
850.41	21964
850.545	21941
850.68	21949
850.815	22074
850.95	22090
851.085	22249
851.22	22257
851.355	22067
851.49	21987
851.625	22036
851.76	22025
851.895	22036
852.03	22002
852.165	21998
852.299	22131
852.434	22006
852.569	22048
852.703	21998
852.838	22059
852.973	22215
853.107	22162
853.242	22097
853.376	21861
853.511	21762
853.645	21797
853.78	22006
853.914	21869
854.048	21888
854.183	21899
854.317	21987
854.451	22051
854.585	21880
854.72	21968
854.854	21865
854.988	21823
855.122	21846
855.256	21652
855.39	21949
855.524	22002
855.658	21926
855.792	21937
855.926	21903
856.06	21953
856.194	21949
856.327	21774
856.461	21766
856.595	21903
856.729	21895
856.862	22067
856.996	21945
857.13	21956
857.263	21934
857.397	21983
857.53	21922
857.664	21941
857.797	21934
857.931	22017
858.064	21922
858.197	22029
858.331	21895
858.464	21857
858.597	21766
858.731	21819
858.864	21899
858.997	21865
859.13	21873
859.263	21785
859.396	22120
859.529	21831
859.662	21869
859.795	21854
859.928	21953
860.061	22086
860.194	22048
860.327	22063
860.46	21934
860.592	22074
860.725	22082
860.858	22032
860.99	21937
861.123	21747
861.256	21812
861.388	21808
861.521	22607
861.653	21694
861.786	21755
861.918	21686
862.05	21842
862.183	21857
862.315	21850
862.447	21918
862.58	21797
862.712	21610
862.844	21622
862.976	21576
863.108	21614
863.24	21987
863.372	21603
863.504	21576
863.636	21561
863.768	21641
863.9	21629
864.032	21690
864.164	21595
864.296	21625
864.428	21614
864.559	21652
864.691	21599
864.823	21603
864.954	21572
865.086	21564
865.217	21447
865.349	21454
865.48	21679
865.612	21420
865.743	21694
865.875	21496
866.006	21466
866.137	21500
866.269	21412
866.4	21458
866.531	21408
866.662	21447
866.793	21393
866.924	21545
867.055	21515
867.186	21447
867.317	21374
867.448	21367
867.579	21397
867.71	21408
867.841	21302
867.972	21412
868.103	21340
868.233	21477
868.364	21469
868.495	21454
868.625	21591
868.756	21770
868.886	21606
869.017	21717
869.147	21838
869.278	21728
869.408	21728
869.539	21542
869.669	21800
869.799	21743
869.929	21842
870.06	21785
870.19	21892
870.32	21884
870.45	22010
870.58	22120
870.71	22128
870.84	22192
870.97	22097
871.1	22063
871.23	22181
871.36	22223
871.489	22097
871.619	22246
871.749	22329
871.879	22230
872.008	22318
872.138	22188
872.267	22303
872.397	22048
872.526	22025
872.656	21979
872.785	22082
872.915	22196
873.044	22363
873.173	22204
873.303	22246
873.432	22344
873.561	22363
873.69	22322
873.819	22207
873.948	22360
874.077	22276
874.206	22253
874.335	22257
874.464	22265
874.593	22474
874.722	22523
874.851	22436
874.979	22504
875.108	22641
875.237	22542
875.365	22390
875.494	22417
875.623	22527
875.751	22432
875.88	22405
876.008	22660
876.136	22637
876.265	22972
876.393	22991
876.521	22980
876.65	23041
876.778	22793
876.906	22927
877.034	22866
877.162	22847
877.29	22748
877.418	22755
877.546	22801
877.674	22812
877.802	22854
877.93	22725
878.058	22786
878.185	22550
878.313	22733
878.441	22752
878.568	22694
878.696	22885
878.824	22946
878.951	22835
879.079	22953
879.206	23102
879.333	23029
879.461	22869
879.588	23022
879.715	22984
879.842	23136
879.97	22786
880.097	22713
880.224	22626
880.351	22694
880.478	22622
880.605	22653
880.732	22626
880.859	22828
880.986	22607
881.112	22675
881.239	22535
881.366	22398
881.493	22287
881.619	22230
881.746	22162
881.872	22169
881.999	22169
882.125	22181
882.252	22280
882.378	22200
882.505	22291
882.631	22120
882.757	21987
882.883	22017
883.01	21945
883.136	21922
883.262	21785
883.388	21713
883.514	21907
883.64	21968
883.766	21797
883.892	21698
884.018	21732
884.143	21865
884.269	21888
884.395	21648
884.52	21633
884.646	21496
884.772	21367
884.897	21488
885.023	21629
885.148	21622
885.274	21641
885.399	21648
885.524	21530
885.65	21534
885.775	21515
885.9	21504
886.025	21580
886.15	21534
886.275	21424
886.4	21386
886.525	21515
886.65	21431
886.775	21591
886.9	21572
887.025	21629
887.149	21462
887.274	21355
887.399	21355
887.523	21447
887.648	21351
887.773	21256
887.897	21435
888.021	21325
888.146	21173
888.27	21393
888.395	21447
888.519	21233
888.643	21275
888.767	21279
888.891	21188
889.015	21233
889.139	21119
889.263	20956
889.387	21146
889.511	21306
889.635	21264
889.759	21081
889.883	21058
890.006	21142
890.13	21207
890.254	21047
890.377	21093
890.501	20899
890.624	20891
890.748	20838
890.871	20804
890.995	20606
891.118	20735
891.241	20743
891.364	20689
891.488	20750
891.611	20750
891.734	20678
891.857	20735
891.98	20609
892.103	20670
892.226	20727
892.349	20590
892.471	20431
892.594	20640
892.717	20587
892.839	20541
892.962	20533
893.085	20560
893.207	20522
893.33	20431
893.452	20454
893.575	20598
893.697	20594
893.819	20750
893.941	20716
894.064	20640
894.186	20507
894.308	20457
894.43	20625
894.552	20617
894.674	20602
894.796	20408
894.918	20617
895.04	20495
895.161	20686
895.283	20530
895.405	20442
895.526	20480
895.648	20514
895.769	20640
895.891	20644
896.012	20609
896.134	20575
896.255	20530
896.376	20465
896.498	20423
896.619	20484
896.74	20503
896.861	20667
896.982	20823
897.103	20910
897.224	20724
897.345	20777
897.466	20693
897.587	20754
897.708	20849
897.828	20693
897.949	20670
898.07	20575
898.19	20640
898.311	20762
898.431	20682
898.552	20636
898.672	20807
898.792	20716
898.913	20678
899.033	20705
899.153	20621
899.273	20377
899.393	20488
899.513	20415
899.633	20389
899.753	20530
899.873	20442
899.993	20419
900.113	20438
900.232	20518
900.352	20408
900.472	20362
900.591	20202
900.711	20278
900.83	20130
900.95	20206
901.069	20358
901.189	20084
901.308	19909
901.427	19795
901.546	19799
901.665	19799
901.784	19795
901.904	19677
902.023	19578
902.141	19434
902.26	19297
902.379	19407
902.498	19209
902.617	19236
902.735	19396
902.854	19320
902.973	19118
903.091	19023
903.21	18901
903.328	18939
903.446	18894
903.565	18867
903.683	18867
903.801	18669
903.919	18677
904.038	18688
904.156	18486
904.274	18585
904.392	18563
904.51	18471
904.627	18414
904.745	18506
904.863	18570
904.981	18399
905.098	18163
905.216	18388
905.334	18308
905.451	18258
905.569	18228
905.686	18262
905.803	18228
905.921	18022
906.038	18072
906.155	18068
906.272	17866
906.389	17996
906.506	17821
906.623	17798
906.74	17794
906.857	17676
906.974	17600
907.091	17870
907.208	17897
907.324	17729
907.441	17577
907.557	17516
907.674	17535
907.79	17486
907.907	17512
908.023	17512
908.139	17467
908.256	17467
908.372	17322
908.488	17341
908.604	17216
908.72	17208
908.836	17254
908.952	17159
909.068	17166
909.184	17303
909.3	17124
909.415	17307
909.531	17197
909.647	16953
909.762	16892
909.878	16915
909.993	16946
910.108	16930
910.224	16908
910.339	16809
910.454	16869
910.57	16672
910.685	16759
910.8	16877
910.915	16869
911.03	16679
911.145	16538
911.259	16443
911.374	16561
911.489	16443
911.604	16363
911.718	16291
911.833	16280
911.947	16116
912.062	16101
912.176	16181
912.291	16215
912.405	16200
912.519	16386
912.633	16417
912.748	16230
912.862	16200
912.976	16071
913.09	15922
913.204	16013
913.318	16032
913.431	16143
913.545	16112
913.659	16029
913.772	15937
913.886	15922
914	15835
914.113	15876
914.226	16025
914.34	15793
914.453	15720
914.566	15781
914.68	15797
914.793	15694
914.906	15458
915.019	15492
915.132	15439
915.245	15363
915.358	15507
915.47	15538
915.583	15485
915.696	15473
915.809	15519
915.921	15564
916.034	15408
916.146	15348
916.259	15348
916.371	15428
916.483	15367
916.595	15294
916.708	15256
916.82	15062
916.932	15279
917.044	15161
917.156	15146
917.268	15043
917.38	15127
917.491	15112
917.603	15070
917.715	15062
917.826	15119
917.938	15077
918.049	14918
918.161	15028
918.272	15058
918.384	15043
918.495	15077
918.606	14971
918.717	14785
918.828	14838
918.939	14937
919.05	14781
919.161	14811
919.272	14621
919.383	14727
919.494	14842
919.604	15032
919.715	14857
919.826	14602
919.936	14804
920.047	14842
920.157	14914
920.267	14925
920.378	14876
920.488	14792
920.598	14979
920.708	15058
920.818	14952
920.928	14979
921.038	15043
921.148	15047
921.258	14762
921.368	14636
921.477	14579
921.587	14507
921.697	14366
921.806	14507
921.916	14381
922.025	14267
922.134	14180
922.244	14119
922.353	14149
922.462	14069
922.571	14119
922.68	13921
922.789	13753
922.898	13883
923.007	13757
923.116	13849
923.224	13799
923.333	13761
923.442	13708
923.55	13674
923.659	13681
923.767	13734
923.876	13700
923.984	13712
924.092	13544
924.201	13575
924.309	13506
924.417	13540
924.525	13495
924.633	13533
924.741	14415
924.849	13244
924.956	13487
925.064	13206
925.172	13084
925.279	13179
925.387	13251
925.494	13228
925.602	13346
925.709	13236
925.816	13107
925.924	13206
926.031	13316
926.138	13175
926.245	13156
926.352	13103
926.459	13255
926.566	13278
926.673	13069
926.779	13015
926.886	12875
926.993	12909
927.099	12821
927.206	12703
927.312	12677
927.419	12833
927.525	12749
927.631	12798
927.737	12646
927.843	12669
927.95	12528
928.056	12604
928.162	12612
928.267	12681
928.373	13141
928.479	12662
928.585	12483
928.69	12608
928.796	12525
928.901	12502
929.007	12239
929.112	12456
929.218	12441
929.323	12311
929.428	12346
929.533	12410
929.638	12220
929.743	12243
929.848	12247
929.953	12239
930.058	12102
930.163	12072
930.267	11935
930.372	12114
930.477	11908
930.581	12186
930.685	12022
930.79	11802
930.894	11878
930.998	11866
931.103	11939
931.207	11638
931.311	11505
931.415	11387
931.519	11318
931.623	11345
