Data from test_V78500241_1434.txt Node
Date: Fri Mar 25 15:19:50 CST 2022
User: usil
Spectrometer: V785-0024
Trigger mode: 0
Integration Time (sec): 4.000000E-1
Scans to average: 1
Nonlinearity correction enabled: false
Boxcar width: 0
Storing dark spectrum: false
XAxis mode: Wavelengths
Number of Pixels in Spectrum: 1024
>>>>>Begin Spectral Data<<<<<
801.071	27934
801.214	28017
801.356	27797
801.499	27747
801.641	27568
801.783	27614
801.926	27633
802.068	27686
802.211	27625
802.353	27374
802.496	27321
802.638	27359
802.78	27374
802.923	27283
803.065	27214
803.208	27066
803.35	27310
803.492	27378
803.635	27325
803.777	27306
803.919	27397
804.061	27743
804.204	27427
804.346	27408
804.488	27424
804.63	27450
804.773	27443
804.915	27542
805.057	27496
805.199	27386
805.341	27504
805.483	27717
805.626	27625
805.768	27576
805.91	27618
806.052	27587
806.194	27511
806.336	27671
806.478	27557
806.62	27557
806.762	27705
806.904	27892
807.046	28017
807.188	28090
807.33	28017
807.472	28051
807.614	28120
807.756	27998
807.898	27884
808.04	27857
808.182	27983
808.324	27854
808.465	28010
808.607	28219
808.749	28329
808.891	28314
809.033	28417
809.174	28249
809.316	28090
809.458	28325
809.6	28352
809.741	28413
809.883	28398
810.025	28596
810.166	28474
810.308	28615
810.45	28421
810.591	28440
810.733	28329
810.875	28268
811.016	28036
811.158	28124
811.299	28333
811.441	28337
811.582	28299
811.724	28382
811.865	28230
812.007	28246
812.148	28299
812.29	28261
812.431	28432
812.573	28580
812.714	28771
812.855	28740
812.997	28885
813.138	28904
813.279	29018
813.421	28820
813.562	28736
813.703	28485
813.845	28440
813.986	28226
814.127	28017
814.268	27873
814.41	27937
814.551	27979
814.692	27991
814.833	27838
814.974	27964
815.115	27922
815.256	27781
815.397	27926
815.539	27991
815.68	27812
815.821	27705
815.962	27732
816.103	27895
816.244	27679
816.385	27526
816.526	27564
816.666	27306
816.807	27218
816.948	27348
817.089	27245
817.23	27207
817.371	27313
817.512	27165
817.653	27176
817.793	27108
817.934	27245
818.075	27268
818.216	27150
818.356	27173
818.497	27096
818.638	26986
818.778	26986
818.919	26952
819.06	27085
819.2	27173
819.341	27169
819.481	27184
819.622	27252
819.762	27492
819.903	27450
820.043	27351
820.184	27336
820.324	27363
820.465	27382
820.605	27378
820.746	27135
820.886	27161
821.026	27306
821.167	27336
821.307	27252
821.447	27317
821.588	27146
821.728	27051
821.868	26876
822.008	26712
822.149	26708
822.289	26636
822.429	26438
822.569	26511
822.709	26343
822.849	26240
822.99	26400
823.13	26176
823.27	26301
823.41	26218
823.55	26107
823.69	26138
823.83	26031
823.97	25940
824.11	25909
824.25	25871
824.389	25818
824.529	26005
824.669	25852
824.809	26035
824.949	26020
825.089	25947
825.228	25940
825.368	25788
825.508	25601
825.648	25776
825.787	25833
825.927	25830
826.067	25742
826.206	25666
826.346	25769
826.485	25746
826.625	25818
826.765	25746
826.904	25753
827.044	25594
827.183	25575
827.323	25415
827.462	25601
827.601	25384
827.741	25438
827.88	25468
828.02	25335
828.159	25472
828.298	25506
828.437	25449
828.577	25422
828.716	25499
828.855	25270
828.994	25141
829.134	25122
829.273	25324
829.412	25031
829.551	25213
829.69	25080
829.829	25164
829.968	25145
830.107	25236
830.246	25198
830.385	25008
830.524	25107
830.663	24966
830.802	24863
830.941	24696
831.08	24844
831.219	24909
831.357	24863
831.496	24909
831.635	24859
831.774	24760
831.913	24631
832.051	24593
832.19	24555
832.329	24585
832.467	24410
832.606	24220
832.744	24445
832.883	24467
833.022	24433
833.16	24426
833.299	24513
833.437	24414
833.576	24479
833.714	24403
833.852	24403
833.991	24456
834.129	24498
834.267	24502
834.406	24513
834.544	24525
834.682	24642
834.821	24475
834.959	24536
835.097	24486
835.235	24479
835.373	24517
835.511	24509
835.65	24441
835.788	24254
835.926	24327
836.064	24140
836.202	24087
836.34	24456
836.478	24483
836.615	24270
836.753	24254
836.891	24448
837.029	24414
837.167	24315
837.305	24178
837.443	24205
837.58	24087
837.718	24205
837.856	24247
837.993	24117
838.131	24129
838.269	24007
838.406	24064
838.544	23923
838.681	23908
838.819	23691
838.956	23520
839.094	23585
839.231	23767
839.369	23821
839.506	23992
839.643	23813
839.781	23608
839.918	23524
840.055	23623
840.193	23608
840.33	23585
840.467	23444
840.604	23391
840.742	23779
840.879	23292
841.016	23493
841.153	23414
841.29	23520
841.427	23429
841.564	23615
841.701	23474
841.838	23436
841.975	23353
842.112	23421
842.249	23345
842.385	23212
842.522	23493
842.659	23254
842.796	23208
842.933	23288
843.069	23261
843.206	23140
843.343	23284
843.479	23231
843.616	23265
843.752	23166
843.889	23094
844.025	23239
844.162	22934
844.298	23178
844.435	23117
844.571	22938
844.708	23136
844.844	23105
844.98	23216
845.117	23216
845.253	23022
845.389	22782
845.525	22873
845.661	22904
845.798	22904
845.934	22790
846.07	22839
846.206	22862
846.342	22866
846.478	22748
846.614	22542
846.75	22512
846.886	22531
847.022	22573
847.158	22569
847.294	22443
847.429	22451
847.565	22459
847.701	22816
847.837	22268
847.972	22325
848.108	22341
848.244	22363
848.379	22200
848.515	22044
848.65	22124
848.786	22177
848.921	22169
849.057	22128
849.192	22230
849.328	22112
849.463	21945
849.598	22044
849.734	21991
849.869	21960
850.004	21930
850.14	21899
850.275	21941
850.41	21857
850.545	21793
850.68	21789
850.815	21838
850.95	21846
851.085	22036
851.22	21884
851.355	21759
851.49	21766
851.625	21762
851.76	21880
851.895	21755
852.03	21747
852.165	21850
852.299	21922
852.434	21899
852.569	21911
852.703	21873
852.838	21915
852.973	22025
853.107	21968
853.242	21789
853.376	21652
853.511	21610
853.645	21511
853.78	21743
853.914	21720
854.048	21660
854.183	21705
854.317	21705
854.451	21762
854.585	21751
854.72	21690
854.854	21819
854.988	21709
855.122	21622
855.256	21553
855.39	21774
855.524	21717
855.658	21698
855.792	21656
855.926	21759
856.06	21694
856.194	21656
856.327	21595
856.461	21633
856.595	21610
856.729	21629
856.862	21797
856.996	21743
857.13	21759
857.263	21762
857.397	21724
857.53	21622
857.664	21663
857.797	21732
857.931	21724
858.064	21739
858.197	21713
858.331	21591
858.464	21568
858.597	21561
858.731	21625
858.864	21542
858.997	21751
859.13	21686
859.263	21644
859.396	21709
859.529	21564
859.662	21622
859.795	21606
859.928	21675
860.061	21876
860.194	21842
860.327	21762
860.46	21618
860.592	21895
860.725	21720
860.858	21808
860.99	21686
861.123	21641
861.256	21690
861.388	21713
861.521	22093
861.653	21663
861.786	21595
861.918	21534
862.05	21542
862.183	21545
862.315	21500
862.447	21622
862.58	21542
862.712	21428
862.844	21332
862.976	21485
863.108	21454
863.24	21705
863.372	21298
863.504	21401
863.636	21329
863.768	21511
863.9	21454
864.032	21275
864.164	21386
864.296	21507
864.428	21583
864.559	21408
864.691	21481
864.823	21325
864.954	21298
865.086	21359
865.217	21252
865.349	21165
865.48	21249
865.612	21214
865.743	21389
865.875	21294
866.006	21283
866.137	21173
866.269	21272
866.4	21154
866.531	21192
866.662	21161
866.793	21192
866.924	21264
867.055	21241
867.186	21287
867.317	21211
867.448	21108
867.579	21135
867.71	21093
867.841	21104
867.972	21306
868.103	21218
868.233	21256
868.364	21146
868.495	21329
868.625	21367
868.756	21500
868.886	21348
869.017	21485
869.147	21671
869.278	21595
869.408	21492
869.539	21435
869.669	21481
869.799	21428
869.929	21633
870.06	21686
870.19	21641
870.32	21618
870.45	21789
870.58	21972
870.71	21823
870.84	21945
870.97	21850
871.1	21793
871.23	21991
871.36	21953
871.489	21846
871.619	21960
871.749	21968
871.879	22112
872.008	22181
872.138	22017
872.267	22006
872.397	22006
872.526	21800
872.656	21903
872.785	21835
872.915	22162
873.044	22013
873.173	22032
873.303	21964
873.432	22006
873.561	22074
873.69	22013
873.819	22059
873.948	22169
874.077	22021
874.206	21991
874.335	22059
874.464	22105
874.593	22341
874.722	22261
874.851	22287
874.979	22280
875.108	22352
875.237	22207
875.365	22249
875.494	22215
875.623	22375
875.751	22158
875.88	22306
876.008	22386
876.136	22428
876.265	22656
876.393	22786
876.521	22721
876.65	22771
876.778	22694
876.906	22577
877.034	22542
877.162	22622
877.29	22588
877.418	22668
877.546	22580
877.674	22694
877.802	22573
877.93	22527
878.058	22713
878.185	22550
878.313	22569
878.441	22542
878.568	22535
878.696	22485
878.824	22592
878.951	22771
879.079	22733
879.206	22896
879.333	22710
879.461	22683
879.588	22660
879.715	22675
879.842	22797
879.97	22763
880.097	22428
880.224	22344
880.351	22459
880.478	22478
880.605	22474
880.732	22318
880.859	22634
880.986	22382
881.112	22478
881.239	22314
881.366	22196
881.493	22109
881.619	21991
881.746	21911
881.872	21987
881.999	22021
882.125	21998
882.252	21926
882.378	21915
882.505	22124
882.631	21663
882.757	21739
882.883	21774
883.01	21739
883.136	21644
883.262	21511
883.388	21603
883.514	21701
883.64	21625
883.766	21561
883.892	21405
884.018	21443
884.143	21583
884.269	21606
884.395	21279
884.52	21466
884.646	21408
884.772	21298
884.897	21412
885.023	21252
885.148	21336
885.274	21340
885.399	21344
885.524	21405
885.65	21348
885.775	21302
885.9	21443
886.025	21428
886.15	21435
886.275	21355
886.4	21233
886.525	21412
886.65	21291
886.775	21199
886.9	21310
887.025	21583
887.149	21260
887.274	21096
887.399	21199
887.523	21093
887.648	21093
887.773	20986
887.897	21135
888.021	21150
888.146	21127
888.27	21104
888.395	21169
888.519	21146
888.643	21093
888.767	21207
888.891	21020
889.015	20883
889.139	20887
889.263	20921
889.387	20956
889.511	21070
889.635	21009
889.759	20853
889.883	20883
890.006	20941
890.13	21020
890.254	20853
890.377	20845
890.501	20697
890.624	20712
890.748	20613
890.871	20674
890.995	20511
891.118	20374
891.241	20343
891.364	20374
891.488	20530
891.611	20396
891.734	20518
891.857	20434
891.98	20579
892.103	20587
892.226	20408
892.349	20343
892.471	20263
892.594	20362
892.717	20339
892.839	20294
892.962	20438
893.085	20362
893.207	20328
893.33	20206
893.452	20187
893.575	20404
893.697	20225
893.819	20362
893.941	20533
894.064	20568
894.186	20298
894.308	20248
894.43	20503
894.552	20499
894.674	20362
894.796	20210
894.918	20206
895.04	20408
895.161	20404
895.283	20362
895.405	20210
895.526	20240
895.648	20301
895.769	20237
895.891	20377
896.012	20415
896.134	20320
896.255	20336
896.376	20305
896.498	20328
896.619	20324
896.74	20374
896.861	20465
896.982	20705
897.103	20819
897.224	20488
897.345	20587
897.466	20533
897.587	20541
897.708	20705
897.828	20537
897.949	20488
898.07	20450
898.19	20484
898.311	20651
898.431	20469
898.552	20560
898.672	20636
898.792	20594
898.913	20469
899.033	20419
899.153	20408
899.273	20073
899.393	20324
899.513	20294
899.633	20339
899.753	20240
899.873	20355
899.993	20374
900.113	20362
900.232	20400
900.352	20130
900.472	20221
900.591	20119
900.711	19921
900.83	19989
900.95	20130
901.069	20130
901.189	19925
901.308	19776
901.427	19681
901.546	19624
901.665	19624
901.784	19624
901.904	19674
902.023	19297
902.141	19183
902.26	19206
902.379	19232
902.498	19145
902.617	19076
902.735	19213
902.854	19171
902.973	19076
903.091	18817
903.21	18837
903.328	18939
903.446	18798
903.565	18692
903.683	18677
903.801	18521
903.919	18593
904.038	18589
904.156	18388
904.274	18388
904.392	18361
904.51	18422
904.627	18350
904.745	18369
904.863	18437
904.981	18228
905.098	18095
905.216	18106
905.334	18102
905.451	18057
905.569	18026
905.686	18030
905.803	17977
905.921	17790
906.038	17916
906.155	17828
906.272	17832
906.389	17680
906.506	17585
906.623	17646
906.74	17539
906.857	17406
906.974	17486
907.091	17676
907.208	17707
907.324	17539
907.441	17528
907.557	17402
907.674	17448
907.79	17193
907.907	17223
908.023	17379
908.139	17303
908.256	17258
908.372	17174
908.488	17246
908.604	17041
908.72	17056
908.836	17029
908.952	17025
909.068	17079
909.184	17086
909.3	17014
909.415	17102
909.531	17083
909.647	16755
909.762	16733
909.878	16752
909.993	16687
910.108	16812
910.224	16771
910.339	16687
910.454	16577
910.57	16523
910.685	16508
910.8	16733
910.915	16710
911.03	16497
911.145	16360
911.259	16314
911.374	16337
911.489	16223
911.604	16204
911.718	16063
911.833	16017
911.947	15987
912.062	15922
912.176	16086
912.291	16002
912.405	16002
912.519	16265
912.633	16211
912.748	16131
912.862	16017
912.976	15941
913.09	15766
913.204	15823
913.318	15827
913.431	16048
913.545	15876
913.659	16017
913.772	15865
913.886	15732
914	15667
914.113	15728
914.226	15762
914.34	15713
914.453	15545
914.566	15755
914.68	15515
914.793	15473
914.906	15211
915.019	15249
915.132	15260
915.245	15184
915.358	15287
915.47	15298
915.583	15359
915.696	15329
915.809	15401
915.921	15405
916.034	15188
916.146	15135
916.259	15199
916.371	15154
916.483	15287
916.595	15100
916.708	15093
916.82	15195
916.932	15131
917.044	15039
917.156	15036
917.268	14880
917.38	14963
917.491	14941
917.603	14948
917.715	14929
917.826	15028
917.938	14861
918.049	14731
918.161	14853
918.272	14994
918.384	14941
918.495	14815
918.606	14667
918.717	14636
918.828	14667
918.939	14663
919.05	14568
919.161	14644
919.272	14507
919.383	14507
919.494	14769
919.604	14819
919.715	14712
919.826	14598
919.936	14537
920.047	14617
920.157	14632
920.267	14777
920.378	14686
920.488	14613
920.598	14804
920.708	14933
920.818	14708
920.928	14792
921.038	15070
921.148	14925
921.258	14663
921.368	14465
921.477	14317
921.587	14351
921.697	14347
921.806	14336
921.916	14233
922.025	14183
922.134	13917
922.244	14012
922.353	14073
922.462	13921
922.571	13757
922.68	13719
922.789	13628
922.898	13746
923.007	13636
923.116	13647
923.224	13662
923.333	13681
923.442	13525
923.55	13373
923.659	13578
923.767	13468
923.876	13388
923.984	13491
924.092	13403
924.201	13407
924.309	13468
924.417	13362
924.525	13350
924.633	13388
924.741	14103
924.849	13084
924.956	13350
925.064	13023
925.172	12973
925.279	13091
925.387	13129
925.494	13110
925.602	13217
925.709	13118
925.816	12962
925.924	13000
926.031	13023
926.138	12966
926.245	13076
926.352	12954
926.459	13015
926.566	13103
926.673	12943
926.779	12779
926.886	12810
926.993	12730
927.099	12604
927.206	12559
927.312	12540
927.419	12601
927.525	12673
927.631	12787
927.737	12483
927.843	12464
927.95	12350
928.056	12464
928.162	12486
928.267	12384
928.373	12943
928.479	12483
928.585	12292
928.69	12502
928.796	12471
928.901	12342
929.007	12216
929.112	12330
929.218	12243
929.323	12171
929.428	12194
929.533	12376
929.638	12091
929.743	12068
929.848	12110
929.953	12060
930.058	12041
930.163	11843
930.267	11961
930.372	12079
930.477	11794
930.581	12072
930.685	11965
930.79	11653
930.894	11760
930.998	11642
931.103	11832
931.207	11406
931.311	11387
931.415	11345
931.519	11121
931.623	11185
