Data from test_V78500241_1030.txt Node
Date: Fri Mar 25 15:17:01 CST 2022
User: usil
Spectrometer: V785-0024
Trigger mode: 0
Integration Time (sec): 4.000000E-1
Scans to average: 1
Nonlinearity correction enabled: false
Boxcar width: 0
Storing dark spectrum: false
XAxis mode: Wavelengths
Number of Pixels in Spectrum: 1024
>>>>>Begin Spectral Data<<<<<
801.071	28424
801.214	28272
801.356	28025
801.499	27956
801.641	27827
801.783	27781
801.926	27949
802.068	27876
802.211	27701
802.353	27755
802.496	27736
802.638	27523
802.78	27625
802.923	27504
803.065	27378
803.208	27462
803.35	27477
803.492	27656
803.635	27675
803.777	27481
803.919	27762
804.061	28097
804.204	27675
804.346	27770
804.488	27709
804.63	27766
804.773	27656
804.915	27831
805.057	27857
805.199	27736
805.341	27717
805.483	27880
805.626	27747
805.768	27675
805.91	27819
806.052	27888
806.194	27892
806.336	28074
806.478	27914
806.62	27819
806.762	28059
806.904	28192
807.046	28322
807.188	28409
807.33	28204
807.472	28390
807.614	28242
807.756	28246
807.898	28154
808.04	28150
808.182	28112
808.324	28268
808.465	28261
808.607	28284
808.749	28481
808.891	28641
809.033	28656
809.174	28538
809.316	28504
809.458	28580
809.6	28607
809.741	28767
809.883	28641
810.025	28820
810.166	28869
810.308	29048
810.45	28824
810.591	28683
810.733	28645
810.875	28538
811.016	28489
811.158	28493
811.299	28706
811.441	28679
811.582	28786
811.724	28546
811.865	28569
812.007	28478
812.148	28584
812.29	28607
812.431	28710
812.573	28828
812.714	29060
812.855	29170
812.997	29143
813.138	29478
813.279	29288
813.421	29147
813.562	28961
813.703	28961
813.845	28797
813.986	28630
814.127	28428
814.268	28280
814.41	28295
814.551	28360
814.692	28451
814.833	28257
814.974	28230
815.115	28261
815.256	28135
815.397	28268
815.539	28139
815.68	28051
815.821	28002
815.962	28116
816.103	28048
816.244	28074
816.385	27937
816.526	27968
816.666	27800
816.807	27523
816.948	27663
817.089	27724
817.23	27778
817.371	27542
817.512	27580
817.653	27561
817.793	27614
817.934	27656
818.075	27507
818.216	27679
818.356	27603
818.497	27568
818.638	27363
818.778	27310
818.919	27393
819.06	27477
819.2	27511
819.341	27564
819.481	27618
819.622	27724
819.762	27945
819.903	27800
820.043	27819
820.184	27663
820.324	27732
820.465	27785
820.605	27724
820.746	27869
820.886	27603
821.026	27675
821.167	27717
821.307	27701
821.447	27625
821.588	27408
821.728	27443
821.868	27306
822.008	27184
822.149	26929
822.289	27032
822.429	26762
822.569	26769
822.709	26948
822.849	26667
822.99	26465
823.13	26457
823.27	26560
823.41	26480
823.55	26278
823.69	26434
823.83	26347
823.97	26370
824.11	26259
824.25	26229
824.389	26202
824.529	26218
824.669	26233
824.809	26396
824.949	26252
825.089	26438
825.228	26377
825.368	26100
825.508	26111
825.648	26210
825.787	26134
825.927	26130
826.067	26111
826.206	26122
826.346	26183
826.485	26100
826.625	26157
826.765	26393
826.904	26088
827.044	26024
827.183	25997
827.323	25856
827.462	25814
827.601	25894
827.741	25830
827.88	25837
828.02	25772
828.159	25814
828.298	25765
828.437	25966
828.577	25795
828.716	25966
828.855	25742
828.994	25700
829.134	25590
829.273	25582
829.412	25563
829.551	25453
829.69	25586
829.829	25597
829.968	25662
830.107	25533
830.246	25647
830.385	25521
830.524	25468
830.663	25335
830.802	25320
830.941	25114
831.08	25122
831.219	25213
831.357	25445
831.496	25438
831.635	25251
831.774	25099
831.913	25023
832.051	24981
832.19	24939
832.329	25072
832.467	24856
832.606	24772
832.744	24833
832.883	24814
833.022	24776
833.16	24932
833.299	24798
833.437	24897
833.576	24932
833.714	24852
833.852	24951
833.991	24985
834.129	25031
834.267	24985
834.406	25008
834.544	24992
834.682	24909
834.821	24806
834.959	25122
835.097	24924
835.235	25031
835.373	24867
835.511	24848
835.65	24821
835.788	24738
835.926	24684
836.064	24593
836.202	24601
836.34	24757
836.478	24901
836.615	24787
836.753	24749
836.891	24787
837.029	24844
837.167	24833
837.305	24844
837.443	24544
837.58	24692
837.718	24597
837.856	24555
837.993	24593
838.131	24673
838.269	24410
838.406	24528
838.544	24540
838.681	24315
838.819	24235
838.956	24159
839.094	24076
839.231	24072
839.369	24155
839.506	24407
839.643	24292
839.781	24182
839.918	24041
840.055	24011
840.193	24129
840.33	24110
840.467	24106
840.604	24026
840.742	24285
840.879	23824
841.016	23946
841.153	23832
841.29	24003
841.427	23897
841.564	24072
841.701	24018
841.838	23996
841.975	23840
842.112	23996
842.249	23779
842.385	23771
842.522	23984
842.659	23798
842.796	23760
842.933	23729
843.069	23653
843.206	23718
843.343	23863
843.479	23775
843.616	23855
843.752	23429
843.889	23535
844.025	23634
844.162	23425
844.298	23562
844.435	23558
844.571	23585
844.708	23433
844.844	23684
844.98	23627
845.117	23547
845.253	23391
845.389	23311
845.525	23356
845.661	23337
845.798	23204
845.934	23277
846.07	23231
846.206	23337
846.342	23364
846.478	23254
846.614	23098
846.75	22999
846.886	22949
847.022	23102
847.158	22999
847.294	23003
847.429	23083
847.565	22919
847.701	23197
847.837	22736
847.972	22660
848.108	22713
848.244	22710
848.379	22649
848.515	22512
848.65	22660
848.786	22546
848.921	22531
849.057	22672
849.192	22523
849.328	22675
849.463	22428
849.598	22542
849.734	22474
849.869	22440
850.004	22348
850.14	22382
850.275	22295
850.41	22230
850.545	22367
850.68	22310
850.815	22265
850.95	22382
851.085	22466
851.22	22459
851.355	22318
851.49	22386
851.625	22280
851.76	22394
851.895	22211
852.03	22291
852.165	22371
852.299	22386
852.434	22421
852.569	22249
852.703	22314
852.838	22356
852.973	22440
853.107	22455
853.242	22360
853.376	22181
853.511	22040
853.645	22135
853.78	22249
853.914	22078
854.048	22158
854.183	22101
854.317	22204
854.451	22390
854.585	22219
854.72	22139
854.854	22261
854.988	22105
855.122	22181
855.256	21983
855.39	22101
855.524	22166
855.658	22207
855.792	22234
855.926	22207
856.06	22177
856.194	22162
856.327	22040
856.461	22131
856.595	22021
856.729	22093
856.862	22356
856.996	22192
857.13	22325
857.263	22352
857.397	22177
857.53	22158
857.664	22101
857.797	22188
857.931	22295
858.064	22158
858.197	22268
858.331	22059
858.464	22112
858.597	22055
858.731	22074
858.864	22051
858.997	22105
859.13	22078
859.263	22002
859.396	22230
859.529	22040
859.662	22070
859.795	22219
859.928	22112
860.061	22291
860.194	22394
860.327	22238
860.46	22158
860.592	22337
860.725	22402
860.858	22291
860.99	22211
861.123	22006
861.256	22207
861.388	22112
861.521	22755
861.653	22078
861.786	21861
861.918	22025
862.05	22093
862.183	22036
862.315	21994
862.447	22090
862.58	22238
862.712	21876
862.844	21808
862.976	21907
863.108	21827
863.24	22272
863.372	21804
863.504	21861
863.636	21785
863.768	21888
863.9	21869
864.032	21747
864.164	21884
864.296	21903
864.428	21953
864.559	21861
864.691	21991
864.823	21895
864.954	21854
865.086	21915
865.217	21660
865.349	21671
865.48	21732
865.612	21785
865.743	21812
865.875	21690
866.006	21717
866.137	21770
866.269	21808
866.4	21717
866.531	21622
866.662	21633
866.793	21622
866.924	21576
867.055	21603
867.186	21656
867.317	21717
867.448	21587
867.579	21698
867.71	21458
867.841	21534
867.972	21652
868.103	21568
868.233	21595
868.364	21644
868.495	21751
868.625	21838
868.756	21956
868.886	21789
869.017	21903
869.147	22025
869.278	21983
869.408	21884
869.539	21827
869.669	21987
869.799	22040
869.929	22029
870.06	21930
870.19	22238
870.32	22150
870.45	22219
870.58	22291
870.71	22367
870.84	22428
870.97	22344
871.1	22314
871.23	22500
871.36	22470
871.489	22356
871.619	22474
871.749	22584
871.879	22645
872.008	22649
872.138	22516
872.267	22493
872.397	22276
872.526	22306
872.656	22276
872.785	22341
872.915	22462
873.044	22538
873.173	22443
873.303	22569
873.432	22546
873.561	22565
873.69	22527
873.819	22527
873.948	22504
874.077	22455
874.206	22447
874.335	22462
874.464	22580
874.593	22755
874.722	22755
874.851	22786
874.979	22672
875.108	22744
875.237	22656
875.365	22474
875.494	22542
875.623	22809
875.751	22660
875.88	22698
876.008	22839
876.136	22896
876.265	23151
876.393	23318
876.521	23113
876.65	23185
876.778	23113
876.906	23022
877.034	23037
877.162	23044
877.29	22980
877.418	22972
877.546	23303
877.674	23071
877.802	23071
877.93	22968
878.058	23014
878.185	22900
878.313	23033
878.441	23003
878.568	22938
878.696	22934
878.824	23064
878.951	23185
879.079	23235
879.206	23452
879.333	23318
879.461	23159
879.588	23174
879.715	23223
879.842	23318
879.97	23235
880.097	23056
880.224	22843
880.351	23109
880.478	22896
880.605	22649
880.732	22885
880.859	23044
880.986	22843
881.112	22900
881.239	22778
881.366	22611
881.493	22615
881.619	22409
881.746	22421
881.872	22459
881.999	22360
882.125	22440
882.252	22386
882.378	22363
882.505	22500
882.631	22253
882.757	22200
882.883	22234
883.01	22078
883.136	22185
883.262	22128
883.388	21899
883.514	22192
883.64	22090
883.766	22010
883.892	21861
884.018	21876
884.143	21979
884.269	22082
884.395	21751
884.52	21850
884.646	21774
884.772	21846
884.897	21633
885.023	21751
885.148	21831
885.274	21842
885.399	21736
885.524	21736
885.65	21816
885.775	21869
885.9	21591
886.025	21751
886.15	21888
886.275	21899
886.4	21641
886.525	21797
886.65	21671
886.775	21682
886.9	21926
887.025	21983
887.149	21675
887.274	21523
887.399	21576
887.523	21542
887.648	21389
887.773	21454
887.897	21637
888.021	21637
888.146	21462
888.27	21736
888.395	21591
888.519	21633
888.643	21549
888.767	21610
888.891	21450
889.015	21416
889.139	21348
889.263	21374
889.387	21291
889.511	21561
889.635	21469
889.759	21321
889.883	21226
890.006	21294
890.13	21469
890.254	21313
890.377	21218
890.501	21066
890.624	21047
890.748	21028
890.871	20982
890.995	20834
891.118	20823
891.241	20933
891.364	20883
891.488	20902
891.611	20838
891.734	20845
891.857	20941
891.98	20876
892.103	20880
892.226	20830
892.349	20785
892.471	20617
892.594	20845
892.717	20887
892.839	20804
892.962	20746
893.085	20762
893.207	20758
893.33	20667
893.452	20663
893.575	20773
893.697	20777
893.819	20902
893.941	20902
894.064	20838
894.186	20750
894.308	20682
894.43	20921
894.552	20910
894.674	20887
894.796	20716
894.918	20724
895.04	20731
895.161	20739
895.283	20708
895.405	20720
895.526	20758
895.648	20762
895.769	20701
895.891	20708
896.012	20906
896.134	20838
896.255	20674
896.376	20674
896.498	20693
896.619	20773
896.74	20667
896.861	20823
896.982	21058
897.103	21222
897.224	21089
897.345	20929
897.466	20910
897.587	20941
897.708	21055
897.828	21024
897.949	20883
898.07	20796
898.19	20815
898.311	21036
898.431	20819
898.552	20956
898.672	20952
898.792	21005
898.913	20941
899.033	20887
899.153	20739
899.273	20796
899.393	20769
899.513	20708
899.633	20609
899.753	20613
899.873	20609
899.993	20731
900.113	20549
900.232	20606
900.352	20575
900.472	20476
900.591	20419
900.711	20419
900.83	20419
900.95	20499
901.069	20514
901.189	20339
901.308	20161
901.427	20050
901.546	20092
901.665	19982
901.784	20031
901.904	19883
902.023	19811
902.141	19613
902.26	19586
902.379	19632
902.498	19499
902.617	19483
902.735	19613
902.854	19544
902.973	19411
903.091	19221
903.21	19107
903.328	19152
903.446	19145
903.565	19057
903.683	19004
903.801	18859
903.919	19061
904.038	18875
904.156	18711
904.274	18798
904.392	18783
904.51	18696
904.627	18745
904.745	18791
904.863	18757
904.981	18471
905.098	18513
905.216	18391
905.334	18410
905.451	18422
905.569	18350
905.686	18563
905.803	18464
905.921	18247
906.038	18357
906.155	18239
906.272	18155
906.389	18205
906.506	17980
906.623	17977
906.74	17885
906.857	17817
906.974	17889
907.091	17980
907.208	18125
907.324	17942
907.441	17935
907.557	17615
907.674	17535
907.79	17665
907.907	17638
908.023	17627
908.139	17691
908.256	17630
908.372	17619
908.488	17570
908.604	17395
908.72	17391
908.836	17379
908.952	17376
909.068	17414
909.184	17524
909.3	17341
909.415	17372
909.531	17410
909.647	17178
909.762	17277
909.878	17136
909.993	17033
910.108	17124
910.224	17006
910.339	17025
910.454	16908
910.57	16942
910.685	16828
910.8	17045
910.915	16991
911.03	16809
911.145	16843
911.259	16641
911.374	16626
911.489	16531
911.604	16493
911.718	16367
911.833	16459
911.947	16333
912.062	16219
912.176	16314
912.291	16402
912.405	16447
912.519	16607
912.633	16596
912.748	16440
912.862	16295
912.976	16257
913.09	16074
913.204	16169
913.318	16314
913.431	16337
913.545	16257
913.659	16280
913.772	16234
913.886	16040
914	16063
914.113	16120
914.226	16086
914.34	16082
914.453	15831
914.566	16074
914.68	15895
914.793	15918
914.906	15656
915.019	15656
915.132	15580
915.245	15564
915.358	15663
915.47	15572
915.583	15625
915.696	15584
915.809	15781
915.921	15705
916.034	15469
916.146	15576
916.259	15408
916.371	15675
916.483	15485
916.595	15511
916.708	15473
916.82	15447
916.932	15454
917.044	15351
917.156	15355
917.268	15237
917.38	15249
917.491	15211
917.603	15321
917.715	15249
917.826	15393
917.938	15207
918.049	15047
918.161	15131
918.272	15279
918.384	15374
918.495	15211
918.606	15005
918.717	14937
918.828	14956
918.939	14990
919.05	14921
919.161	14910
919.272	14739
919.383	14902
919.494	15051
919.604	15089
919.715	14918
919.826	14838
919.936	14925
920.047	14994
920.157	14982
920.267	15138
920.378	14975
920.488	14826
920.598	15077
920.708	15138
920.818	15028
920.928	15093
921.038	15184
921.148	15165
921.258	14933
921.368	14743
921.477	14781
921.587	14655
921.697	14686
921.806	14682
921.916	14438
922.025	14385
922.134	14393
922.244	14180
922.353	14267
922.462	14153
922.571	14035
922.68	13898
922.789	13955
922.898	14012
923.007	13913
923.116	13925
923.224	13868
923.333	13909
923.442	13845
923.55	13674
923.659	13826
923.767	13761
923.876	13708
923.984	13906
924.092	13647
924.201	13685
924.309	13712
924.417	13696
924.525	13556
924.633	13594
924.741	14530
924.849	13388
924.956	13594
925.064	13377
925.172	13225
925.279	13350
925.387	13373
925.494	13331
925.602	13434
925.709	13407
925.816	13209
925.924	13285
926.031	13377
926.138	13206
926.245	13266
926.352	13141
926.459	13301
926.566	13358
926.673	13164
926.779	12985
926.886	13042
926.993	12916
927.099	12905
927.206	12791
927.312	12772
927.419	12863
927.525	12867
927.631	12993
927.737	12707
927.843	12684
927.95	12639
928.056	12783
928.162	12741
928.267	12745
928.373	13255
928.479	12757
928.585	12521
928.69	12582
928.796	12703
928.901	12604
929.007	12452
929.112	12582
929.218	12437
929.323	12486
929.428	12380
929.533	12555
929.638	12266
929.743	12437
929.848	12418
929.953	12365
930.058	12239
930.163	12068
930.267	12140
930.372	12175
930.477	12053
930.581	12262
930.685	12159
930.79	11904
930.894	11984
930.998	11939
931.103	12053
931.207	11741
931.311	11592
931.415	11516
931.519	11353
931.623	11288
