Data from test_V78500241_2629.txt Node
Date: Fri Mar 25 15:28:09 CST 2022
User: usil
Spectrometer: V785-0024
Trigger mode: 0
Integration Time (sec): 4.000000E-1
Scans to average: 1
Nonlinearity correction enabled: false
Boxcar width: 0
Storing dark spectrum: false
XAxis mode: Wavelengths
Number of Pixels in Spectrum: 1024
>>>>>Begin Spectral Data<<<<<
801.071	27279
801.214	27093
801.356	26956
801.499	26838
801.641	26678
801.783	26651
801.926	26963
802.068	26667
802.211	26811
802.353	26785
802.496	26514
802.638	26286
802.78	26374
802.923	26362
803.065	26370
803.208	26259
803.35	26476
803.492	26590
803.635	26579
803.777	26484
803.919	26560
804.061	26868
804.204	26621
804.346	26450
804.488	26404
804.63	26461
804.773	26453
804.915	26598
805.057	26708
805.199	26526
805.341	26438
805.483	26651
805.626	26686
805.768	26526
805.91	26659
806.052	26682
806.194	26526
806.336	26834
806.478	26674
806.62	26560
806.762	26815
806.904	26979
807.046	27150
807.188	27089
807.33	27138
807.472	27093
807.614	27138
807.756	26960
807.898	26944
808.04	26853
808.182	26857
808.324	26918
808.465	27032
808.607	27207
808.749	27249
808.891	27241
809.033	27431
809.174	27348
809.316	27351
809.458	27211
809.6	27207
809.741	27469
809.883	27427
810.025	27473
810.166	27557
810.308	27610
810.45	27477
810.591	27389
810.733	27260
810.875	27161
811.016	27066
811.158	27104
811.299	27279
811.441	27420
811.582	27568
811.724	27359
811.865	27135
812.007	27146
812.148	27283
812.29	27302
812.431	27462
812.573	27481
812.714	27583
812.855	27751
812.997	27808
813.138	27945
813.279	27873
813.421	27671
813.562	27705
813.703	27652
813.845	27557
813.986	27150
814.127	26986
814.268	26948
814.41	26971
814.551	26910
814.692	26960
814.833	26804
814.974	26773
815.115	26921
815.256	26940
815.397	26758
815.539	26769
815.68	26758
815.821	26590
815.962	26838
816.103	26716
816.244	26514
816.385	26499
816.526	26328
816.666	26252
816.807	26157
816.948	26233
817.089	26320
817.23	26077
817.371	26161
817.512	26191
817.653	26043
817.793	26092
817.934	26248
818.075	26107
818.216	26130
818.356	26084
818.497	26065
818.638	25955
818.778	25860
818.919	26077
819.06	25932
819.2	26130
819.341	26187
819.481	26031
819.622	26309
819.762	26431
819.903	26339
820.043	26282
820.184	26286
820.324	26290
820.465	26290
820.605	26134
820.746	26149
820.886	26206
821.026	26294
821.167	26187
821.307	26130
821.447	26050
821.588	26062
821.728	25928
821.868	25860
822.008	25704
822.149	25616
822.289	25529
822.429	25346
822.569	25343
822.709	25354
822.849	25206
822.99	25202
823.13	25110
823.27	25118
823.41	24920
823.55	24875
823.69	24981
823.83	24894
823.97	24821
824.11	24772
824.25	24661
824.389	24696
824.529	24833
824.669	24757
824.809	24913
824.949	24753
825.089	24829
825.228	24768
825.368	24593
825.508	24509
825.648	24768
825.787	24734
825.927	24681
826.067	24684
826.206	24570
826.346	24753
826.485	24738
826.625	24627
826.765	24753
826.904	24692
827.044	24391
827.183	24445
827.323	24239
827.462	24380
827.601	24414
827.741	24213
827.88	24361
828.02	24220
828.159	24327
828.298	24224
828.437	24391
828.577	24273
828.716	24559
828.855	24201
828.994	24041
829.134	24087
829.273	24076
829.412	24026
829.551	23885
829.69	24110
829.829	24095
829.968	24167
830.107	24247
830.246	24121
830.385	23897
830.524	23973
830.663	23828
830.802	23733
830.941	23684
831.08	23726
831.219	23680
831.357	23855
831.496	23931
831.635	23714
831.774	23482
831.913	23611
832.051	23596
832.19	23379
832.329	23455
832.467	23425
832.606	23315
832.744	23208
832.883	23284
833.022	23147
833.16	23410
833.299	23474
833.437	23414
833.576	23402
833.714	23463
833.852	23410
833.991	23440
834.129	23539
834.267	23463
834.406	23349
834.544	23353
834.682	23349
834.821	23337
834.959	23573
835.097	23318
835.235	23490
835.373	23337
835.511	23433
835.65	23132
835.788	23250
835.926	23212
836.064	23083
836.202	23151
836.34	23143
836.478	23337
836.615	23166
836.753	23242
836.891	23372
837.029	23349
837.167	23258
837.305	23064
837.443	23261
837.58	23071
837.718	23151
837.856	23250
837.993	23143
838.131	23018
838.269	23037
838.406	23067
838.544	22854
838.681	22805
838.819	22854
838.956	22645
839.094	22508
839.231	22645
839.369	22767
839.506	22995
839.643	22866
839.781	22508
839.918	22584
840.055	22656
840.193	22474
840.33	22538
840.467	22508
840.604	22451
840.742	22694
840.879	22443
841.016	22497
841.153	22367
841.29	22588
841.427	22531
841.564	22573
841.701	22462
841.838	22538
841.975	22375
842.112	22424
842.249	22360
842.385	22261
842.522	22493
842.659	22485
842.796	22192
842.933	22272
843.069	22215
843.206	22238
843.343	22303
843.479	22268
843.616	22242
843.752	22105
843.889	22044
844.025	22268
844.162	22002
844.298	22029
844.435	22063
844.571	22006
844.708	22029
844.844	22196
844.98	22154
845.117	22158
845.253	22044
845.389	22036
845.525	21854
845.661	21918
845.798	21819
845.934	21816
846.07	21778
846.206	21739
846.342	21770
846.478	21705
846.614	21564
846.75	21564
846.886	21530
847.022	21595
847.158	21526
847.294	21606
847.429	21549
847.565	21504
847.701	21694
847.837	21435
847.972	21146
848.108	21416
848.244	21370
848.379	21260
848.515	21074
848.65	21081
848.786	21112
848.921	21150
849.057	21199
849.192	21184
849.328	21214
849.463	21077
849.598	21119
849.734	21074
849.869	20872
850.004	20982
850.14	20963
850.275	20918
850.41	20788
850.545	20864
850.68	20944
850.815	20937
850.95	20785
851.085	20990
851.22	20868
851.355	20906
851.49	20807
851.625	20899
851.76	20804
851.895	20804
852.03	20895
852.165	20788
852.299	20986
852.434	21066
852.569	20838
852.703	20872
852.838	20956
852.973	21009
853.107	20937
853.242	20815
853.376	20735
853.511	20651
853.645	20621
853.78	20739
853.914	20667
854.048	20644
854.183	20655
854.317	20674
854.451	20895
854.585	20655
854.72	20739
854.854	20731
854.988	20587
855.122	20765
855.256	20697
855.39	20765
855.524	20644
855.658	20644
855.792	20796
855.926	20701
856.06	20777
856.194	20823
856.327	20678
856.461	20708
856.595	20670
856.729	20613
856.862	20876
856.996	20743
857.13	20659
857.263	20788
857.397	20834
857.53	20621
857.664	20705
857.797	20693
857.931	20857
858.064	20712
858.197	20739
858.331	20708
858.464	20651
858.597	20651
858.731	20724
858.864	20648
858.997	20674
859.13	20849
859.263	20735
859.396	20727
859.529	20701
859.662	20674
859.795	20640
859.928	20708
860.061	20849
860.194	20937
860.327	20727
860.46	20804
860.592	20891
860.725	20804
860.858	20830
860.99	20743
861.123	20636
861.256	20598
861.388	20625
861.521	21428
861.653	20712
861.786	20518
861.918	20518
862.05	20511
862.183	20655
862.315	20712
862.447	20682
862.58	20606
862.712	20431
862.844	20457
862.976	20499
863.108	20522
863.24	20785
863.372	20400
863.504	20396
863.636	20415
863.768	20431
863.9	20465
864.032	20343
864.164	20514
864.296	20564
864.428	20602
864.559	20552
864.691	20564
864.823	20461
864.954	20488
865.086	20381
865.217	20385
865.349	20290
865.48	20374
865.612	20370
865.743	20457
865.875	20374
866.006	20320
866.137	20263
866.269	20286
866.4	20298
866.531	20218
866.662	20240
866.793	20374
866.924	20294
867.055	20267
867.186	20336
867.317	20301
867.448	20172
867.579	20385
867.71	20187
867.841	20244
867.972	20263
868.103	20381
868.233	20271
868.364	20271
868.495	20404
868.625	20389
868.756	20682
868.886	20415
869.017	20400
869.147	20720
869.278	20625
869.408	20533
869.539	20541
869.669	20537
869.799	20537
869.929	20705
870.06	20571
870.19	20849
870.32	20868
870.45	20731
870.58	20864
870.71	20937
870.84	21146
870.97	20948
871.1	20883
871.23	21180
871.36	21150
871.489	21074
871.619	21001
871.749	21138
871.879	21195
872.008	21112
872.138	21192
872.267	21180
872.397	20845
872.526	20910
872.656	20868
872.785	20990
872.915	21203
873.044	21176
873.173	21123
873.303	21180
873.432	21074
873.561	21268
873.69	21287
873.819	21051
873.948	21116
874.077	21222
874.206	21081
874.335	21100
874.464	21272
874.593	21386
874.722	21374
874.851	21428
874.979	21439
875.108	21443
875.237	21389
875.365	21249
875.494	21386
875.623	21637
875.751	21428
875.88	21435
876.008	21424
876.136	21709
876.265	21892
876.393	22063
876.521	21945
876.65	21831
876.778	21724
876.906	21599
877.034	21717
877.162	21895
877.29	21762
877.418	21751
877.546	21766
877.674	21766
877.802	21774
877.93	21857
878.058	21762
878.185	21652
878.313	21614
878.441	21869
878.568	21583
878.696	21660
878.824	21755
878.951	21903
879.079	22013
879.206	21930
879.333	21808
879.461	21728
879.588	21884
879.715	21838
879.842	22135
879.97	21793
880.097	21667
880.224	21587
880.351	21663
880.478	21599
880.605	21526
880.732	21648
880.859	21819
880.986	21705
881.112	21469
881.239	21393
881.366	21408
881.493	21340
881.619	21283
881.746	21146
881.872	21218
881.999	21138
882.125	21192
882.252	21127
882.378	21146
882.505	21123
882.631	21070
882.757	20929
882.883	20971
883.01	20925
883.136	20792
883.262	20826
883.388	20750
883.514	20948
883.64	20845
883.766	20792
883.892	20743
884.018	20758
884.143	20864
884.269	20960
884.395	20651
884.52	20431
884.646	20571
884.772	20545
884.897	20381
885.023	20412
885.148	20648
885.274	20686
885.399	20667
885.524	20492
885.65	20602
885.775	20518
885.9	20518
886.025	20621
886.15	20575
886.275	20537
886.4	20492
886.525	20499
886.65	20400
886.775	20503
886.9	20674
887.025	20705
887.149	20537
887.274	20240
887.399	20320
887.523	20305
887.648	20199
887.773	20271
887.897	20286
888.021	20336
888.146	20172
888.27	20339
888.395	20457
888.519	20385
888.643	20427
888.767	20355
888.891	20313
889.015	20100
889.139	20122
889.263	20122
889.387	20233
889.511	20362
889.635	20187
889.759	20008
889.883	20153
890.006	20142
890.13	20187
890.254	20043
890.377	20142
890.501	19879
890.624	19879
890.748	20012
890.871	19887
890.995	19609
891.118	19639
891.241	19700
891.364	19674
891.488	19738
891.611	19666
891.734	19693
891.857	19769
891.98	19708
892.103	19746
892.226	19776
892.349	19620
892.471	19400
892.594	19601
892.717	19571
892.839	19578
892.962	19624
893.085	19696
893.207	19582
893.33	19537
893.452	19483
893.575	19689
893.697	19609
893.819	19712
893.941	19871
894.064	19795
894.186	19582
894.308	19525
894.43	19643
894.552	19620
894.674	19658
894.796	19540
894.918	19521
895.04	19567
895.161	19670
895.283	19563
895.405	19582
895.526	19578
895.648	19719
895.769	19594
895.891	19666
896.012	19776
896.134	19639
896.255	19609
896.376	19647
896.498	19647
896.619	19609
896.74	19704
896.861	19628
896.982	19860
897.103	20111
897.224	19955
897.345	19913
897.466	19685
897.587	19898
897.708	19993
897.828	19849
897.949	19753
898.07	19715
898.19	19967
898.311	19757
898.431	19727
898.552	19868
898.672	19830
898.792	19822
898.913	19871
899.033	19845
899.153	19651
899.273	19700
899.393	19533
899.513	19590
899.633	19537
899.753	19643
899.873	19537
899.993	19567
900.113	19590
900.232	19601
900.352	19544
900.472	19441
900.591	19228
900.711	19445
900.83	19441
900.95	19491
901.069	19407
901.189	19278
901.308	19038
901.427	19023
901.546	18966
901.665	18966
901.784	19015
901.904	18753
902.023	18783
902.141	18551
902.26	18479
902.379	18665
902.498	18441
902.617	18426
902.735	18467
902.854	18494
902.973	18365
903.091	18209
903.21	18300
903.328	18163
903.446	18125
903.565	17954
903.683	18022
903.801	17950
903.919	17775
904.038	17805
904.156	17630
904.274	17779
904.392	17786
904.51	17718
904.627	17695
904.745	17775
904.863	17695
904.981	17551
905.098	17429
905.216	17410
905.334	17349
905.451	17410
905.569	17364
905.686	17402
905.803	17406
905.921	17189
906.038	17368
906.155	17185
906.272	17086
906.389	17048
906.506	16976
906.623	16915
906.74	16892
906.857	16763
906.974	16885
907.091	17056
907.208	17067
907.324	17014
907.441	16923
907.557	16683
907.674	16752
907.79	16538
907.907	16672
908.023	16611
908.139	16687
908.256	16641
908.372	16634
908.488	16523
908.604	16504
908.72	16382
908.836	16443
908.952	16405
909.068	16462
909.184	16478
909.3	16249
909.415	16424
909.531	16386
909.647	16185
909.762	16154
909.878	16147
909.993	16059
910.108	16105
910.224	16044
910.339	16048
910.454	15949
910.57	15998
910.685	15785
910.8	16128
910.915	16048
911.03	15918
911.145	15804
911.259	15705
911.374	15698
911.489	15618
911.604	15576
911.718	15504
911.833	15504
911.947	15412
912.062	15428
912.176	15504
912.291	15469
912.405	15545
912.519	15789
912.633	15530
912.748	15553
912.862	15424
912.976	15351
913.09	15161
913.204	15279
913.318	15302
913.431	15367
913.545	15389
913.659	15443
913.772	15252
913.886	15097
914	15047
914.113	15222
914.226	15100
914.34	15112
914.453	15028
914.566	15081
914.68	15066
914.793	14933
914.906	14796
915.019	14644
915.132	14701
915.245	14720
915.358	14731
915.47	14651
915.583	14651
915.696	14727
915.809	14845
915.921	14868
916.034	14746
916.146	14606
916.259	14587
916.371	14807
916.483	14625
916.595	14549
916.708	14556
916.82	14495
916.932	14564
917.044	14552
917.156	14446
917.268	14351
917.38	14385
917.491	14309
917.603	14355
917.715	14362
917.826	14469
917.938	14339
918.049	14259
918.161	14317
918.272	14465
918.384	14530
918.495	14343
918.606	14199
918.717	14107
918.828	14263
918.939	14195
919.05	14084
919.161	14172
919.272	13978
919.383	13986
919.494	14103
919.604	14240
919.715	14138
919.826	14100
919.936	14126
920.047	14210
920.157	14164
920.267	14225
920.378	14138
920.488	14062
920.598	14267
920.708	14393
920.818	14214
920.928	14256
921.038	14366
921.148	14267
921.258	13997
921.368	14058
921.477	13906
921.587	13875
921.697	13757
921.806	13879
921.916	13761
922.025	13578
922.134	13563
922.244	13445
922.353	13681
922.462	13369
922.571	13407
922.68	13149
922.789	13091
922.898	13171
923.007	13145
923.116	13156
923.224	13072
923.333	13053
923.442	13072
923.55	12894
923.659	13034
923.767	13057
923.876	12943
923.984	12993
924.092	12878
924.201	13000
924.309	12825
924.417	12890
924.525	12814
924.633	12848
924.741	13811
924.849	12612
924.956	12871
925.064	12665
925.172	12604
925.279	12555
925.387	12639
925.494	12585
925.602	12650
925.709	12688
925.816	12532
925.924	12532
926.031	12593
926.138	12536
926.245	12551
926.352	12399
926.459	12623
926.566	12612
926.673	12525
926.779	12315
926.886	12448
926.993	12224
927.099	12190
927.206	12148
927.312	12095
927.419	12194
927.525	12220
927.631	12201
927.737	12015
927.843	12034
927.95	11920
928.056	12007
928.162	11946
928.267	12136
928.373	12593
928.479	12057
928.585	11950
928.69	11992
928.796	11969
928.901	11904
929.007	11809
929.112	11783
929.218	11813
929.323	11809
929.428	11756
929.533	11821
929.638	11642
929.743	11798
929.848	11668
929.953	11657
930.058	11554
930.163	11486
930.267	11417
930.372	11532
930.477	11410
930.581	11566
930.685	11528
930.79	11299
930.894	11391
930.998	11296
931.103	11467
931.207	11166
931.311	10976
931.415	10957
931.519	10698
931.623	10752
