Data from test_V78500241_2281.txt Node
Date: Fri Mar 25 15:25:44 CST 2022
User: usil
Spectrometer: V785-0024
Trigger mode: 0
Integration Time (sec): 4.000000E-1
Scans to average: 1
Nonlinearity correction enabled: false
Boxcar width: 0
Storing dark spectrum: false
XAxis mode: Wavelengths
Number of Pixels in Spectrum: 1024
>>>>>Begin Spectral Data<<<<<
801.071	27747
801.214	27652
801.356	27416
801.499	27386
801.641	27298
801.783	27272
801.926	27317
802.068	27256
802.211	27237
802.353	27142
802.496	26929
802.638	26925
802.78	26849
802.923	26838
803.065	26777
803.208	26788
803.35	26986
803.492	27051
803.635	27005
803.777	26963
803.919	26857
804.061	27405
804.204	27089
804.346	27043
804.488	27047
804.63	27100
804.773	26880
804.915	26986
805.057	27100
805.199	27085
805.341	27005
805.483	27226
805.626	27283
805.768	27081
805.91	27154
806.052	27222
806.194	27017
806.336	27367
806.478	27211
806.62	27074
806.762	27389
806.904	27435
807.046	27682
807.188	27663
807.33	27633
807.472	27671
807.614	27606
807.756	27530
807.898	27450
808.04	27389
808.182	27416
808.324	27542
808.465	27500
808.607	27610
808.749	28006
808.891	27831
809.033	27949
809.174	27922
809.316	27690
809.458	27732
809.6	27717
809.741	27926
809.883	27892
810.025	28055
810.166	28131
810.308	28032
810.45	28025
810.591	27941
810.733	27835
810.875	27637
811.016	27599
811.158	27629
811.299	27861
811.441	27998
811.582	27854
811.724	27854
811.865	27739
812.007	27903
812.148	27808
812.29	27926
812.431	27926
812.573	28166
812.714	28200
812.855	28295
812.997	28413
813.138	28527
813.279	28504
813.421	28314
813.562	28204
813.703	28158
813.845	28013
813.986	27671
814.127	27603
814.268	27542
814.41	27485
814.551	27427
814.692	27587
814.833	27355
814.974	27450
815.115	27420
815.256	27447
815.397	27462
815.539	27370
815.68	27176
815.821	27203
815.962	27176
816.103	27100
816.244	27214
816.385	27074
816.526	26979
816.666	26758
816.807	26769
816.948	26864
817.089	26899
817.23	26830
817.371	26659
817.512	26655
817.653	26773
817.793	26564
817.934	26743
818.075	26701
818.216	26731
818.356	26689
818.497	26667
818.638	26526
818.778	26446
818.919	26541
819.06	26609
819.2	26659
819.341	26765
819.481	26781
819.622	26845
819.762	26971
819.903	27017
820.043	26842
820.184	26929
820.324	26952
820.465	26883
820.605	26975
820.746	26849
820.886	26804
821.026	26842
821.167	26921
821.307	26887
821.447	26792
821.588	26579
821.728	26648
821.868	26343
822.008	26259
822.149	26168
822.289	26199
822.429	25807
822.569	25890
822.709	25700
822.849	25769
822.99	25890
823.13	25677
823.27	25715
823.41	25571
823.55	25537
823.69	25468
823.83	25647
823.97	25647
824.11	25373
824.25	25293
824.389	25301
824.529	25422
824.669	25426
824.809	25407
824.949	25358
825.089	25445
825.228	25365
825.368	25377
825.508	25072
825.648	25278
825.787	25384
825.927	25259
826.067	25198
826.206	25202
826.346	25232
826.485	25198
826.625	25278
826.765	25365
826.904	25316
827.044	24958
827.183	25114
827.323	24939
827.462	25023
827.601	24833
827.741	25015
827.88	24875
828.02	24916
828.159	24939
828.298	24928
828.437	25019
828.577	24859
828.716	25038
828.855	24867
828.994	24661
829.134	24616
829.273	24684
829.412	24517
829.551	24566
829.69	24589
829.829	24684
829.968	24745
830.107	24559
830.246	24776
830.385	24665
830.524	24559
830.663	24555
830.802	24369
830.941	24076
831.08	24239
831.219	24308
831.357	24311
831.496	24509
831.635	24304
831.774	24308
831.913	24247
832.051	23954
832.19	24087
832.329	24133
832.467	23908
832.606	23885
832.744	23897
832.883	23870
833.022	23771
833.16	23950
833.299	23992
833.437	24022
833.576	23980
833.714	24060
833.852	23954
833.991	24076
834.129	24121
834.267	24117
834.406	24167
834.544	23992
834.682	23950
834.821	23916
834.959	24053
835.097	24018
835.235	24038
835.373	23950
835.511	23889
835.65	23824
835.788	23923
835.926	23733
836.064	23649
836.202	23729
836.34	23843
836.478	23897
836.615	23866
836.753	23733
836.891	23916
837.029	23786
837.167	23802
837.305	23786
837.443	23726
837.58	23589
837.718	23710
837.856	23798
837.993	23577
838.131	23687
838.269	23474
838.406	23551
838.544	23486
838.681	23364
838.819	23372
838.956	23193
839.094	23132
839.231	23197
839.369	23345
839.506	23410
839.643	23368
839.781	23056
839.918	23136
840.055	23140
840.193	23067
840.33	23117
840.467	23166
840.604	23064
840.742	23288
840.879	22889
841.016	22984
841.153	22953
841.29	23102
841.427	23014
841.564	23124
841.701	23003
841.838	22934
841.975	22877
842.112	22866
842.249	22809
842.385	22797
842.522	22965
842.659	22797
842.796	22763
842.933	22759
843.069	22778
843.206	22721
843.343	22896
843.479	22862
843.616	22752
843.752	22675
843.889	22584
844.025	22694
844.162	22512
844.298	22637
844.435	22443
844.571	22630
844.708	22672
844.844	22812
844.98	22691
845.117	22713
845.253	22653
845.389	22462
845.525	22398
845.661	22409
845.798	22287
845.934	22348
846.07	22329
846.206	22333
846.342	22481
846.478	22299
846.614	22074
846.75	21987
846.886	21956
847.022	22036
847.158	22070
847.294	22036
847.429	21930
847.565	22013
847.701	22344
847.837	21743
847.972	21724
848.108	21915
848.244	21892
848.379	21652
848.515	21671
848.65	21572
848.786	21587
848.921	21618
849.057	21717
849.192	21679
849.328	21580
849.463	21660
849.598	21603
849.734	21530
849.869	21435
850.004	21389
850.14	21496
850.275	21428
850.41	21283
850.545	21367
850.68	21302
850.815	21374
850.95	21359
851.085	21629
851.22	21488
851.355	21355
851.49	21313
851.625	21447
851.76	21420
851.895	21306
852.03	21275
852.165	21340
852.299	21420
852.434	21504
852.569	21344
852.703	21454
852.838	21412
852.973	21511
853.107	21481
853.242	21291
853.376	21127
853.511	21131
853.645	21119
853.78	21310
853.914	21264
854.048	21074
854.183	21207
854.317	21329
854.451	21397
854.585	21233
854.72	21176
854.854	21218
854.988	21192
855.122	21279
855.256	21150
855.39	21138
855.524	21180
855.658	21367
855.792	21173
855.926	21169
856.06	21169
856.194	21279
856.327	21222
856.461	21169
856.595	21108
856.729	21138
856.862	21264
856.996	21074
857.13	21218
857.263	21336
857.397	21367
857.53	21146
857.664	21199
857.797	21431
857.931	21462
858.064	21150
858.197	21367
858.331	21264
858.464	21127
858.597	21180
858.731	21112
858.864	21211
858.997	21207
859.13	21188
859.263	21367
859.396	21321
859.529	21211
859.662	21226
859.795	21157
859.928	21367
860.061	21344
860.194	21317
860.327	21264
860.46	21173
860.592	21348
860.725	21485
860.858	21313
860.99	21211
861.123	21142
861.256	21135
861.388	21233
861.521	21975
861.653	21055
861.786	21009
861.918	21074
862.05	21055
862.183	21173
862.315	21150
862.447	21237
862.58	21146
862.712	20914
862.844	20895
862.976	20982
863.108	21039
863.24	21329
863.372	20899
863.504	20910
863.636	20834
863.768	21009
863.9	20754
864.032	20792
864.164	20948
864.296	20990
864.428	20960
864.559	21039
864.691	20937
864.823	20979
864.954	21009
865.086	20788
865.217	20887
865.349	20830
865.48	20880
865.612	20804
865.743	20857
865.875	20906
866.006	20705
866.137	20815
866.269	20811
866.4	20777
866.531	20815
866.662	20781
866.793	20788
866.924	20769
867.055	20762
867.186	20815
867.317	20716
867.448	20720
867.579	20773
867.71	20693
867.841	20655
867.972	20861
868.103	20693
868.233	20708
868.364	20758
868.495	20727
868.625	20956
868.756	20967
868.886	20902
869.017	21020
869.147	21020
869.278	21112
869.408	21036
869.539	20937
869.669	20986
869.799	21013
869.929	21142
870.06	21051
870.19	21211
870.32	21268
870.45	21313
870.58	21401
870.71	21473
870.84	21553
870.97	21340
871.1	21393
871.23	21583
871.36	21610
871.489	21477
871.619	21595
871.749	21580
871.879	21641
872.008	21797
872.138	21652
872.267	21587
872.397	21401
872.526	21370
872.656	21344
872.785	21466
872.915	21603
873.044	21724
873.173	21625
873.303	21675
873.432	21633
873.561	21698
873.69	21603
873.819	21545
873.948	21660
874.077	21625
874.206	21561
874.335	21701
874.464	21717
874.593	21831
874.722	21831
874.851	21816
874.979	21819
875.108	21857
875.237	21793
875.365	21671
875.494	21732
875.623	21945
875.751	21774
875.88	21861
876.008	21934
876.136	22013
876.265	22143
876.393	22375
876.521	22303
876.65	22325
876.778	22253
876.906	22268
877.034	22268
877.162	22200
877.29	22143
877.418	22200
877.546	22086
877.674	22238
877.802	22154
877.93	22154
878.058	22051
878.185	22040
878.313	22204
878.441	22101
878.568	21949
878.696	22135
878.824	22295
878.951	22211
879.079	22375
879.206	22611
879.333	22246
879.461	22242
879.588	22265
879.715	22409
879.842	22516
879.97	22386
880.097	21941
880.224	21804
880.351	21991
880.478	21922
880.605	22048
880.732	21941
880.859	22188
880.986	21945
881.112	22093
881.239	21884
881.366	21747
881.493	21774
881.619	21591
881.746	21568
881.872	21641
881.999	21462
882.125	21572
882.252	21587
882.378	21504
882.505	21656
882.631	21370
882.757	21260
882.883	21367
883.01	21340
883.136	21249
883.262	21135
883.388	21119
883.514	21325
883.64	21310
883.766	21256
883.892	21024
884.018	21104
884.143	21203
884.269	21275
884.395	21009
884.52	20883
884.646	20925
884.772	20948
884.897	20914
885.023	20910
885.148	21024
885.274	21058
885.399	20971
885.524	20902
885.65	20979
885.775	20937
885.9	20963
886.025	21100
886.15	20971
886.275	20933
886.4	20731
886.525	20861
886.65	20720
886.775	20937
886.9	21039
887.025	21070
887.149	20891
887.274	20640
887.399	20651
887.523	20686
887.648	20674
887.773	20476
887.897	20762
888.021	20724
888.146	20564
888.27	20750
888.395	20769
888.519	20686
888.643	20708
888.767	20667
888.891	20674
889.015	20465
889.139	20507
889.263	20431
889.387	20590
889.511	20629
889.635	20598
889.759	20522
889.883	20503
890.006	20499
890.13	20613
890.254	20423
890.377	20381
890.501	20218
890.624	20244
890.748	20320
890.871	20214
890.995	20024
891.118	20046
891.241	20062
891.364	20081
891.488	20168
891.611	19986
891.734	20077
891.857	20107
891.98	20077
892.103	20145
892.226	20035
892.349	20005
892.471	19852
892.594	19967
892.717	20107
892.839	20027
892.962	20024
893.085	20046
893.207	19928
893.33	19814
893.452	19818
893.575	20031
893.697	19932
893.819	20130
893.941	20164
894.064	20164
894.186	20016
894.308	19986
894.43	20054
894.552	20069
894.674	20062
894.796	19833
894.918	20039
895.04	19894
895.161	20088
895.283	19947
895.405	19928
895.526	19913
895.648	19959
895.769	19997
895.891	20054
896.012	20073
896.134	19955
896.255	19902
896.376	19982
896.498	19921
896.619	19951
896.74	19989
896.861	20016
896.982	20275
897.103	20400
897.224	20278
897.345	20180
897.466	20088
897.587	20233
897.708	20214
897.828	20168
897.949	20168
898.07	20043
898.19	20145
898.311	20271
898.431	20084
898.552	20126
898.672	20256
898.792	20267
898.913	20180
899.033	20058
899.153	19959
899.273	19898
899.393	19902
899.513	20043
899.633	19947
899.753	19871
899.873	19788
899.993	20050
900.113	19856
900.232	19864
900.352	20005
900.472	19784
900.591	19651
900.711	19750
900.83	19689
900.95	19734
901.069	19841
901.189	19567
901.308	19388
901.427	19285
901.546	19331
901.665	19327
901.784	19365
901.904	19187
902.023	19156
902.141	18772
902.26	18867
902.379	19000
902.498	18821
902.617	18875
902.735	18913
902.854	18738
902.973	18760
903.091	18544
903.21	18494
903.328	18467
903.446	18437
903.565	18292
903.683	18251
903.801	18114
903.919	18315
904.038	18232
904.156	18072
904.274	18239
904.392	18129
904.51	18167
904.627	17999
904.745	18060
904.863	18167
904.981	17771
905.098	17794
905.216	17874
905.334	17703
905.451	17714
905.569	17729
905.686	17707
905.803	17729
905.921	17471
906.038	17623
906.155	17459
906.272	17353
906.389	17410
906.506	17326
906.623	17318
906.74	17284
906.857	17296
906.974	17220
907.091	17341
907.208	17311
907.324	17235
907.441	17121
907.557	17147
907.674	16946
907.79	16934
907.907	16942
908.023	16991
908.139	17079
908.256	16946
908.372	16942
908.488	16843
908.604	16740
908.72	16744
908.836	16721
908.952	16584
909.068	16733
909.184	16702
909.3	16656
909.415	16733
909.531	16725
909.647	16436
909.762	16493
909.878	16360
909.993	16451
910.108	16348
910.224	16367
910.339	16337
910.454	16200
910.57	16120
910.685	16154
910.8	16447
910.915	16390
911.03	16166
911.145	16013
911.259	16082
911.374	16040
911.489	15808
911.604	15895
911.718	15747
911.833	15762
911.947	15591
912.062	15599
912.176	15743
912.291	15679
912.405	15732
912.519	15964
912.633	15953
912.748	15797
912.862	15751
912.976	15515
913.09	15523
913.204	15504
913.318	15641
913.431	15701
913.545	15660
913.659	15652
913.772	15447
913.886	15405
914	15272
914.113	15363
914.226	15549
914.34	15378
914.453	15294
914.566	15469
914.68	15237
914.793	15138
914.906	15055
915.019	14937
915.132	14918
915.245	14979
915.358	14990
915.47	14952
915.583	14956
915.696	14979
915.809	15085
915.921	15100
916.034	14910
916.146	14830
916.259	14906
916.371	15001
916.483	14990
916.595	14765
916.708	14792
916.82	14765
916.932	14800
917.044	14804
917.156	14777
917.268	14613
917.38	14640
917.491	14598
917.603	14644
917.715	14739
917.826	14800
917.938	14602
918.049	14602
918.161	14583
918.272	14678
918.384	14727
918.495	14545
918.606	14545
918.717	14343
918.828	14385
918.939	14415
919.05	14328
919.161	14473
919.272	14183
919.383	14248
919.494	14492
919.604	14533
919.715	14328
919.826	14298
919.936	14465
920.047	14423
920.157	14393
920.267	14446
920.378	14393
920.488	14301
920.598	14545
920.708	14659
920.818	14473
920.928	14339
921.038	14705
921.148	14583
921.258	14225
921.368	14180
921.477	14103
921.587	14176
921.697	13967
921.806	14164
921.916	13955
922.025	13666
922.134	13776
922.244	13776
922.353	13742
922.462	13651
922.571	13529
922.68	13457
922.789	13388
922.898	13426
923.007	13358
923.116	13335
923.224	13304
923.333	13415
923.442	13175
923.55	13217
923.659	13335
923.767	13301
923.876	13190
923.984	13270
924.092	13156
924.201	13183
924.309	13183
924.417	13209
924.525	13069
924.633	13137
924.741	13803
924.849	12882
924.956	13042
925.064	12913
925.172	12768
925.279	12848
925.387	12859
925.494	12779
925.602	12939
925.709	12890
925.816	12707
925.924	12734
926.031	12916
926.138	12787
926.245	12840
926.352	12646
926.459	12867
926.566	12738
926.673	12669
926.779	12604
926.886	12498
926.993	12528
927.099	12437
927.206	12418
927.312	12315
927.419	12456
927.525	12391
927.631	12384
927.737	12308
927.843	12144
927.95	12049
928.056	12224
928.162	12155
928.267	12258
928.373	12772
928.479	12220
928.585	12064
928.69	12197
928.796	12136
928.901	12068
929.007	11939
929.112	12049
929.218	12068
929.323	12007
929.428	11977
929.533	12083
929.638	11802
929.743	11855
929.848	11946
929.953	11920
930.058	11779
930.163	11649
930.267	11691
930.372	11726
930.477	11570
930.581	11748
930.685	11688
930.79	11471
930.894	11581
930.998	11509
931.103	11684
931.207	11273
931.311	11170
931.415	11124
931.519	10972
931.623	10885
