Data from test_V78500241_2395.txt Node
Date: Fri Mar 25 15:26:32 CST 2022
User: usil
Spectrometer: V785-0024
Trigger mode: 0
Integration Time (sec): 4.000000E-1
Scans to average: 1
Nonlinearity correction enabled: false
Boxcar width: 0
Storing dark spectrum: false
XAxis mode: Wavelengths
Number of Pixels in Spectrum: 1024
>>>>>Begin Spectral Data<<<<<
801.071	27226
801.214	27203
801.356	26990
801.499	26781
801.641	26811
801.783	26693
801.926	26663
802.068	26743
802.211	26678
802.353	26606
802.496	26400
802.638	26290
802.78	26320
802.923	26218
803.065	26221
803.208	26248
803.35	26412
803.492	26423
803.635	26552
803.777	26339
803.919	26423
804.061	26720
804.204	26446
804.346	26385
804.488	26419
804.63	26476
804.773	26415
804.915	26724
805.057	26575
805.199	26530
805.341	26495
805.483	26720
805.626	26568
805.768	26431
805.91	26503
806.052	26549
806.194	26522
806.336	26701
806.478	26667
806.62	26625
806.762	26682
806.904	26876
807.046	26971
807.188	26994
807.33	27036
807.472	27005
807.614	26872
807.756	26861
807.898	26864
808.04	26830
808.182	26804
808.324	26960
808.465	26823
808.607	26963
808.749	27119
808.891	27226
809.033	27275
809.174	27351
809.316	27036
809.458	27154
809.6	27066
809.741	27199
809.883	27325
810.025	27412
810.166	27374
810.308	27424
810.45	27481
810.591	27317
810.733	27245
810.875	27203
811.016	27009
811.158	27085
811.299	27108
811.441	27306
811.582	27272
811.724	27112
811.865	27138
812.007	26967
812.148	27150
812.29	27287
812.431	27336
812.573	27405
812.714	27595
812.855	27534
812.997	27690
813.138	27819
813.279	27751
813.421	27656
813.562	27572
813.703	27389
813.845	27458
813.986	26887
814.127	26906
814.268	26853
814.41	26758
814.551	26986
814.692	26823
814.833	26750
814.974	26735
815.115	26785
815.256	26648
815.397	26609
815.539	26674
815.68	26640
815.821	26613
815.962	26602
816.103	26621
816.244	26374
816.385	26385
816.526	26457
816.666	26073
816.807	26005
816.948	26214
817.089	26229
817.23	26191
817.371	26073
817.512	25974
817.653	25970
817.793	26008
817.934	26031
818.075	26065
818.216	26157
818.356	25936
818.497	25978
818.638	25791
818.778	25799
818.919	25731
819.06	25826
819.2	25883
819.341	26046
819.481	26122
819.622	26225
819.762	26469
819.903	26358
820.043	26218
820.184	26126
820.324	26157
820.465	26153
820.605	26248
820.746	26111
820.886	26092
821.026	26084
821.167	26077
821.307	26328
821.447	25955
821.588	25989
821.728	25761
821.868	25670
822.008	25441
822.149	25525
822.289	25548
822.429	25316
822.569	25270
822.709	25236
822.849	25217
822.99	25076
823.13	24973
823.27	24916
823.41	24802
823.55	24711
823.69	24928
823.83	25023
823.97	24844
824.11	24745
824.25	24745
824.389	24795
824.529	24840
824.669	24635
824.809	24802
824.949	24681
825.089	24768
825.228	24810
825.368	24593
825.508	24563
825.648	24566
825.787	24517
825.927	24715
826.067	24547
826.206	24479
826.346	24574
826.485	24566
826.625	24585
826.765	24627
826.904	24578
827.044	24251
827.183	24357
827.323	24243
827.462	24384
827.601	24304
827.741	24232
827.88	24292
828.02	24129
828.159	24232
828.298	24327
828.437	24273
828.577	24155
828.716	24433
828.855	24190
828.994	23843
829.134	23977
829.273	24076
829.412	23977
829.551	23901
829.69	23878
829.829	23992
829.968	24022
830.107	23973
830.246	23973
830.385	23977
830.524	24003
830.663	23843
830.802	23611
830.941	23604
831.08	23482
831.219	23710
831.357	23611
831.496	23931
831.635	23452
831.774	23440
831.913	23505
832.051	23372
832.19	23372
832.329	23421
832.467	23296
832.606	23261
832.744	23143
832.883	23269
833.022	23181
833.16	23261
833.299	23181
833.437	23356
833.576	23334
833.714	23265
833.852	23360
833.991	23296
834.129	23490
834.267	23330
834.406	23307
834.544	23330
834.682	23345
834.821	23322
834.959	23459
835.097	23284
835.235	23391
835.373	23391
835.511	23334
835.65	23151
835.788	23189
835.926	23060
836.064	22957
836.202	23075
836.34	23143
836.478	23208
836.615	23143
836.753	23185
836.891	23197
837.029	23254
837.167	23109
837.305	23079
837.443	23033
837.58	23052
837.718	23033
837.856	23105
837.993	23079
838.131	22934
838.269	22873
838.406	22949
838.544	22801
838.681	22565
838.819	22706
838.956	22607
839.094	22542
839.231	22618
839.369	22554
839.506	22790
839.643	22679
839.781	22550
839.918	22478
840.055	22466
840.193	22394
840.33	22405
840.467	22322
840.604	22443
840.742	22664
840.879	22196
841.016	22390
841.153	22310
841.29	22462
841.427	22519
841.564	22451
841.701	22402
841.838	22265
841.975	22322
842.112	22440
842.249	22192
842.385	22169
842.522	22333
842.659	22204
842.796	22215
842.933	22215
843.069	22109
843.206	22082
843.343	22242
843.479	22124
843.616	22162
843.752	22059
843.889	21972
844.025	21987
844.162	21987
844.298	22063
844.435	21998
844.571	21808
844.708	22013
844.844	22116
844.98	22090
845.117	22124
845.253	21880
845.389	21812
845.525	21838
845.661	21850
845.798	21793
845.934	21759
846.07	21679
846.206	21629
846.342	21903
846.478	21660
846.614	21610
846.75	21401
846.886	21416
847.022	21561
847.158	21485
847.294	21511
847.429	21488
847.565	21393
847.701	21694
847.837	21161
847.972	21169
848.108	21230
848.244	21321
848.379	21089
848.515	21009
848.65	20986
848.786	20956
848.921	20998
849.057	21150
849.192	21165
849.328	21081
849.463	21081
849.598	20967
849.734	20880
849.869	20788
850.004	20686
850.14	20853
850.275	20727
850.41	20648
850.545	20819
850.68	20842
850.815	20826
850.95	20785
851.085	21119
851.22	20762
851.355	20864
851.49	20708
851.625	20807
851.76	20686
851.895	20674
852.03	20686
852.165	20750
852.299	20819
852.434	20739
852.569	20750
852.703	20686
852.838	20845
852.973	20910
853.107	20842
853.242	20625
853.376	20609
853.511	20541
853.645	20743
853.78	20785
853.914	20609
854.048	20689
854.183	20522
854.317	20632
854.451	20868
854.585	20575
854.72	20598
854.854	20629
854.988	20526
855.122	20571
855.256	20518
855.39	20606
855.524	20769
855.658	20682
855.792	20682
855.926	20571
856.06	20651
856.194	20629
856.327	20575
856.461	20461
856.595	20560
856.729	20617
856.862	20773
856.996	20712
857.13	20587
857.263	20727
857.397	20701
857.53	20613
857.664	20682
857.797	20670
857.931	20765
858.064	20621
858.197	20743
858.331	20705
858.464	20598
858.597	20442
858.731	20670
858.864	20579
858.997	20549
859.13	20480
859.263	20644
859.396	20670
859.529	20621
859.662	20632
859.795	20541
859.928	20564
860.061	20750
860.194	20754
860.327	20762
860.46	20594
860.592	20708
860.725	20743
860.858	20735
860.99	20556
861.123	20492
861.256	20552
861.388	20701
861.521	21074
861.653	20438
861.786	20473
861.918	20438
862.05	20545
862.183	20571
862.315	20590
862.447	20625
862.58	20454
862.712	20377
862.844	20229
862.976	20465
863.108	20518
863.24	20826
863.372	20199
863.504	20309
863.636	20290
863.768	20339
863.9	20339
864.032	20256
864.164	20309
864.296	20328
864.428	20419
864.559	20465
864.691	20480
864.823	20358
864.954	20317
865.086	20294
865.217	20362
865.349	20145
865.48	20157
865.612	20286
865.743	20336
865.875	20221
866.006	20275
866.137	20240
866.269	20145
866.4	20134
866.531	20149
866.662	20077
866.793	20145
866.924	20233
867.055	20191
867.186	20240
867.317	20062
867.448	20081
867.579	20142
867.71	20088
867.841	20149
867.972	20244
868.103	20191
868.233	20138
868.364	20301
868.495	20252
868.625	20423
868.756	20495
868.886	20343
869.017	20282
869.147	20537
869.278	20526
869.408	20457
869.539	20313
869.669	20503
869.799	20480
869.929	20507
870.06	20530
870.19	20636
870.32	20686
870.45	20708
870.58	20815
870.71	20872
870.84	20910
870.97	20807
871.1	20708
871.23	20967
871.36	20960
871.489	21036
871.619	20941
871.749	21013
871.879	21047
872.008	21184
872.138	20990
872.267	20937
872.397	20872
872.526	20880
872.656	20815
872.785	20868
872.915	21009
873.044	21222
873.173	21085
873.303	21024
873.432	20986
873.561	21165
873.69	21013
873.819	21020
873.948	21131
874.077	21077
874.206	20956
874.335	21028
874.464	21180
874.593	21233
874.722	21241
874.851	21245
874.979	21245
875.108	21389
875.237	21188
875.365	21195
875.494	21100
875.623	21260
875.751	21195
875.88	21291
876.008	21431
876.136	21507
876.265	21679
876.393	21766
876.521	21835
876.65	21675
876.778	21679
876.906	21709
877.034	21583
877.162	21633
877.29	21663
877.418	21724
877.546	21599
877.674	21713
877.802	21644
877.93	21557
878.058	21561
878.185	21431
878.313	21641
878.441	21671
878.568	21428
878.696	21469
878.824	21595
878.951	21580
879.079	21717
879.206	21960
879.333	21759
879.461	21637
879.588	21705
879.715	21739
879.842	21857
879.97	21618
880.097	21511
880.224	21485
880.351	21439
880.478	21492
880.605	21408
880.732	21466
880.859	21720
880.986	21462
881.112	21481
881.239	21412
881.366	21226
881.493	21039
881.619	21028
881.746	21207
881.872	21074
881.999	21005
882.125	20887
882.252	21043
882.378	21047
882.505	21093
882.631	20941
882.757	20796
882.883	20823
883.01	20788
883.136	20674
883.262	20640
883.388	20606
883.514	20663
883.64	20716
883.766	20575
883.892	20438
884.018	20545
884.143	20640
884.269	20689
884.395	20556
884.52	20415
884.646	20457
884.772	20294
884.897	20317
885.023	20358
885.148	20473
885.274	20629
885.399	20492
885.524	20298
885.65	20427
885.775	20431
885.9	20415
886.025	20400
886.15	20492
886.275	20393
886.4	20248
886.525	20404
886.65	20324
886.775	20362
886.9	20454
887.025	20492
887.149	20317
887.274	20210
887.399	20164
887.523	20202
887.648	20122
887.773	20138
887.897	20309
888.021	20062
888.146	20134
888.27	20237
888.395	20115
888.519	20210
888.643	20218
888.767	20115
888.891	20043
889.015	19936
889.139	20035
889.263	19894
889.387	20157
889.511	20206
889.635	20092
889.759	19871
889.883	19928
890.006	19871
890.13	19997
890.254	19833
890.377	19906
890.501	19700
890.624	19704
890.748	19841
890.871	19624
890.995	19525
891.118	19518
891.241	19544
891.364	19628
891.488	19734
891.611	19502
891.734	19613
891.857	19605
891.98	19529
892.103	19525
892.226	19521
892.349	19521
892.471	19358
892.594	19476
892.717	19575
892.839	19388
892.962	19460
893.085	19419
893.207	19476
893.33	19316
893.452	19301
893.575	19533
893.697	19521
893.819	19609
893.941	19620
894.064	19575
894.186	19407
894.308	19362
894.43	19460
894.552	19662
894.674	19594
894.796	19540
894.918	19430
895.04	19464
895.161	19540
895.283	19578
895.405	19400
895.526	19419
895.648	19445
895.769	19552
895.891	19510
896.012	19525
896.134	19495
896.255	19304
896.376	19377
896.498	19384
896.619	19502
896.74	19460
896.861	19483
896.982	19772
897.103	19875
897.224	19639
897.345	19811
897.466	19655
897.587	19719
897.708	19856
897.828	19578
897.949	19567
898.07	19647
898.19	19662
898.311	19826
898.431	19632
898.552	19742
898.672	19818
898.792	19894
898.913	19704
899.033	19575
899.153	19521
899.273	19354
899.393	19343
899.513	19441
899.633	19525
899.753	19422
899.873	19400
899.993	19468
900.113	19457
900.232	19499
900.352	19324
900.472	19293
900.591	19244
900.711	19209
900.83	19247
900.95	19324
901.069	19419
901.189	19293
901.308	18909
901.427	18840
901.546	18795
901.665	18951
901.784	18821
901.904	18734
902.023	18547
902.141	18547
902.26	18292
902.379	18403
902.498	18327
902.617	18205
902.735	18311
902.854	18357
902.973	18197
903.091	18125
903.21	17996
903.328	18076
903.446	17965
903.565	17916
903.683	17942
903.801	17703
903.919	17790
904.038	17699
904.156	17703
904.274	17665
904.392	17589
904.51	17581
904.627	17680
904.745	17695
904.863	17691
904.981	17448
905.098	17337
905.216	17307
905.334	17250
905.451	17307
905.569	17315
905.686	17353
905.803	17250
905.921	17124
906.038	17151
906.155	17193
906.272	16930
906.389	17079
906.506	16717
906.623	16809
906.74	16793
906.857	16873
906.974	16866
907.091	16862
907.208	16911
907.324	16885
907.441	16740
907.557	16733
907.674	16565
907.79	16519
907.907	16584
908.023	16637
908.139	16535
908.256	16558
908.372	16546
908.488	16451
908.604	16386
908.72	16314
908.836	16284
908.952	16299
909.068	16215
909.184	16356
909.3	16120
909.415	16295
909.531	16272
909.647	16082
909.762	15983
909.878	15964
909.993	16078
910.108	15915
910.224	15945
910.339	16010
910.454	15899
910.57	15835
910.685	15679
910.8	15960
910.915	15888
911.03	15713
911.145	15576
911.259	15637
911.374	15553
911.489	15564
911.604	15435
911.718	15408
911.833	15336
911.947	15249
912.062	15226
912.176	15264
912.291	15382
912.405	15329
912.519	15500
912.633	15420
912.748	15382
912.862	15287
912.976	15154
913.09	15085
913.204	15104
913.318	15226
913.431	15268
913.545	15169
913.659	15279
913.772	15146
913.886	15043
914	15047
914.113	15173
914.226	15051
914.34	15055
914.453	14944
914.566	14937
914.68	14929
914.793	14819
914.906	14792
915.019	14533
915.132	14552
915.245	14625
915.358	14621
915.47	14617
915.583	14598
915.696	14632
915.809	14549
915.921	14773
916.034	14499
916.146	14434
916.259	14461
916.371	14587
916.483	14568
916.595	14454
916.708	14457
916.82	14507
916.932	14431
917.044	14434
917.156	14320
917.268	14286
917.38	14282
917.491	14248
917.603	14290
917.715	14377
917.826	14309
917.938	14210
918.049	14218
918.161	14248
918.272	14374
918.384	14286
918.495	14240
918.606	14130
918.717	14012
918.828	14092
918.939	14027
919.05	13959
919.161	14050
919.272	13814
919.383	13814
919.494	14103
919.604	14145
919.715	13986
919.826	13944
919.936	14005
920.047	14001
920.157	14008
920.267	14191
920.378	13989
920.488	14039
920.598	14172
920.708	14317
920.818	14221
920.928	14081
921.038	14313
921.148	14199
921.258	13917
921.368	13879
921.477	13818
921.587	13753
921.697	13685
921.806	13811
921.916	13616
922.025	13445
922.134	13476
922.244	13327
922.353	13373
922.462	13331
922.571	13240
922.68	13053
922.789	12973
922.898	13080
923.007	12928
923.116	13069
923.224	13061
923.333	12985
923.442	12924
923.55	12901
923.659	12962
923.767	12993
923.876	12829
923.984	12909
924.092	12863
924.201	12833
924.309	12833
924.417	12856
924.525	12768
924.633	12719
924.741	13738
924.849	12528
924.956	12688
925.064	12563
925.172	12429
925.279	12494
925.387	12589
925.494	12566
925.602	12570
925.709	12460
925.816	12437
925.924	12486
926.031	12585
926.138	12467
926.245	12479
926.352	12311
926.459	12506
926.566	12448
926.673	12292
926.779	12224
926.886	12213
926.993	12110
927.099	12072
927.206	12087
927.312	11992
927.419	12159
927.525	12053
927.631	12102
927.737	11984
927.843	11904
927.95	11783
928.056	11847
928.162	11874
928.267	11927
928.373	12601
928.479	12072
928.585	11798
928.69	11958
928.796	11935
928.901	11790
929.007	11596
929.112	11756
929.218	11745
929.323	11619
929.428	11627
929.533	11821
929.638	11577
929.743	11524
929.848	11589
929.953	11577
930.058	11459
930.163	11307
930.267	11349
930.372	11493
930.477	11280
930.581	11512
930.685	11444
930.79	11318
930.894	11261
930.998	11170
931.103	11349
931.207	11010
931.311	10968
931.415	10866
931.519	10660
931.623	10649
