Data from test_V78500241_2969.txt Node
Date: Fri Mar 25 15:30:32 CST 2022
User: usil
Spectrometer: V785-0024
Trigger mode: 0
Integration Time (sec): 4.000000E-1
Scans to average: 1
Nonlinearity correction enabled: false
Boxcar width: 0
Storing dark spectrum: false
XAxis mode: Wavelengths
Number of Pixels in Spectrum: 1024
>>>>>Begin Spectral Data<<<<<
801.071	27070
801.214	26895
801.356	26651
801.499	26739
801.641	26495
801.783	26648
801.926	26568
802.068	26480
802.211	26522
802.353	26339
802.496	26282
802.638	26221
802.78	26069
802.923	25997
803.065	26096
803.208	26084
803.35	26149
803.492	26374
803.635	26355
803.777	26153
803.919	26339
804.061	26629
804.204	26317
804.346	26324
804.488	26126
804.63	26248
804.773	26199
804.915	26237
805.057	26400
805.199	26164
805.341	26317
805.483	26393
805.626	26450
805.768	26172
805.91	26423
806.052	26412
806.194	26187
806.336	26442
806.478	26343
806.62	26324
806.762	26412
806.904	26663
807.046	26819
807.188	26735
807.33	26834
807.472	26830
807.614	26686
807.756	26705
807.898	26629
808.04	26648
808.182	26434
808.324	26686
808.465	26613
808.607	26682
808.749	26819
808.891	27138
809.033	27150
809.174	27013
809.316	26872
809.458	26910
809.6	27051
809.741	26986
809.883	27112
810.025	27161
810.166	27131
810.308	27260
810.45	27154
810.591	27055
810.733	26967
810.875	26979
811.016	26857
811.158	26819
811.299	27085
811.441	27127
811.582	27180
811.724	27047
811.865	26906
812.007	26826
812.148	26750
812.29	26826
812.431	27150
812.573	27332
812.714	27363
812.855	27561
812.997	27447
813.138	27690
813.279	27652
813.421	27374
813.562	27370
813.703	27203
813.845	27146
813.986	26948
814.127	26796
814.268	26533
814.41	26533
814.551	26621
814.692	26644
814.833	26606
814.974	26351
815.115	26693
815.256	26393
815.397	26518
815.539	26355
815.68	26480
815.821	26336
815.962	26355
816.103	26374
816.244	26176
816.385	26130
816.526	26206
816.666	25978
816.807	25765
816.948	25909
817.089	25963
817.23	25875
817.371	25799
817.512	25890
817.653	25776
817.793	25807
817.934	25841
818.075	25955
818.216	25864
818.356	25818
818.497	25635
818.638	25518
818.778	25533
818.919	25590
819.06	25540
819.2	25651
819.341	25799
819.481	25822
819.622	25936
819.762	26199
819.903	26084
820.043	26096
820.184	26077
820.324	25932
820.465	25868
820.605	25970
820.746	25917
820.886	25833
821.026	25940
821.167	25959
821.307	25856
821.447	25807
821.588	25772
821.728	25616
821.868	25415
822.008	25377
822.149	25346
822.289	25278
822.429	25061
822.569	24913
822.709	24973
822.849	24871
822.99	24734
823.13	24757
823.27	24734
823.41	24612
823.55	24494
823.69	24582
823.83	24536
823.97	24620
824.11	24346
824.25	24300
824.389	24384
824.529	24574
824.669	24414
824.809	24578
824.949	24475
825.089	24467
825.228	24391
825.368	24426
825.508	24292
825.648	24281
825.787	24399
825.927	24254
826.067	24197
826.206	24334
826.346	24270
826.485	24315
826.625	24350
826.765	24281
826.904	24243
827.044	24136
827.183	23969
827.323	23965
827.462	24041
827.601	23958
827.741	23927
827.88	24110
828.02	23824
828.159	23885
828.298	24045
828.437	24003
828.577	23923
828.716	24129
828.855	23916
828.994	23649
829.134	23642
829.273	23722
829.412	23661
829.551	23520
829.69	23779
829.829	23695
829.968	23817
830.107	23699
830.246	23783
830.385	23608
830.524	23577
830.663	23471
830.802	23410
830.941	23292
831.08	23159
831.219	23330
831.357	23410
831.496	23471
831.635	23280
831.774	23170
831.913	23162
832.051	23083
832.19	22949
832.329	23151
832.467	22896
832.606	22949
832.744	22991
832.883	22900
833.022	22991
833.16	22923
833.299	22968
833.437	22927
833.576	23018
833.714	22942
833.852	23041
833.991	23155
834.129	23231
834.267	23151
834.406	23102
834.544	22877
834.682	23022
834.821	23044
834.959	23121
835.097	22850
835.235	22980
835.373	22949
835.511	22957
835.65	22965
835.788	22854
835.926	22721
836.064	22645
836.202	22710
836.34	22885
836.478	22809
836.615	22782
836.753	22889
836.891	22900
837.029	22862
837.167	22801
837.305	22733
837.443	22721
837.58	22710
837.718	22801
837.856	22809
837.993	22675
838.131	22641
838.269	22550
838.406	22672
838.544	22607
838.681	22325
838.819	22207
838.956	22219
839.094	22192
839.231	22211
839.369	22276
839.506	22672
839.643	22379
839.781	22036
839.918	22150
840.055	22173
840.193	22101
840.33	21960
840.467	22120
840.604	22078
840.742	22367
840.879	22032
841.016	21968
841.153	21934
841.29	22344
841.427	22135
841.564	22131
841.701	22048
841.838	22120
841.975	21972
842.112	22074
842.249	21987
842.385	21956
842.522	22029
842.659	21991
842.796	21854
842.933	21880
843.069	21861
843.206	21732
843.343	21930
843.479	21827
843.616	21770
843.752	21663
843.889	21542
844.025	21728
844.162	21648
844.298	21698
844.435	21526
844.571	21545
844.708	21648
844.844	21808
844.98	21774
845.117	21660
845.253	21618
845.389	21439
845.525	21500
845.661	21538
845.798	21355
845.934	21454
846.07	21344
846.206	21408
846.342	21462
846.478	21515
846.614	21195
846.75	21142
846.886	21135
847.022	21226
847.158	21298
847.294	21085
847.429	21077
847.565	21036
847.701	21370
847.837	20811
847.972	20906
848.108	20899
848.244	20921
848.379	20689
848.515	20648
848.65	20636
848.786	20693
848.921	20788
849.057	20899
849.192	20826
849.328	20815
849.463	20686
849.598	20651
849.734	20648
849.869	20511
850.004	20556
850.14	20583
850.275	20594
850.41	20301
850.545	20492
850.68	20336
850.815	20499
850.95	20473
851.085	20727
851.22	20442
851.355	20526
851.49	20431
851.625	20457
851.76	20530
851.895	20495
852.03	20442
852.165	20632
852.299	20457
852.434	20663
852.569	20419
852.703	20488
852.838	20480
852.973	20571
853.107	20568
853.242	20324
853.376	20366
853.511	20221
853.645	20218
853.78	20320
853.914	20427
854.048	20271
854.183	20256
854.317	20351
854.451	20412
854.585	20438
854.72	20252
854.854	20313
854.988	20263
855.122	20259
855.256	20180
855.39	20168
855.524	20404
855.658	20393
855.792	20374
855.926	20381
856.06	20355
856.194	20484
856.327	20317
856.461	20290
856.595	20336
856.729	20256
856.862	20476
856.996	20244
857.13	20366
857.263	20454
857.397	20358
857.53	20324
857.664	20301
857.797	20275
857.931	20480
858.064	20317
858.197	20484
858.331	20324
858.464	20248
858.597	20069
858.731	20256
858.864	20294
858.997	20134
859.13	20263
859.263	20294
859.396	20396
859.529	20298
859.662	20237
859.795	20180
859.928	20317
860.061	20492
860.194	20404
860.327	20393
860.46	20301
860.592	20298
860.725	20408
860.858	20461
860.99	20298
861.123	20278
861.256	20218
861.388	20309
861.521	20800
861.653	20218
861.786	20107
861.918	20107
862.05	20271
862.183	20278
862.315	20313
862.447	20267
862.58	20233
862.712	19921
862.844	19982
862.976	20130
863.108	20103
863.24	20488
863.372	19947
863.504	20012
863.636	20092
863.768	19978
863.9	19967
864.032	19932
864.164	20024
864.296	19974
864.428	20157
864.559	20039
864.691	20134
864.823	19944
864.954	20024
865.086	19955
865.217	19959
865.349	19811
865.48	19978
865.612	19936
865.743	19982
865.875	19951
866.006	19898
866.137	19978
866.269	19879
866.4	19776
866.531	19883
866.662	19841
866.793	19822
866.924	19982
867.055	19925
867.186	19947
867.317	19837
867.448	19776
867.579	19864
867.71	19727
867.841	19700
867.972	19772
868.103	19860
868.233	19902
868.364	19898
868.495	20005
868.625	20046
868.756	20092
868.886	20043
869.017	20107
869.147	20256
869.278	20278
869.408	20191
869.539	20191
869.669	20122
869.799	20134
869.929	20275
870.06	20187
870.19	20351
870.32	20404
870.45	20461
870.58	20476
870.71	20499
870.84	20682
870.97	20556
871.1	20541
871.23	20720
871.36	20689
871.489	20651
871.619	20701
871.749	20731
871.879	20880
872.008	20800
872.138	20796
872.267	20769
872.397	20606
872.526	20533
872.656	20530
872.785	20587
872.915	20861
873.044	20739
873.173	20788
873.303	20697
873.432	20823
873.561	20823
873.69	20693
873.819	20807
873.948	20830
874.077	20857
874.206	20686
874.335	20785
874.464	20788
874.593	20975
874.722	20979
874.851	21093
874.979	20990
875.108	20998
875.237	20975
875.365	20876
875.494	20868
875.623	21051
875.751	21005
875.88	20994
876.008	21199
876.136	21154
876.265	21332
876.393	21500
876.521	21439
876.65	21504
876.778	21382
876.906	21386
877.034	21233
877.162	21389
877.29	21264
877.418	21408
877.546	21397
877.674	21203
877.802	21382
877.93	21405
878.058	21340
878.185	21199
878.313	21279
878.441	21313
878.568	21150
878.696	21382
878.824	21428
878.951	21492
879.079	21564
879.206	21618
879.333	21485
879.461	21428
879.588	21500
879.715	21481
879.842	21713
879.97	21389
880.097	21260
880.224	21116
880.351	21245
880.478	21066
880.605	21123
880.732	21062
880.859	21386
880.986	21211
881.112	21142
881.239	21085
881.366	20792
881.493	20716
881.619	20754
881.746	20849
881.872	20743
881.999	20651
882.125	20743
882.252	20880
882.378	20788
882.505	20929
882.631	20537
882.757	20503
882.883	20606
883.01	20457
883.136	20393
883.262	20332
883.388	20324
883.514	20571
883.64	20442
883.766	20313
883.892	20263
884.018	20374
884.143	20461
884.269	20587
884.395	20237
884.52	20111
884.646	20100
884.772	20062
884.897	20081
885.023	20191
885.148	20172
885.274	20381
885.399	20164
885.524	20210
885.65	20164
885.775	20077
885.9	20039
886.025	20343
886.15	20157
886.275	20020
886.4	20069
886.525	20039
886.65	20122
886.775	20103
886.9	20237
887.025	20339
887.149	20069
887.274	19928
887.399	19951
887.523	19906
887.648	19879
887.773	19875
887.897	19947
888.021	19993
888.146	19814
888.27	20046
888.395	20043
888.519	19982
888.643	19974
888.767	19860
888.891	19807
889.015	19772
889.139	19788
889.263	19696
889.387	19791
889.511	19913
889.635	19879
889.759	19712
889.883	19704
890.006	19765
890.13	19761
890.254	19674
890.377	19635
890.501	19537
890.624	19453
890.748	19590
890.871	19343
890.995	19297
891.118	19221
891.241	19381
891.364	19350
891.488	19434
891.611	19331
891.734	19312
891.857	19384
891.98	19266
892.103	19354
892.226	19304
892.349	19232
892.471	19080
892.594	19221
892.717	19217
892.839	19168
892.962	19209
893.085	19301
893.207	19232
893.33	19057
893.452	19027
893.575	19350
893.697	19168
893.819	19403
893.941	19495
894.064	19449
894.186	19335
894.308	19183
894.43	19228
894.552	19483
894.674	19339
894.796	19160
894.918	19228
895.04	19206
895.161	19346
895.283	19263
895.405	19240
895.526	19316
895.648	19221
895.769	19266
895.891	19255
896.012	19293
896.134	19266
896.255	19240
896.376	19175
896.498	19160
896.619	19244
896.74	19228
896.861	19293
896.982	19586
897.103	19666
897.224	19620
897.345	19674
897.466	19388
897.587	19556
897.708	19521
897.828	19529
897.949	19502
898.07	19259
898.19	19434
898.311	19563
898.431	19510
898.552	19453
898.672	19616
898.792	19559
898.913	19518
899.033	19346
899.153	19312
899.273	19160
899.393	19206
899.513	19331
899.633	19304
899.753	19225
899.873	19221
899.993	19232
900.113	19236
900.232	19240
900.352	19175
900.472	19164
900.591	18996
900.711	19015
900.83	18954
900.95	19114
901.069	19114
901.189	18875
901.308	18722
901.427	18715
901.546	18681
901.665	18730
901.784	18715
901.904	18654
902.023	18376
902.141	18213
902.26	18266
902.379	18270
902.498	18182
902.617	18102
902.735	18159
902.854	18136
902.973	18144
903.091	17752
903.21	17923
903.328	17821
903.446	17863
903.565	17824
903.683	17642
903.801	17505
903.919	17566
904.038	17577
904.156	17444
904.274	17520
904.392	17448
904.51	17433
904.627	17459
904.745	17459
904.863	17455
904.981	17288
905.098	17041
905.216	17159
905.334	17174
905.451	17083
905.569	17052
905.686	17128
905.803	17029
905.921	16752
906.038	16987
906.155	16968
906.272	16675
906.389	16843
906.506	16668
906.623	16653
906.74	16611
906.857	16500
906.974	16580
907.091	16755
907.208	16786
907.324	16649
907.441	16470
907.557	16390
907.674	16306
907.79	16219
907.907	16314
908.023	16371
908.139	16363
908.256	16257
908.372	16291
908.488	16291
908.604	16040
908.72	16200
908.836	16002
908.952	16002
909.068	16181
909.184	16211
909.3	15983
909.415	16086
909.531	16090
909.647	15823
909.762	15781
909.878	15869
909.993	15778
910.108	15835
910.224	15709
910.339	15812
910.454	15675
910.57	15618
910.685	15519
910.8	15838
910.915	15785
911.03	15587
911.145	15378
911.259	15359
911.374	15408
911.489	15386
911.604	15249
911.718	15180
911.833	15268
911.947	15039
912.062	15009
912.176	15233
912.291	15119
912.405	15146
912.519	15481
912.633	15332
912.748	15188
912.862	15070
912.976	14982
913.09	14842
913.204	14921
913.318	14948
913.431	15074
913.545	14990
913.659	15085
913.772	14918
913.886	14906
914	14861
914.113	14815
914.226	14887
914.34	14895
914.453	14708
914.566	14773
914.68	14705
914.793	14705
914.906	14476
915.019	14454
915.132	14332
915.245	14362
915.358	14377
915.47	14415
915.583	14480
915.696	14427
915.809	14480
915.921	14549
916.034	14454
916.146	14294
916.259	14278
916.371	14324
916.483	14385
916.595	14290
916.708	14339
916.82	14339
916.932	14183
917.044	14202
917.156	14237
917.268	14142
917.38	14130
917.491	14088
917.603	14142
917.715	14123
917.826	14199
917.938	14100
918.049	13906
918.161	14111
918.272	14100
918.384	14210
918.495	13982
918.606	13970
918.717	13841
918.828	13902
918.939	13921
919.05	13765
919.161	13883
919.272	13655
919.383	13696
919.494	13978
919.604	14096
919.715	13871
919.826	13769
919.936	13742
920.047	13986
920.157	13921
920.267	14046
920.378	13894
920.488	13799
920.598	13944
920.708	14168
920.818	14016
920.928	13951
921.038	14119
921.148	14054
921.258	13757
921.368	13727
921.477	13674
921.587	13586
921.697	13556
921.806	13563
921.916	13491
922.025	13251
922.134	13274
922.244	13270
922.353	13282
922.462	13232
922.571	13076
922.68	12981
922.789	12935
922.898	12886
923.007	12878
923.116	13012
923.224	12779
923.333	12970
923.442	12730
923.55	12749
923.659	12821
923.767	12810
923.876	12688
923.984	12696
924.092	12665
924.201	12620
924.309	12677
924.417	12597
924.525	12620
924.633	12566
924.741	13346
924.849	12361
924.956	12494
925.064	12369
925.172	12338
925.279	12372
925.387	12311
925.494	12327
925.602	12433
925.709	12315
925.816	12319
925.924	12319
926.031	12380
926.138	12281
926.245	12369
926.352	12273
926.459	12330
926.566	12300
926.673	12239
926.779	12030
926.886	12133
926.993	12060
927.099	11939
927.206	11927
927.312	11942
927.419	11961
927.525	11961
927.631	11980
927.737	11901
927.843	11813
927.95	11638
928.056	11748
928.162	11817
928.267	11726
928.373	12414
928.479	11843
928.585	11630
928.69	11760
928.796	11703
928.901	11665
929.007	11471
929.112	11619
929.218	11699
929.323	11532
929.428	11501
929.533	11668
929.638	11490
929.743	11474
929.848	11520
929.953	11433
930.058	11360
930.163	11185
930.267	11242
930.372	11349
930.477	11151
930.581	11440
930.685	11322
930.79	11014
930.894	11079
930.998	11128
931.103	11140
931.207	10805
931.311	10812
931.415	10767
931.519	10577
931.623	10432
