Data from test_V78500241_2001.txt Node
Date: Fri Mar 25 15:23:47 CST 2022
User: usil
Spectrometer: V785-0024
Trigger mode: 0
Integration Time (sec): 4.000000E-1
Scans to average: 1
Nonlinearity correction enabled: false
Boxcar width: 0
Storing dark spectrum: false
XAxis mode: Wavelengths
Number of Pixels in Spectrum: 1024
>>>>>Begin Spectral Data<<<<<
801.071	27701
801.214	27713
801.356	27492
801.499	27420
801.641	27351
801.783	27450
801.926	27230
802.068	27291
802.211	27408
802.353	27142
802.496	27017
802.638	26956
802.78	26895
802.923	26811
803.065	26895
803.208	26845
803.35	26842
803.492	27096
803.635	27211
803.777	27039
803.919	27077
804.061	27408
804.204	27195
804.346	26975
804.488	27039
804.63	27043
804.773	27085
804.915	27112
805.057	27142
805.199	27131
805.341	27146
805.483	27260
805.626	27260
805.768	27195
805.91	27302
806.052	27226
806.194	27135
806.336	27382
806.478	27302
806.62	27268
806.762	27370
806.904	27519
807.046	27728
807.188	27561
807.33	27762
807.472	27728
807.614	27447
807.756	27629
807.898	27492
808.04	27393
808.182	27424
808.324	27530
808.465	27591
808.607	27827
808.749	27903
808.891	27895
809.033	28067
809.174	27914
809.316	27880
809.458	27823
809.6	27934
809.741	28044
809.883	27968
810.025	28169
810.166	28257
810.308	28177
810.45	28207
810.591	28093
810.733	27850
810.875	27926
811.016	27625
811.158	27717
811.299	27793
811.441	28013
811.582	28010
811.724	27945
811.865	27789
812.007	27869
812.148	27774
812.29	27873
812.431	28154
812.573	28219
812.714	28211
812.855	28371
812.997	28466
813.138	28523
813.279	28481
813.421	28436
813.562	28341
813.703	28207
813.845	28078
813.986	27827
814.127	27755
814.268	27572
814.41	27496
814.551	27599
814.692	27603
814.833	27675
814.974	27557
815.115	27557
815.256	27389
815.397	27507
815.539	27450
815.68	27325
815.821	27203
815.962	27336
816.103	27252
816.244	27085
816.385	27100
816.526	27226
816.666	26986
816.807	26842
816.948	26937
817.089	26986
817.23	26887
817.371	26765
817.512	26868
817.653	26895
817.793	26815
817.934	26746
818.075	26872
818.216	26834
818.356	26716
818.497	26663
818.638	26530
818.778	26507
818.919	26530
819.06	26632
819.2	26777
819.341	26735
819.481	26758
819.622	27024
819.762	27127
819.903	27039
820.043	27001
820.184	26937
820.324	26982
820.465	27013
820.605	26937
820.746	26944
820.886	26990
821.026	26921
821.167	26857
821.307	26940
821.447	26853
821.588	26743
821.728	26796
821.868	26396
822.008	26252
822.149	26351
822.289	26240
822.429	25955
822.569	25906
822.709	25845
822.849	25780
822.99	25830
823.13	25799
823.27	25784
823.41	25723
823.55	25518
823.69	25662
823.83	25571
823.97	25537
824.11	25514
824.25	25571
824.389	25476
824.529	25422
824.669	25377
824.809	25559
824.949	25430
825.089	25556
825.228	25434
825.368	25297
825.508	25396
825.648	25122
825.787	25320
825.927	25430
826.067	25129
826.206	25289
826.346	25297
826.485	25282
826.625	25441
826.765	25369
826.904	25312
827.044	25202
827.183	25088
827.323	24992
827.462	25152
827.601	24989
827.741	25042
827.88	24939
828.02	25000
828.159	24882
828.298	25107
828.437	24962
828.577	24973
828.716	25061
828.855	24970
828.994	24772
829.134	24760
829.273	24757
829.412	24665
829.551	24753
829.69	24772
829.829	24722
829.968	24802
830.107	24802
830.246	24741
830.385	24700
830.524	24726
830.663	24585
830.802	24486
830.941	24235
831.08	24315
831.219	24498
831.357	24369
831.496	24555
831.635	24369
831.774	24235
831.913	24281
832.051	24171
832.19	24167
832.329	24106
832.467	24087
832.606	23832
832.744	24018
832.883	23973
833.022	23988
833.16	24015
833.299	24121
833.437	24026
833.576	24076
833.714	24053
833.852	24079
833.991	24060
834.129	24087
834.267	24110
834.406	23996
834.544	24076
834.682	24110
834.821	24018
834.959	24129
835.097	24102
835.235	24178
835.373	24121
835.511	24057
835.65	23946
835.788	24003
835.926	23843
836.064	23619
836.202	23828
836.34	23885
836.478	23893
836.615	23882
836.753	23836
836.891	24011
837.029	24030
837.167	23790
837.305	23798
837.443	23832
837.58	23790
837.718	23790
837.856	23859
837.993	23638
838.131	23668
838.269	23710
838.406	23623
838.544	23512
838.681	23471
838.819	23387
838.956	23254
839.094	23246
839.231	23326
839.369	23414
839.506	23695
839.643	23497
839.781	23204
839.918	23136
840.055	23250
840.193	23239
840.33	23242
840.467	23189
840.604	23227
840.742	23345
840.879	22965
841.016	23079
841.153	23083
841.29	23330
841.427	23003
841.564	23174
841.701	23181
841.838	23113
841.975	23056
842.112	23022
842.249	22896
842.385	22896
842.522	23041
842.659	22919
842.796	22862
842.933	22942
843.069	22961
843.206	22812
843.343	22885
843.479	22915
843.616	22824
843.752	22740
843.889	22725
844.025	22767
844.162	22630
844.298	22729
844.435	22626
844.571	22637
844.708	22687
844.844	22771
844.98	22858
845.117	22717
845.253	22573
845.389	22622
845.525	22607
845.661	22550
845.798	22382
845.934	22489
846.07	22428
846.206	22447
846.342	22584
846.478	22398
846.614	22207
846.75	22173
846.886	22272
847.022	22177
847.158	22128
847.294	22048
847.429	22116
847.565	22067
847.701	22367
847.837	21968
847.972	21804
848.108	21869
848.244	21975
848.379	21781
848.515	21732
848.65	21690
848.786	21705
848.921	21663
849.057	21949
849.192	21865
849.328	21781
849.463	21857
849.598	21644
849.734	21648
849.869	21553
850.004	21545
850.14	21542
850.275	21507
850.41	21401
850.545	21549
850.68	21519
850.815	21496
850.95	21500
851.085	21629
851.22	21447
851.355	21568
851.49	21374
851.625	21450
851.76	21359
851.895	21378
852.03	21420
852.165	21412
852.299	21500
852.434	21538
852.569	21462
852.703	21500
852.838	21507
852.973	21648
853.107	21504
853.242	21389
853.376	21298
853.511	21180
853.645	21169
853.78	21435
853.914	21431
854.048	21340
854.183	21310
854.317	21279
854.451	21511
854.585	21313
854.72	21386
854.854	21325
854.988	21329
855.122	21458
855.256	21256
855.39	21401
855.524	21329
855.658	21431
855.792	21374
855.926	21348
856.06	21412
856.194	21412
856.327	21291
856.461	21275
856.595	21108
856.729	21294
856.862	21416
856.996	21416
857.13	21435
857.263	21431
857.397	21332
857.53	21241
857.664	21264
857.797	21348
857.931	21431
858.064	21310
858.197	21363
858.331	21283
858.464	21306
858.597	21294
858.731	21142
858.864	21192
858.997	21302
859.13	21355
859.263	21389
859.396	21378
859.529	21249
859.662	21264
859.795	21313
859.928	21340
860.061	21370
860.194	21454
860.327	21389
860.46	21389
860.592	21466
860.725	21462
860.858	21561
860.99	21256
861.123	21230
861.256	21150
861.388	21302
861.521	21979
861.653	21146
861.786	21085
861.918	21173
862.05	21074
862.183	21222
862.315	21176
862.447	21351
862.58	21218
862.712	21051
862.844	20982
862.976	21043
863.108	21066
863.24	21492
863.372	20937
863.504	20952
863.636	20937
863.768	21077
863.9	20998
864.032	20902
864.164	21017
864.296	21058
864.428	21051
864.559	21051
864.691	21108
864.823	21017
864.954	20956
865.086	20952
865.217	20963
865.349	20895
865.48	20872
865.612	20876
865.743	20941
865.875	21028
866.006	20880
866.137	20906
866.269	20925
866.4	20830
866.531	20963
866.662	20925
866.793	20788
866.924	20823
867.055	20876
867.186	20864
867.317	20815
867.448	20781
867.579	20804
867.71	20823
867.841	20739
867.972	20910
868.103	20807
868.233	20762
868.364	20754
868.495	20842
868.625	21070
868.756	21218
868.886	21070
869.017	21070
869.147	21252
869.278	21279
869.408	21066
869.539	21039
869.669	21188
869.799	21081
869.929	21157
870.06	21131
870.19	21435
870.32	21382
870.45	21340
870.58	21454
870.71	21625
870.84	21542
870.97	21458
871.1	21462
871.23	21580
871.36	21709
871.489	21515
871.619	21648
871.749	21629
871.879	21644
872.008	21713
872.138	21637
872.267	21545
872.397	21580
872.526	21583
872.656	21462
872.785	21568
872.915	21728
873.044	21720
873.173	21728
873.303	21808
873.432	21648
873.561	21797
873.69	21644
873.819	21759
873.948	21739
874.077	21804
874.206	21755
874.335	21770
874.464	21728
874.593	21937
874.722	21930
874.851	21960
874.979	21873
875.108	21972
875.237	21930
875.365	21907
875.494	21964
875.623	22116
875.751	21888
875.88	21949
876.008	22059
876.136	22074
876.265	22257
876.393	22421
876.521	22451
876.65	22382
876.778	22268
876.906	22261
877.034	22284
877.162	22318
877.29	22207
877.418	22284
877.546	22280
877.674	22337
877.802	22337
877.93	22322
878.058	22204
878.185	22303
878.313	22131
878.441	22196
878.568	22128
878.696	22341
878.824	22310
878.951	22375
879.079	22402
879.206	22588
879.333	22443
879.461	22303
879.588	22265
879.715	22455
879.842	22596
879.97	22341
880.097	22158
880.224	22048
880.351	22040
880.478	22162
880.605	22082
880.732	22162
880.859	22265
880.986	22150
881.112	22090
881.239	22040
881.366	21835
881.493	21827
881.619	21603
881.746	21682
881.872	21720
881.999	21625
882.125	21603
882.252	21679
882.378	21622
882.505	21819
882.631	21500
882.757	21401
882.883	21477
883.01	21439
883.136	21412
883.262	21355
883.388	21317
883.514	21428
883.64	21443
883.766	21336
883.892	21176
884.018	21245
884.143	21294
884.269	21500
884.395	21146
884.52	21066
884.646	21195
884.772	21043
884.897	20944
885.023	21024
885.148	21058
885.274	21074
885.399	21096
885.524	21051
885.65	20975
885.775	21104
885.9	20944
886.025	21195
886.15	21066
886.275	20963
886.4	20849
886.525	21051
886.65	21028
886.775	21017
886.9	21146
887.025	21283
887.149	20849
887.274	20853
887.399	20724
887.523	20724
887.648	20849
887.773	20613
887.897	20857
888.021	20807
888.146	20830
888.27	20773
888.395	20819
888.519	20701
888.643	20804
888.767	20914
888.891	20769
889.015	20556
889.139	20686
889.263	20571
889.387	20727
889.511	20682
889.635	20792
889.759	20575
889.883	20473
890.006	20514
890.13	20788
890.254	20590
890.377	20492
890.501	20317
890.624	20263
890.748	20381
890.871	20263
890.995	20172
891.118	20062
891.241	20073
891.364	20187
891.488	20210
891.611	20164
891.734	20145
891.857	20157
891.98	20229
892.103	20214
892.226	20149
892.349	20100
892.471	19936
892.594	20084
892.717	20111
892.839	20035
892.962	20012
893.085	20058
893.207	20142
893.33	19959
893.452	19894
893.575	19997
893.697	19940
893.819	20202
893.941	20377
894.064	20122
894.186	20054
894.308	20008
894.43	20229
894.552	20252
894.674	20164
894.796	19860
894.918	19993
895.04	20016
895.161	20103
895.283	20012
895.405	20016
895.526	20069
895.648	20035
895.769	20142
895.891	20069
896.012	20138
896.134	20096
896.255	20027
896.376	20088
896.498	20134
896.619	20100
896.74	20172
896.861	20153
896.982	20313
897.103	20431
897.224	20332
897.345	20180
897.466	20218
897.587	20225
897.708	20427
897.828	20309
897.949	20130
898.07	20126
898.19	20172
898.311	20381
898.431	20195
898.552	20351
898.672	20431
898.792	20366
898.913	20343
899.033	20069
899.153	20122
899.273	19982
899.393	19997
899.513	20039
899.633	20092
899.753	20153
899.873	20054
899.993	20077
900.113	19921
900.232	20031
900.352	19963
900.472	19814
900.591	19746
900.711	19879
900.83	19898
900.95	19860
901.069	19849
901.189	19689
901.308	19521
901.427	19483
901.546	19445
901.665	19468
901.784	19434
901.904	19198
902.023	19137
902.141	18916
902.26	18981
902.379	19008
902.498	18924
902.617	18894
902.735	18920
902.854	18833
902.973	18795
903.091	18589
903.21	18623
903.328	18635
903.446	18585
903.565	18300
903.683	18494
903.801	18296
903.919	18311
904.038	18429
904.156	18182
904.274	18239
904.392	18197
904.51	18098
904.627	18171
904.745	18152
904.863	18159
904.981	17901
905.098	17840
905.216	17878
905.334	17813
905.451	17805
905.569	17824
905.686	17885
905.803	17760
905.921	17729
906.038	17707
906.155	17684
906.272	17478
906.389	17535
906.506	17349
906.623	17322
906.74	17383
906.857	17235
906.974	17315
907.091	17383
907.208	17562
907.324	17417
907.441	17223
907.557	17052
907.674	17094
907.79	16984
907.907	17060
908.023	17003
908.139	17109
908.256	16965
908.372	16991
908.488	16938
908.604	16858
908.72	16755
908.836	16744
908.952	16820
909.068	16793
909.184	16774
909.3	16873
909.415	16820
909.531	16744
909.647	16493
909.762	16424
909.878	16531
909.993	16474
910.108	16519
910.224	16375
910.339	16561
910.454	16348
910.57	16261
910.685	16215
910.8	16481
910.915	16421
911.03	16242
911.145	16211
911.259	16112
911.374	16116
911.489	16067
911.604	15922
911.718	15880
911.833	15880
911.947	15838
912.062	15576
912.176	15747
912.291	15850
912.405	15823
912.519	15983
912.633	16086
912.748	15899
912.862	15823
912.976	15663
913.09	15515
913.204	15625
913.318	15732
913.431	15785
913.545	15660
913.659	15679
913.772	15515
913.886	15515
914	15477
914.113	15564
914.226	15660
914.34	15542
914.453	15298
914.566	15511
914.68	15329
914.793	15287
914.906	15161
915.019	15150
915.132	15005
915.245	15001
915.358	15150
915.47	15077
915.583	15058
915.696	15074
915.809	15142
915.921	15222
916.034	14956
916.146	14918
916.259	14914
916.371	15089
916.483	15055
916.595	14887
916.708	14941
916.82	14887
916.932	14804
917.044	14792
917.156	14689
917.268	14750
917.38	14758
917.491	14735
917.603	14716
917.715	14788
917.826	14762
917.938	14590
918.049	14514
918.161	14606
918.272	14750
918.384	14743
918.495	14674
918.606	14537
918.717	14237
918.828	14415
918.939	14507
919.05	14271
919.161	14412
919.272	14309
919.383	14298
919.494	14511
919.604	14617
919.715	14408
919.826	14396
919.936	14366
920.047	14495
920.157	14469
920.267	14598
920.378	14442
920.488	14381
920.598	14602
920.708	14724
920.818	14503
920.928	14629
921.038	14746
921.148	14659
921.258	14313
921.368	14225
921.477	14183
921.587	14062
921.697	14058
921.806	14119
921.916	14035
922.025	13928
922.134	13833
922.244	13772
922.353	13761
922.462	13693
922.571	13639
922.68	13403
922.789	13373
922.898	13419
923.007	13407
923.116	13403
923.224	13518
923.333	13453
923.442	13343
923.55	13206
923.659	13304
923.767	13369
923.876	13206
923.984	13327
924.092	13152
924.201	13266
924.309	13225
924.417	13266
924.525	13095
924.633	13065
924.741	13879
924.849	12894
924.956	13099
925.064	12916
925.172	12837
925.279	12871
925.387	12814
925.494	12852
925.602	13023
925.709	12817
925.816	12852
925.924	12814
926.031	12859
926.138	12738
926.245	12852
926.352	12703
926.459	12886
926.566	12890
926.673	12650
926.779	12582
926.886	12684
926.993	12456
927.099	12479
927.206	12384
927.312	12300
927.419	12460
927.525	12437
927.631	12471
927.737	12346
927.843	12380
927.95	12251
928.056	12178
928.162	12384
928.267	12376
928.373	12928
928.479	12380
928.585	12068
928.69	12258
928.796	12155
928.901	12034
929.007	12011
929.112	12091
929.218	12136
929.323	12068
929.428	12022
929.533	12125
929.638	11973
929.743	11939
929.848	12060
929.953	12007
930.058	11699
930.163	11710
930.267	11684
930.372	11748
930.477	11619
930.581	11828
930.685	11764
930.79	11539
930.894	11562
930.998	11482
931.103	11646
931.207	11299
931.311	11201
931.415	11136
931.519	10892
931.623	10946
