Data from test_V78500241_696.txt Node
Date: Fri Mar 25 15:14:42 CST 2022
User: usil
Spectrometer: V785-0024
Trigger mode: 0
Integration Time (sec): 4.000000E-1
Scans to average: 1
Nonlinearity correction enabled: false
Boxcar width: 0
Storing dark spectrum: false
XAxis mode: Wavelengths
Number of Pixels in Spectrum: 1024
>>>>>Begin Spectral Data<<<<<
801.071	28017
801.214	28029
801.356	27930
801.499	27876
801.641	27568
801.783	27644
801.926	27667
802.068	27739
802.211	27557
802.353	27538
802.496	27427
802.638	27348
802.78	27393
802.923	27226
803.065	27294
803.208	27260
803.35	27370
803.492	27500
803.635	27580
803.777	27614
803.919	27488
804.061	27831
804.204	27587
804.346	27549
804.488	27408
804.63	27401
804.773	27507
804.915	27641
805.057	27644
805.199	27496
805.341	27603
805.483	27694
805.626	27660
805.768	27542
805.91	27663
806.052	27549
806.194	27523
806.336	27854
806.478	27580
806.62	27743
806.762	27975
806.904	27884
807.046	28116
807.188	27987
807.33	28074
807.472	28078
807.614	27972
807.756	28105
807.898	27941
808.04	27766
808.182	27937
808.324	27998
808.465	28082
808.607	28124
808.749	28325
808.891	28375
809.033	28542
809.174	28386
809.316	28318
809.458	28348
809.6	28306
809.741	28424
809.883	28489
810.025	28733
810.166	28596
810.308	28565
810.45	28774
810.591	28577
810.733	28177
810.875	28314
811.016	28265
811.158	28150
811.299	28371
811.441	28550
811.582	28493
811.724	28371
811.865	28401
812.007	28371
812.148	28306
812.29	28337
812.431	28466
812.573	28729
812.714	28949
812.855	28782
812.997	28938
813.138	29147
813.279	28999
813.421	29056
813.562	28812
813.703	28656
813.845	28557
813.986	28325
814.127	28280
814.268	28204
814.41	28116
814.551	27998
814.692	27945
814.833	27987
814.974	28139
815.115	28131
815.256	27907
815.397	28090
815.539	27884
815.68	27819
815.821	27892
815.962	27785
816.103	27789
816.244	27671
816.385	27660
816.526	27648
816.666	27481
816.807	27351
816.948	27431
817.089	27568
817.23	27519
817.371	27344
817.512	27458
817.653	27306
817.793	27321
817.934	27416
818.075	27416
818.216	27382
818.356	27355
818.497	27287
818.638	27241
818.778	27112
818.919	27112
819.06	27435
819.2	27173
819.341	27481
819.481	27188
819.622	27477
819.762	27766
819.903	27671
820.043	27473
820.184	27431
820.324	27397
820.465	27618
820.605	27485
820.746	27435
820.886	27294
821.026	27534
821.167	27496
821.307	27443
821.447	27542
821.588	27154
821.728	27245
821.868	26982
822.008	26815
822.149	26804
822.289	26777
822.429	26724
822.569	26560
822.709	26434
822.849	26305
822.99	26301
823.13	26252
823.27	26248
823.41	25978
823.55	25978
823.69	26240
823.83	26191
823.97	26050
824.11	25978
824.25	26035
824.389	25917
824.529	26039
824.669	25917
824.809	26191
824.949	26134
825.089	26054
825.228	26062
825.368	25887
825.508	25864
825.648	25936
825.787	25833
825.927	25951
826.067	25982
826.206	25734
826.346	25833
826.485	25974
826.625	25731
826.765	25966
826.904	25974
827.044	25712
827.183	25639
827.323	25567
827.462	25674
827.601	25609
827.741	25559
827.88	25575
828.02	25483
828.159	25556
828.298	25502
828.437	25708
828.577	25339
828.716	25624
828.855	25441
828.994	25213
829.134	25331
829.273	25225
829.412	25175
829.551	25316
829.69	25251
829.829	25209
829.968	25240
830.107	25350
830.246	25175
830.385	25168
830.524	25175
830.663	25084
830.802	25034
830.941	24992
831.08	24935
831.219	25023
831.357	24977
831.496	25209
831.635	24920
831.774	24791
831.913	24840
832.051	24798
832.19	24692
832.329	24593
832.467	24597
832.606	24433
832.744	24517
832.883	24654
833.022	24467
833.16	24494
833.299	24612
833.437	24532
833.576	24559
833.714	24566
833.852	24738
833.991	24646
834.129	24764
834.267	24776
834.406	24673
834.544	24696
834.682	24696
834.821	24513
834.959	24791
835.097	24521
835.235	24563
835.373	24623
835.511	24654
835.65	24441
835.788	24490
835.926	24365
836.064	24323
836.202	24353
836.34	24483
836.478	24616
836.615	24471
836.753	24448
836.891	24486
837.029	24551
837.167	24330
837.305	24414
837.443	24296
837.58	24361
837.718	24213
837.856	24350
837.993	24254
838.131	24232
838.269	24091
838.406	24117
838.544	24034
838.681	23874
838.819	24034
838.956	23821
839.094	23870
839.231	23870
839.369	24053
839.506	24060
839.643	24018
839.781	23889
839.918	23726
840.055	23843
840.193	23764
840.33	23699
840.467	23634
840.604	23691
840.742	23901
840.879	23467
841.016	23547
841.153	23573
841.29	23748
841.427	23733
841.564	23726
841.701	23718
841.838	23615
841.975	23516
842.112	23539
842.249	23376
842.385	23360
842.522	23630
842.659	23307
842.796	23379
842.933	23387
843.069	23288
843.206	23299
843.343	23604
843.479	23436
843.616	23398
843.752	23159
843.889	23246
844.025	23246
844.162	23128
844.298	23345
844.435	23315
844.571	23113
844.708	23227
844.844	23372
844.98	23360
845.117	23368
845.253	23071
845.389	23052
845.525	23174
845.661	23094
845.798	22972
845.934	22862
846.07	22938
846.206	22995
846.342	23140
846.478	22934
846.614	22790
846.75	22580
846.886	22649
847.022	22645
847.158	22577
847.294	22702
847.429	22748
847.565	22622
847.701	22900
847.837	22337
847.972	22424
848.108	22379
848.244	22478
848.379	22360
848.515	22280
848.65	22242
848.786	22261
848.921	22318
849.057	22291
849.192	22375
849.328	22280
849.463	22219
849.598	22215
849.734	22029
849.869	21953
850.004	21869
850.14	22101
850.275	22109
850.41	21899
850.545	21972
850.68	22036
850.815	21964
850.95	21892
851.085	22219
851.22	22177
851.355	22017
851.49	21994
851.625	22044
851.76	22082
851.895	22021
852.03	21941
852.165	21983
852.299	22070
852.434	22131
852.569	22044
852.703	22059
852.838	22109
852.973	22166
853.107	22097
853.242	21835
853.376	21892
853.511	21793
853.645	21816
853.78	21983
853.914	21793
854.048	21701
854.183	21819
854.317	21823
854.451	21968
854.585	21774
854.72	21778
854.854	21854
854.988	21671
855.122	21861
855.256	21656
855.39	21732
855.524	22006
855.658	21816
855.792	21918
855.926	21789
856.06	21854
856.194	21819
856.327	21903
856.461	21800
856.595	21739
856.729	21903
856.862	21926
856.996	21804
857.13	21759
857.263	21911
857.397	21941
857.53	21850
857.664	21770
857.797	21937
857.931	21903
858.064	21785
858.197	21930
858.331	21797
858.464	21736
858.597	21709
858.731	21667
858.864	21675
858.997	21804
859.13	21812
859.263	21785
859.396	21907
859.529	21709
859.662	21770
859.795	21759
859.928	21876
860.061	21953
860.194	21998
860.327	21930
860.46	21781
860.592	21975
860.725	21918
860.858	21968
860.99	21899
861.123	21675
861.256	21755
861.388	21739
861.521	22500
861.653	21679
861.786	21583
861.918	21663
862.05	21823
862.183	21671
862.315	21759
862.447	21736
862.58	21789
862.712	21450
862.844	21526
862.976	21652
863.108	21568
863.24	21854
863.372	21553
863.504	21420
863.636	21450
863.768	21629
863.9	21481
864.032	21511
864.164	21477
864.296	21614
864.428	21618
864.559	21500
864.691	21553
864.823	21549
864.954	21496
865.086	21481
865.217	21397
865.349	21393
865.48	21363
865.612	21504
865.743	21629
865.875	21439
866.006	21340
866.137	21397
866.269	21462
866.4	21378
866.531	21294
866.662	21211
866.793	21241
866.924	21359
867.055	21344
867.186	21405
867.317	21264
867.448	21199
867.579	21310
867.71	21146
867.841	21268
867.972	21458
868.103	21252
868.233	21313
868.364	21466
868.495	21500
868.625	21568
868.756	21713
868.886	21500
869.017	21507
869.147	21622
869.278	21660
869.408	21675
869.539	21526
869.669	21800
869.799	21481
869.929	21641
870.06	21641
870.19	21915
870.32	21884
870.45	21918
870.58	21865
870.71	22135
870.84	22139
870.97	21994
871.1	21956
871.23	22166
871.36	22154
871.489	21983
871.619	22219
871.749	22074
871.879	22200
872.008	22204
872.138	22238
872.267	22177
872.397	21987
872.526	21846
872.656	22120
872.785	22044
872.915	22223
873.044	22337
873.173	22097
873.303	22173
873.432	22086
873.561	22325
873.69	22162
873.819	22070
873.948	22386
874.077	22200
874.206	22223
874.335	22223
874.464	22287
874.593	22394
874.722	22322
874.851	22428
874.979	22500
875.108	22333
875.237	22375
875.365	22223
875.494	22367
875.623	22459
875.751	22325
875.88	22348
876.008	22424
876.136	22489
876.265	22828
876.393	22873
876.521	22828
876.65	22892
876.778	22812
876.906	22812
877.034	22782
877.162	22721
877.29	22656
877.418	22656
877.546	22759
877.674	22752
877.802	22793
877.93	22759
878.058	22687
878.185	22641
878.313	22573
878.441	22729
878.568	22653
878.696	22641
878.824	22835
878.951	22816
879.079	22812
879.206	22961
879.333	22938
879.461	22725
879.588	22873
879.715	22786
879.842	23003
879.97	22866
880.097	22550
880.224	22580
880.351	22542
880.478	22618
880.605	22508
880.732	22531
880.859	22725
880.986	22542
881.112	22577
881.239	22382
881.366	22272
881.493	22261
881.619	22154
881.746	22059
881.872	22207
881.999	22143
882.125	22147
882.252	22109
882.378	22124
882.505	22219
882.631	21991
882.757	21800
882.883	21972
883.01	21831
883.136	21759
883.262	21686
883.388	21835
883.514	21857
883.64	21800
883.766	21690
883.892	21622
884.018	21637
884.143	21736
884.269	21899
884.395	21477
884.52	21458
884.646	21523
884.772	21382
884.897	21336
885.023	21454
885.148	21542
885.274	21641
885.399	21428
885.524	21389
885.65	21405
885.775	21325
885.9	21500
886.025	21583
886.15	21538
886.275	21454
886.4	21378
886.525	21439
886.65	21355
886.775	21382
886.9	21462
887.025	21663
887.149	21382
887.274	21279
887.399	21252
887.523	21306
887.648	21214
887.773	21211
887.897	21378
888.021	21405
888.146	21169
888.27	21359
888.395	21428
888.519	21275
888.643	21359
888.767	21230
888.891	21207
889.015	21100
889.139	21100
889.263	21066
889.387	21081
889.511	21260
889.635	21058
889.759	21028
889.883	20948
890.006	21081
890.13	21230
890.254	20906
890.377	20982
890.501	20861
890.624	20746
890.748	20849
890.871	20697
890.995	20575
891.118	20533
891.241	20629
891.364	20617
891.488	20815
891.611	20739
891.734	20659
891.857	20632
891.98	20488
892.103	20689
892.226	20697
892.349	20598
892.471	20438
892.594	20412
892.717	20541
892.839	20484
892.962	20640
893.085	20617
893.207	20499
893.33	20518
893.452	20427
893.575	20511
893.697	20644
893.819	20670
893.941	20773
894.064	20773
894.186	20423
894.308	20495
894.43	20560
894.552	20629
894.674	20499
894.796	20465
894.918	20541
895.04	20492
895.161	20537
895.283	20427
895.405	20454
895.526	20465
895.648	20503
895.769	20545
895.891	20492
896.012	20511
896.134	20579
896.255	20579
896.376	20499
896.498	20522
896.619	20545
896.74	20518
896.861	20438
896.982	20880
897.103	21055
897.224	20807
897.345	20705
897.466	20655
897.587	20712
897.708	20758
897.828	20754
897.949	20765
898.07	20503
898.19	20526
898.311	20708
898.431	20598
898.552	20625
898.672	20857
898.792	20712
898.913	20587
899.033	20556
899.153	20480
899.273	20473
899.393	20476
899.513	20549
899.633	20488
899.753	20480
899.873	20362
899.993	20503
900.113	20396
900.232	20427
900.352	20351
900.472	20218
900.591	20237
900.711	20191
900.83	20237
900.95	20263
901.069	20351
901.189	20084
901.308	19849
901.427	19837
901.546	19868
901.665	19928
901.784	19860
901.904	19750
902.023	19616
902.141	19415
902.26	19396
902.379	19331
902.498	19365
902.617	19324
902.735	19251
902.854	19225
902.973	19198
903.091	19019
903.21	19004
903.328	19023
903.446	18973
903.565	18897
903.683	18894
903.801	18616
903.919	18753
904.038	18757
904.156	18627
904.274	18692
904.392	18547
904.51	18460
904.627	18532
904.745	18654
904.863	18631
904.981	18330
905.098	18251
905.216	18205
905.334	18296
905.451	18281
905.569	18247
905.686	18311
905.803	18216
905.921	17973
906.038	18213
906.155	17980
906.272	17904
906.389	17950
906.506	17813
906.623	17851
906.74	17722
906.857	17638
906.974	17623
907.091	17714
907.208	17847
907.324	17741
907.441	17676
907.557	17444
907.674	17505
907.79	17402
907.907	17395
908.023	17558
908.139	17425
908.256	17345
908.372	17486
908.488	17239
908.604	17277
908.72	17189
908.836	17235
908.952	17117
909.068	17269
909.184	17265
909.3	17277
909.415	17223
909.531	17159
909.647	16949
909.762	16984
909.878	16786
909.993	16809
910.108	16812
910.224	16820
910.339	16877
910.454	16755
910.57	16691
910.685	16607
910.8	17037
910.915	16812
911.03	16744
911.145	16550
911.259	16462
911.374	16497
911.489	16443
911.604	16325
911.718	16067
911.833	16177
911.947	16219
912.062	16040
912.176	16242
912.291	16116
912.405	16162
912.519	16379
912.633	16432
912.748	16291
912.862	16150
912.976	16013
913.09	16032
913.204	16029
913.318	15979
913.431	16025
913.545	16200
913.659	16143
913.772	15934
913.886	15816
914	15869
914.113	15823
914.226	15842
914.34	15827
914.453	15770
914.566	15797
914.68	15705
914.793	15698
914.906	15469
915.019	15462
915.132	15408
915.245	15348
915.358	15458
915.47	15405
915.583	15443
915.696	15405
915.809	15492
915.921	15534
916.034	15401
916.146	15264
916.259	15272
916.371	15348
916.483	15317
916.595	15252
916.708	15306
916.82	15268
916.932	15272
917.044	15180
917.156	15085
917.268	15097
917.38	15116
917.491	15047
917.603	15013
917.715	15226
917.826	15188
917.938	15051
918.049	14910
918.161	14941
918.272	15066
918.384	15142
918.495	14960
918.606	14891
918.717	14739
918.828	14826
918.939	14914
919.05	14644
919.161	14800
919.272	14571
919.383	14781
919.494	14918
919.604	14994
919.715	14746
919.826	14765
919.936	14727
920.047	14731
920.157	14667
920.267	14994
920.378	14777
920.488	14758
920.598	14944
920.708	14990
920.818	14895
920.928	14975
921.038	15077
921.148	15005
921.258	14727
921.368	14659
921.477	14484
921.587	14461
921.697	14286
921.806	14526
921.916	14389
922.025	14248
922.134	14199
922.244	14153
922.353	14187
922.462	14107
922.571	13963
922.68	13849
922.789	13761
922.898	13803
923.007	13734
923.116	13856
923.224	13731
923.333	13769
923.442	13616
923.55	13616
923.659	13715
923.767	13670
923.876	13567
923.984	13708
924.092	13422
924.201	13552
924.309	13544
924.417	13525
924.525	13350
924.633	13468
924.741	14153
924.849	13282
924.956	13343
925.064	13240
925.172	13225
925.279	13164
925.387	13194
925.494	13194
925.602	13312
925.709	13232
925.816	13004
925.924	13171
926.031	13088
926.138	13008
926.245	13183
926.352	13084
926.459	13190
926.566	13175
926.673	13019
926.779	12924
926.886	12871
926.993	12787
927.099	12726
927.206	12642
927.312	12715
927.419	12848
927.525	12646
927.631	12764
927.737	12730
927.843	12563
927.95	12498
928.056	12635
928.162	12570
928.267	12650
928.373	13198
928.479	12589
928.585	12361
928.69	12559
928.796	12536
928.901	12464
929.007	12285
929.112	12467
929.218	12369
929.323	12311
929.428	12323
929.533	12327
929.638	12121
929.743	12285
929.848	12311
929.953	12232
930.058	12125
930.163	12019
930.267	11927
930.372	12110
930.477	11965
930.581	12178
930.685	12019
930.79	11809
930.894	11878
930.998	11794
931.103	11965
931.207	11634
931.311	11615
931.415	11395
931.519	11227
931.623	11273
