Data from test_V78500241_1855.txt Node
Date: Fri Mar 25 15:22:46 CST 2022
User: usil
Spectrometer: V785-0024
Trigger mode: 0
Integration Time (sec): 4.000000E-1
Scans to average: 1
Nonlinearity correction enabled: false
Boxcar width: 0
Storing dark spectrum: false
XAxis mode: Wavelengths
Number of Pixels in Spectrum: 1024
>>>>>Begin Spectral Data<<<<<
801.071	27827
801.214	27842
801.356	27431
801.499	27488
801.641	27329
801.783	27340
801.926	27336
802.068	27424
802.211	27382
802.353	27173
802.496	27165
802.638	27001
802.78	26963
802.923	26952
803.065	26979
803.208	27070
803.35	26998
803.492	27135
803.635	27154
803.777	27173
803.919	27237
804.061	27656
804.204	27214
804.346	27237
804.488	27173
804.63	27218
804.773	27009
804.915	27165
805.057	27294
805.199	27157
805.341	27348
805.483	27378
805.626	27412
805.768	27317
805.91	27298
806.052	27405
806.194	27256
806.336	27488
806.478	27310
806.62	27382
806.762	27382
806.904	27564
807.046	27800
807.188	27747
807.33	27762
807.472	27793
807.614	27663
807.756	27789
807.898	27728
808.04	27481
808.182	27443
808.324	27717
808.465	27633
808.607	27987
808.749	27975
808.891	28021
809.033	28192
809.174	28051
809.316	27892
809.458	27953
809.6	27895
809.741	28162
809.883	28078
810.025	28158
810.166	28303
810.308	28169
810.45	28230
810.591	28124
810.733	27918
810.875	27941
811.016	27831
811.158	27949
811.299	28036
811.441	28040
811.582	28097
811.724	27880
811.865	28013
812.007	27770
812.148	27945
812.29	27945
812.431	28120
812.573	28382
812.714	28363
812.855	28485
812.997	28500
813.138	28778
813.279	28554
813.421	28466
813.562	28401
813.703	28253
813.845	28257
813.986	27827
814.127	27812
814.268	27667
814.41	27652
814.551	27667
814.692	27675
814.833	27572
814.974	27701
815.115	27762
815.256	27492
815.397	27595
815.539	27591
815.68	27454
815.821	27397
815.962	27393
816.103	27336
816.244	27336
816.385	27138
816.526	27203
816.666	27039
816.807	26914
816.948	26948
817.089	27108
817.23	26994
817.371	26933
817.512	26933
817.653	26971
817.793	26910
817.934	26899
818.075	26918
818.216	26811
818.356	26883
818.497	26667
818.638	26697
818.778	26731
818.919	26617
819.06	26819
819.2	26849
819.341	26963
819.481	27005
819.622	27188
819.762	27302
819.903	27154
820.043	27241
820.184	27001
820.324	27119
820.465	27066
820.605	27055
820.746	26967
820.886	26857
821.026	27074
821.167	27009
821.307	26975
821.447	26963
821.588	26811
821.728	26693
821.868	26579
822.008	26575
822.149	26347
822.289	26518
822.429	26092
822.569	26077
822.709	26233
822.849	25947
822.99	25875
823.13	26050
823.27	25928
823.41	25746
823.55	25639
823.69	25753
823.83	25818
823.97	25769
824.11	25628
824.25	25613
824.389	25502
824.529	25635
824.669	25647
824.809	25746
824.949	25537
825.089	25658
825.228	25632
825.368	25472
825.508	25377
825.648	25514
825.787	25502
825.927	25426
826.067	25457
826.206	25479
826.346	25377
826.485	25430
826.625	25434
826.765	25544
826.904	25533
827.044	25350
827.183	25213
827.323	25145
827.462	25129
827.601	25156
827.741	25148
827.88	25133
828.02	25095
828.159	25198
828.298	25270
828.437	25251
828.577	25225
828.716	25324
828.855	25000
828.994	24802
829.134	24844
829.273	24837
829.412	24730
829.551	24738
829.69	24878
829.829	24939
829.968	24901
830.107	25027
830.246	24878
830.385	24806
830.524	24814
830.663	24745
830.802	24684
830.941	24547
831.08	24376
831.219	24612
831.357	24574
831.496	24707
831.635	24555
831.774	24346
831.913	24395
832.051	24350
832.19	24235
832.329	24239
832.467	24201
832.606	24228
832.744	24201
832.883	24232
833.022	24003
833.16	24110
833.299	24254
833.437	24194
833.576	24174
833.714	24167
833.852	24205
833.991	24342
834.129	24201
834.267	24323
834.406	24308
834.544	24300
834.682	24338
834.821	24140
834.959	24365
835.097	24224
835.235	24410
835.373	24216
835.511	24159
835.65	24057
835.788	24178
835.926	23958
836.064	23901
836.202	23958
836.34	24083
836.478	24155
836.615	24064
836.753	24106
836.891	24258
837.029	24148
837.167	23954
837.305	24117
837.443	23893
837.58	23977
837.718	23969
837.856	23874
837.993	23851
838.131	23961
838.269	23722
838.406	23783
838.544	23729
838.681	23718
838.819	23570
838.956	23440
839.094	23345
839.231	23410
839.369	23570
839.506	23847
839.643	23551
839.781	23436
839.918	23349
840.055	23463
840.193	23391
840.33	23277
840.467	23322
840.604	23277
840.742	23611
840.879	23258
841.016	23159
841.153	23250
841.29	23395
841.427	23406
841.564	23349
841.701	23368
841.838	23273
841.975	23204
842.112	23231
842.249	23098
842.385	23094
842.522	23147
842.659	23079
842.796	23048
842.933	23048
843.069	23064
843.206	23098
843.343	23197
843.479	23136
843.616	23075
843.752	22957
843.889	22930
844.025	23003
844.162	22801
844.298	22961
844.435	22744
844.571	22885
844.708	22976
844.844	22889
844.98	23117
845.117	22911
845.253	22805
845.389	22717
845.525	22854
845.661	22717
845.798	22660
845.934	22694
846.07	22500
846.206	22683
846.342	22607
846.478	22508
846.614	22379
846.75	22284
846.886	22303
847.022	22344
847.158	22402
847.294	22375
847.429	22386
847.565	22280
847.701	22561
847.837	22120
847.972	21941
848.108	22147
848.244	22116
848.379	21907
848.515	21903
848.65	21827
848.786	21975
848.921	21911
849.057	22025
849.192	22059
849.328	21922
849.463	21991
849.598	21717
849.734	21789
849.869	21759
850.004	21675
850.14	21766
850.275	21709
850.41	21583
850.545	21724
850.68	21618
850.815	21595
850.95	21671
851.085	21899
851.22	21759
851.355	21637
851.49	21720
851.625	21572
851.76	21553
851.895	21595
852.03	21591
852.165	21644
852.299	21709
852.434	21679
852.569	21720
852.703	21789
852.838	21717
852.973	21816
853.107	21778
853.242	21583
853.376	21652
853.511	21363
853.645	21454
853.78	21545
853.914	21526
854.048	21454
854.183	21477
854.317	21557
854.451	21728
854.585	21515
854.72	21397
854.854	21625
854.988	21386
855.122	21462
855.256	21447
855.39	21378
855.524	21534
855.658	21618
855.792	21545
855.926	21477
856.06	21545
856.194	21637
856.327	21443
856.461	21504
856.595	21332
856.729	21507
856.862	21561
856.996	21481
857.13	21500
857.263	21675
857.397	21633
857.53	21488
857.664	21507
857.797	21462
857.931	21652
858.064	21370
858.197	21553
858.331	21496
858.464	21386
858.597	21336
858.731	21473
858.864	21389
858.997	21469
859.13	21485
859.263	21526
859.396	21610
859.529	21564
859.662	21492
859.795	21439
859.928	21523
860.061	21682
860.194	21720
860.327	21580
860.46	21447
860.592	21701
860.725	21694
860.858	21618
860.99	21614
861.123	21458
861.256	21386
861.388	21610
861.521	22086
861.653	21389
861.786	21207
861.918	21355
862.05	21317
862.183	21306
862.315	21336
862.447	21496
862.58	21492
862.712	21264
862.844	21195
862.976	21321
863.108	21237
863.24	21538
863.372	21009
863.504	21287
863.636	21218
863.768	21332
863.9	21279
864.032	21146
864.164	21154
864.296	21264
864.428	21283
864.559	21268
864.691	21279
864.823	21260
864.954	21256
865.086	21119
865.217	21131
865.349	20925
865.48	20986
865.612	21131
865.743	21310
865.875	21146
866.006	21173
866.137	21252
866.269	21089
866.4	21028
866.531	20994
866.662	21009
866.793	21043
866.924	20944
867.055	20982
867.186	21020
867.317	21089
867.448	20944
867.579	21017
867.71	20979
867.841	20967
867.972	21024
868.103	21043
868.233	20979
868.364	21009
868.495	21108
868.625	21306
868.756	21336
868.886	21252
869.017	21249
869.147	21264
869.278	21344
869.408	21233
869.539	21184
869.669	21321
869.799	21275
869.929	21325
870.06	21264
870.19	21542
870.32	21458
870.45	21633
870.58	21561
870.71	21698
870.84	21770
870.97	21572
871.1	21633
871.23	21804
871.36	21770
871.489	21732
871.619	21808
871.749	22006
871.879	21892
872.008	21964
872.138	21884
872.267	21808
872.397	21644
872.526	21629
872.656	21682
872.785	21774
872.915	21888
873.044	21918
873.173	21930
873.303	22013
873.432	21953
873.561	21975
873.69	21808
873.819	21930
873.948	21979
874.077	21812
874.206	21797
874.335	21857
874.464	21934
874.593	22150
874.722	22067
874.851	22105
874.979	22177
875.108	22116
875.237	22223
875.365	21975
875.494	22029
875.623	22188
875.751	22006
875.88	22013
876.008	22310
876.136	22348
876.265	22519
876.393	22660
876.521	22592
876.65	22493
876.778	22485
876.906	22565
877.034	22337
877.162	22519
877.29	22405
877.418	22398
877.546	22481
877.674	22462
877.802	22573
877.93	22474
878.058	22421
878.185	22238
878.313	22314
878.441	22584
878.568	22173
878.696	22360
878.824	22421
878.951	22443
879.079	22679
879.206	22748
879.333	22603
879.461	22512
879.588	22535
879.715	22584
879.842	22710
879.97	22523
880.097	22341
880.224	22329
880.351	22196
880.478	22306
880.605	22204
880.732	22257
880.859	22497
880.986	22280
881.112	22306
881.239	22196
881.366	21991
881.493	21850
881.619	21835
881.746	21835
881.872	21918
881.999	21800
882.125	21812
882.252	21953
882.378	21793
882.505	21892
882.631	21736
882.757	21515
882.883	21603
883.01	21610
883.136	21530
883.262	21469
883.388	21416
883.514	21530
883.64	21538
883.766	21412
883.892	21272
884.018	21386
884.143	21496
884.269	21500
884.395	21260
884.52	21188
884.646	21218
884.772	21233
884.897	21123
885.023	21218
885.148	21169
885.274	21279
885.399	21252
885.524	21279
885.65	21142
885.775	21214
885.9	21157
886.025	21355
886.15	21241
886.275	21096
886.4	21043
886.525	21165
886.65	20948
886.775	21154
886.9	21237
887.025	21329
887.149	21184
887.274	21089
887.399	20925
887.523	20948
887.648	20872
887.773	20872
887.897	20944
888.021	20952
888.146	20986
888.27	21036
888.395	20895
888.519	20952
888.643	20960
888.767	20963
888.891	20769
889.015	20781
889.139	20868
889.263	20674
889.387	20925
889.511	20952
889.635	20944
889.759	20811
889.883	20785
890.006	20754
890.13	20792
890.254	20678
890.377	20682
890.501	20560
890.624	20400
890.748	20495
890.871	20385
890.995	20347
891.118	20237
891.241	20343
891.364	20298
891.488	20431
891.611	20343
891.734	20263
891.857	20248
891.98	20263
892.103	20419
892.226	20339
892.349	20286
892.471	20157
892.594	20282
892.717	20290
892.839	20199
892.962	20313
893.085	20168
893.207	20221
893.33	20168
893.452	20050
893.575	20248
893.697	20214
893.819	20271
893.941	20434
894.064	20419
894.186	20062
894.308	20107
894.43	20267
894.552	20313
894.674	20309
894.796	20096
894.918	20263
895.04	20122
895.161	20309
895.283	20290
895.405	20088
895.526	20191
895.648	20248
895.769	20202
895.891	20248
896.012	20282
896.134	20256
896.255	20237
896.376	20145
896.498	20172
896.619	20290
896.74	20161
896.861	20229
896.982	20415
897.103	20716
897.224	20461
897.345	20446
897.466	20351
897.587	20404
897.708	20514
897.828	20499
897.949	20366
898.07	20408
898.19	20328
898.311	20594
898.431	20282
898.552	20385
898.672	20423
898.792	20465
898.913	20412
899.033	20332
899.153	20142
899.273	20183
899.393	20221
899.513	20062
899.633	20191
899.753	20134
899.873	20115
899.993	20081
900.113	20122
900.232	20115
900.352	20126
900.472	20020
900.591	19928
900.711	20024
900.83	19868
900.95	19917
901.069	20077
901.189	19757
901.308	19620
901.427	19457
901.546	19491
901.665	19506
901.784	19460
901.904	19293
902.023	19324
902.141	19027
902.26	19053
902.379	19141
902.498	19057
902.617	18985
902.735	18958
902.854	19008
902.973	18821
903.091	18757
903.21	18601
903.328	18738
903.446	18601
903.565	18566
903.683	18525
903.801	18448
903.919	18509
904.038	18563
904.156	18266
904.274	18361
904.392	18357
904.51	18361
904.627	18262
904.745	18338
904.863	18311
904.981	18076
905.098	17988
905.216	17904
905.334	17942
905.451	18011
905.569	17996
905.686	17931
905.803	17984
905.921	17733
906.038	17764
906.155	17741
906.272	17714
906.389	17600
906.506	17516
906.623	17478
906.74	17463
906.857	17337
906.974	17391
907.091	17512
907.208	17680
907.324	17490
907.441	17398
907.557	17284
907.674	17315
907.79	17117
907.907	17136
908.023	17231
908.139	17208
908.256	17075
908.372	17060
908.488	17121
908.604	17029
908.72	16869
908.836	17014
908.952	16900
909.068	17010
909.184	16980
909.3	16949
909.415	16892
909.531	16786
909.647	16664
909.762	16656
909.878	16554
909.993	16592
910.108	16675
910.224	16607
910.339	16584
910.454	16493
910.57	16512
910.685	16432
910.8	16679
910.915	16493
911.03	16481
911.145	16215
911.259	16166
911.374	16147
911.489	16139
911.604	16044
911.718	15930
911.833	15994
911.947	15857
912.062	15743
912.176	15903
912.291	15907
912.405	15975
912.519	16109
912.633	16074
912.748	15991
912.862	15998
912.976	15819
913.09	15686
913.204	15785
913.318	15766
913.431	15816
913.545	15804
913.659	15861
913.772	15717
913.886	15660
914	15561
914.113	15698
914.226	15774
914.34	15709
914.453	15511
914.566	15694
914.68	15458
914.793	15370
914.906	15279
915.019	15275
915.132	14952
915.245	15188
915.358	15249
915.47	15218
915.583	15203
915.696	15245
915.809	15378
915.921	15374
916.034	15142
916.146	15127
916.259	14975
916.371	15176
916.483	15207
916.595	15051
916.708	14944
916.82	14967
916.932	14944
917.044	14914
917.156	14937
917.268	14830
917.38	14857
917.491	14834
917.603	14876
917.715	14891
917.826	14937
917.938	14743
918.049	14697
918.161	14689
918.272	14914
918.384	14891
918.495	14815
918.606	14571
918.717	14514
918.828	14583
918.939	14610
919.05	14606
919.161	14590
919.272	14419
919.383	14457
919.494	14625
919.604	14754
919.715	14594
919.826	14419
919.936	14476
920.047	14636
920.157	14598
920.267	14758
920.378	14537
920.488	14549
920.598	14724
920.708	14887
920.818	14625
920.928	14644
921.038	14788
921.148	14823
921.258	14427
921.368	14412
921.477	14199
921.587	14221
921.697	14092
921.806	14267
921.916	14077
922.025	13917
922.134	13917
922.244	13967
922.353	14020
922.462	13833
922.571	13731
922.68	13594
922.789	13575
922.898	13681
923.007	13445
923.116	13609
923.224	13601
923.333	13533
923.442	13506
923.55	13480
923.659	13396
923.767	13453
923.876	13350
923.984	13449
924.092	13217
924.201	13339
924.309	13316
924.417	13240
924.525	13247
924.633	13232
924.741	14084
924.849	13080
924.956	13126
925.064	13000
925.172	12920
925.279	12981
925.387	13034
925.494	12989
925.602	13133
925.709	12973
925.816	12913
925.924	12882
926.031	13027
926.138	12924
926.245	12977
926.352	12798
926.459	13027
926.566	13065
926.673	12901
926.779	12597
926.886	12852
926.993	12547
927.099	12486
927.206	12483
927.312	12407
927.419	12559
927.525	12460
927.631	12509
927.737	12483
927.843	12445
927.95	12292
928.056	12277
928.162	12410
928.267	12388
928.373	12935
928.479	12467
928.585	12159
928.69	12270
928.796	12281
928.901	12155
929.007	12045
929.112	12167
929.218	12194
929.323	12171
929.428	12110
929.533	12239
929.638	12019
929.743	12072
929.848	12121
929.953	11996
930.058	11916
930.163	11790
930.267	11802
930.372	11912
930.477	11726
930.581	12003
930.685	11821
930.79	11646
930.894	11672
930.998	11611
931.103	11745
931.207	11425
931.311	11410
931.415	11292
931.519	11025
931.623	11075
