Data from test_V78500241_1645.txt Node
Date: Fri Mar 25 15:21:18 CST 2022
User: usil
Spectrometer: V785-0024
Trigger mode: 0
Integration Time (sec): 4.000000E-1
Scans to average: 1
Nonlinearity correction enabled: false
Boxcar width: 0
Storing dark spectrum: false
XAxis mode: Wavelengths
Number of Pixels in Spectrum: 1024
>>>>>Begin Spectral Data<<<<<
801.071	27960
801.214	27694
801.356	27454
801.499	27302
801.641	27325
801.783	27431
801.926	27359
802.068	27252
802.211	27249
802.353	27116
802.496	26979
802.638	26975
802.78	26960
802.923	26902
803.065	26792
803.208	26804
803.35	26918
803.492	27036
803.635	27017
803.777	27020
803.919	27017
804.061	27298
804.204	27199
804.346	27112
804.488	27062
804.63	27047
804.773	27051
804.915	27154
805.057	27317
805.199	27096
805.341	27252
805.483	27260
805.626	27298
805.768	27005
805.91	27310
806.052	27279
806.194	27104
806.336	27424
806.478	27230
806.62	27313
806.762	27401
806.904	27488
807.046	27747
807.188	27755
807.33	27583
807.472	27739
807.614	27511
807.756	27679
807.898	27663
808.04	27576
808.182	27523
808.324	27523
808.465	27557
808.607	27774
808.749	27895
808.891	28010
809.033	27998
809.174	27884
809.316	27964
809.458	27804
809.6	27907
809.741	27884
809.883	27972
810.025	28276
810.166	28204
810.308	28150
810.45	28101
810.591	27968
810.733	27857
810.875	27759
811.016	27751
811.158	27644
811.299	27945
811.441	28006
811.582	28006
811.724	27892
811.865	27907
812.007	27934
812.148	27778
812.29	27937
812.431	28139
812.573	28070
812.714	28230
812.855	28417
812.997	28504
813.138	28546
813.279	28398
813.421	28455
813.562	28367
813.703	28265
813.845	28169
813.986	27918
814.127	27583
814.268	27656
814.41	27610
814.551	27458
814.692	27682
814.833	27435
814.974	27473
815.115	27564
815.256	27367
815.397	27374
815.539	27458
815.68	27359
815.821	27249
815.962	27218
816.103	27279
816.244	27325
816.385	27173
816.526	27157
816.666	26857
816.807	26864
816.948	26804
817.089	27009
817.23	26895
817.371	26887
817.512	26872
817.653	26857
817.793	26670
817.934	26864
818.075	26788
818.216	26842
818.356	26712
818.497	26686
818.638	26541
818.778	26579
818.919	26629
819.06	26598
819.2	26834
819.341	26697
819.481	26842
819.622	26960
819.762	27260
819.903	27093
820.043	27081
820.184	27001
820.324	26960
820.465	27020
820.605	26910
820.746	26876
820.886	26769
821.026	26918
821.167	26811
821.307	26857
821.447	26826
821.588	26819
821.728	26640
821.868	26518
822.008	26294
822.149	26271
822.289	26301
822.429	26001
822.569	25986
822.709	26024
822.849	25898
822.99	25925
823.13	25909
823.27	25830
823.41	25677
823.55	25594
823.69	25632
823.83	25559
823.97	25655
824.11	25464
824.25	25487
824.389	25495
824.529	25563
824.669	25388
824.809	25540
824.949	25563
825.089	25575
825.228	25502
825.368	25274
825.508	25426
825.648	25289
825.787	25324
825.927	25350
826.067	25301
826.206	25255
826.346	25270
826.485	25327
826.625	25316
826.765	25434
826.904	25400
827.044	25202
827.183	25084
827.323	25156
827.462	25091
827.601	25118
827.741	25050
827.88	25156
828.02	25000
828.159	24981
828.298	25141
828.437	25031
828.577	24939
828.716	25232
828.855	24954
828.994	24802
829.134	24776
829.273	24719
829.412	24745
829.551	24760
829.69	24757
829.829	24730
829.968	24894
830.107	24684
830.246	24787
830.385	24650
830.524	24578
830.663	24696
830.802	24407
830.941	24369
831.08	24289
831.219	24517
831.357	24471
831.496	24635
831.635	24460
831.774	24334
831.913	24190
832.051	24155
832.19	24186
832.329	24258
832.467	24087
832.606	23961
832.744	24022
832.883	23935
833.022	23954
833.16	24079
833.299	24030
833.437	24003
833.576	24091
833.714	24152
833.852	24159
833.991	24102
834.129	24308
834.267	24178
834.406	24083
834.544	24152
834.682	23992
834.821	24125
834.959	24323
835.097	24171
835.235	24133
835.373	24159
835.511	24098
835.65	24098
835.788	23893
835.926	23870
836.064	23767
836.202	23748
836.34	23889
836.478	23965
836.615	23904
836.753	24034
836.891	24064
837.029	23870
837.167	23935
837.305	23859
837.443	23950
837.58	23824
837.718	23889
837.856	23828
837.993	23756
838.131	23615
838.269	23573
838.406	23707
838.544	23554
838.681	23383
838.819	23337
838.956	23258
839.094	23258
839.231	23311
839.369	23414
839.506	23684
839.643	23551
839.781	23231
839.918	23109
840.055	23277
840.193	23258
840.33	23193
840.467	23010
840.604	23200
840.742	23509
840.879	23193
841.016	23044
841.153	22976
841.29	23242
841.427	23216
841.564	23212
841.701	23128
841.838	23170
841.975	22881
842.112	22869
842.249	23010
842.385	22881
842.522	23113
842.659	22953
842.796	22900
842.933	22885
843.069	22820
843.206	22831
843.343	23022
843.479	22923
843.616	22904
843.752	22733
843.889	22831
844.025	22976
844.162	22645
844.298	22820
844.435	22702
844.571	22713
844.708	22702
844.844	22831
844.98	22828
845.117	22790
845.253	22546
845.389	22527
845.525	22607
845.661	22500
845.798	22440
845.934	22485
846.07	22341
846.206	22363
846.342	22519
846.478	22417
846.614	22249
846.75	22181
846.886	22185
847.022	22287
847.158	22147
847.294	22135
847.429	22238
847.565	22226
847.701	22348
847.837	21926
847.972	21835
848.108	21949
848.244	21819
848.379	21835
848.515	21690
848.65	21606
848.786	21785
848.921	21838
849.057	21804
849.192	22029
849.328	21876
849.463	21675
849.598	21675
849.734	21705
849.869	21580
850.004	21572
850.14	21507
850.275	21580
850.41	21485
850.545	21393
850.68	21458
850.815	21595
850.95	21553
851.085	21701
851.22	21576
851.355	21462
851.49	21519
851.625	21439
851.76	21515
851.895	21447
852.03	21317
852.165	21397
852.299	21481
852.434	21519
852.569	21511
852.703	21656
852.838	21553
852.973	21622
853.107	21583
853.242	21443
853.376	21363
853.511	21203
853.645	21317
853.78	21454
853.914	21329
854.048	21207
854.183	21386
854.317	21336
854.451	21519
854.585	21351
854.72	21298
854.854	21332
854.988	21230
855.122	21355
855.256	21135
855.39	21207
855.524	21355
855.658	21363
855.792	21317
855.926	21378
856.06	21340
856.194	21367
856.327	21218
856.461	21283
856.595	21252
856.729	21218
856.862	21454
856.996	21344
857.13	21447
857.263	21416
857.397	21420
857.53	21313
857.664	21287
857.797	21283
857.931	21469
858.064	21466
858.197	21477
858.331	21454
858.464	21237
858.597	21336
858.731	21275
858.864	21237
858.997	21302
859.13	21397
859.263	21344
859.396	21298
859.529	21374
859.662	21405
859.795	21230
859.928	21420
860.061	21504
860.194	21458
860.327	21428
860.46	21291
860.592	21469
860.725	21435
860.858	21534
860.99	21241
861.123	21313
861.256	21340
861.388	21355
861.521	21979
861.653	21096
861.786	21131
861.918	21195
862.05	21332
862.183	21291
862.315	21211
862.447	21272
862.58	21222
862.712	21066
862.844	21051
862.976	21032
863.108	21119
863.24	21420
863.372	21055
863.504	21047
863.636	20994
863.768	21108
863.9	21028
864.032	20982
864.164	20982
864.296	21028
864.428	21131
864.559	21066
864.691	21089
864.823	21077
864.954	20971
865.086	20914
865.217	21039
865.349	20910
865.48	20986
865.612	20952
865.743	21062
865.875	20960
866.006	20918
866.137	20975
866.269	20952
866.4	20933
866.531	20773
866.662	20834
866.793	20689
866.924	20914
867.055	20883
867.186	20861
867.317	20785
867.448	20834
867.579	20781
867.71	20686
867.841	20769
867.972	20823
868.103	20845
868.233	20902
868.364	20781
868.495	20933
868.625	21131
868.756	21260
868.886	21096
869.017	21142
869.147	21066
869.278	21195
869.408	21150
869.539	21131
869.669	21211
869.799	21131
869.929	21192
870.06	21233
870.19	21367
870.32	21329
870.45	21348
870.58	21545
870.71	21477
870.84	21466
870.97	21488
871.1	21401
871.23	21663
871.36	21698
871.489	21800
871.619	21561
871.749	21694
871.879	21686
872.008	21831
872.138	21641
872.267	21789
872.397	21492
872.526	21469
872.656	21606
872.785	21511
872.915	21720
873.044	21766
873.173	21732
873.303	21781
873.432	21808
873.561	21831
873.69	21736
873.819	21690
873.948	21701
874.077	21770
874.206	21633
874.335	21766
874.464	21857
874.593	21857
874.722	21907
874.851	22074
874.979	21915
875.108	21907
875.237	22040
875.365	21854
875.494	21804
875.623	22025
875.751	21907
875.88	22029
876.008	22135
876.136	22051
876.265	22375
876.393	22584
876.521	22314
876.65	22341
876.778	22417
876.906	22375
877.034	22284
877.162	22234
877.29	22177
877.418	22344
877.546	22261
877.674	22272
877.802	22318
877.93	22249
878.058	22261
878.185	22242
878.313	22253
878.441	22215
878.568	22086
878.696	22268
878.824	22230
878.951	22409
879.079	22565
879.206	22322
879.333	22443
879.461	22413
879.588	22360
879.715	22459
879.842	22497
879.97	22447
880.097	22086
880.224	22173
880.351	22166
880.478	22139
880.605	22070
880.732	22059
880.859	22230
880.986	22181
881.112	22131
881.239	21983
881.366	21861
881.493	21835
881.619	21720
881.746	21778
881.872	21728
881.999	21610
882.125	21622
882.252	21770
882.378	21766
882.505	21770
882.631	21416
882.757	21412
882.883	21511
883.01	21374
883.136	21378
883.262	21252
883.388	21192
883.514	21374
883.64	21549
883.766	21332
883.892	21180
884.018	21214
884.143	21325
884.269	21355
884.395	21108
884.52	21020
884.646	20948
884.772	20963
884.897	20887
885.023	21085
885.148	21180
885.274	21081
885.399	21154
885.524	20971
885.65	21104
885.775	21047
885.9	21070
886.025	21123
886.15	21135
886.275	20994
886.4	21024
886.525	21043
886.65	20857
886.775	20963
886.9	21211
887.025	21302
887.149	20952
887.274	20906
887.399	20868
887.523	20682
887.648	20853
887.773	20686
887.897	20948
888.021	20876
888.146	20705
888.27	20982
888.395	20864
888.519	20807
888.643	20880
888.767	20838
888.891	20648
889.015	20507
889.139	20731
889.263	20518
889.387	20598
889.511	20769
889.635	20754
889.759	20606
889.883	20583
890.006	20552
890.13	20705
890.254	20522
890.377	20583
890.501	20347
890.624	20351
890.748	20404
890.871	20229
890.995	20229
891.118	20180
891.241	20164
891.364	20202
891.488	20248
891.611	20172
891.734	20164
891.857	20202
891.98	20043
892.103	20145
892.226	20229
892.349	19997
892.471	19997
892.594	20073
892.717	20084
892.839	20012
892.962	20065
893.085	20130
893.207	20035
893.33	20054
893.452	19826
893.575	20050
893.697	20107
893.819	20157
893.941	20305
894.064	20210
894.186	19936
894.308	19928
894.43	20221
894.552	20214
894.674	20161
894.796	19955
894.918	20035
895.04	20016
895.161	20069
895.283	20062
895.405	19887
895.526	20210
895.648	20119
895.769	20119
895.891	20027
896.012	20218
896.134	20081
896.255	20043
896.376	20073
896.498	19982
896.619	20149
896.74	20111
896.861	20088
896.982	20415
897.103	20488
897.224	20431
897.345	20240
897.466	20218
897.587	20161
897.708	20358
897.828	20362
897.949	20191
898.07	20050
898.19	20164
898.311	20244
898.431	20218
898.552	20225
898.672	20347
898.792	20396
898.913	20233
899.033	20225
899.153	20081
899.273	20043
899.393	20096
899.513	20005
899.633	20027
899.753	19921
899.873	19925
899.993	20050
900.113	19963
900.232	19963
900.352	19917
900.472	19917
900.591	19666
900.711	19940
900.83	19753
900.95	19928
901.069	19807
901.189	19742
901.308	19457
901.427	19403
901.546	19476
901.665	19419
901.784	19419
901.904	19259
902.023	19293
902.141	19015
902.26	18973
902.379	18989
902.498	18848
902.617	18837
902.735	18954
902.854	18833
902.973	18875
903.091	18597
903.21	18597
903.328	18566
903.446	18490
903.565	18426
903.683	18422
903.801	18262
903.919	18403
904.038	18338
904.156	18072
904.274	18186
904.392	18167
904.51	18095
904.627	18205
904.745	18239
904.863	18098
904.981	17885
905.098	17794
905.216	17859
905.334	17798
905.451	17931
905.569	17809
905.686	17889
905.803	17870
905.921	17649
906.038	17684
906.155	17604
906.272	17509
906.389	17539
906.506	17433
906.623	17459
906.74	17265
906.857	17296
906.974	17303
907.091	17383
907.208	17421
907.324	17364
907.441	17299
907.557	17185
907.674	17083
907.79	17117
907.907	17178
908.023	17045
908.139	16995
908.256	16957
908.372	16904
908.488	16927
908.604	16866
908.72	16702
908.836	16828
908.952	16755
909.068	16828
909.184	16805
909.3	16820
909.415	16839
909.531	16752
909.647	16618
909.762	16508
909.878	16466
909.993	16527
910.108	16447
910.224	16447
910.339	16413
910.454	16371
910.57	16253
910.685	16333
910.8	16519
910.915	16386
911.03	16325
911.145	16112
911.259	16185
911.374	16166
911.489	16093
911.604	15960
911.718	15869
911.833	15823
911.947	15743
912.062	15736
912.176	15816
912.291	15876
912.405	15850
912.519	15945
912.633	15960
912.748	15937
912.862	15705
912.976	15762
913.09	15538
913.204	15595
913.318	15629
913.431	15736
913.545	15743
913.659	15770
913.772	15603
913.886	15507
914	15481
914.113	15469
914.226	15530
914.34	15564
914.453	15310
914.566	15519
914.68	15325
914.793	15260
914.906	15100
915.019	15066
915.132	15017
915.245	15093
915.358	15085
915.47	15077
915.583	15020
915.696	15100
915.809	15116
915.921	15268
916.034	15005
916.146	14948
916.259	14952
916.371	14944
916.483	15013
916.595	14883
916.708	14788
916.82	14952
916.932	14895
917.044	14785
917.156	14804
917.268	14708
917.38	14754
917.491	14716
917.603	14804
917.715	14689
917.826	14739
917.938	14678
918.049	14583
918.161	14686
918.272	14746
918.384	14758
918.495	14674
918.606	14438
918.717	14431
918.828	14427
918.939	14583
919.05	14419
919.161	14412
919.272	14187
919.383	14427
919.494	14522
919.604	14648
919.715	14419
919.826	14412
919.936	14404
920.047	14507
920.157	14461
920.267	14590
920.378	14404
920.488	14366
920.598	14560
920.708	14739
920.818	14625
920.928	14564
921.038	14689
921.148	14663
921.258	14454
921.368	14301
921.477	14199
921.587	14142
921.697	14058
921.806	14202
921.916	14020
922.025	13906
922.134	13765
922.244	13769
922.353	13898
922.462	13639
922.571	13746
922.68	13449
922.789	13533
922.898	13518
923.007	13403
923.116	13529
923.224	13457
923.333	13483
923.442	13308
923.55	13304
923.659	13324
923.767	13350
923.876	13244
923.984	13304
924.092	13168
924.201	13354
924.309	13175
924.417	13183
924.525	13095
924.633	13095
924.741	14058
924.849	12920
924.956	13061
925.064	12924
925.172	12821
925.279	12867
925.387	12894
925.494	12897
925.602	13008
925.709	12856
925.816	12768
925.924	12829
926.031	12901
926.138	12894
926.245	12863
926.352	12783
926.459	12962
926.566	12806
926.673	12715
926.779	12563
926.886	12677
926.993	12448
927.099	12471
927.206	12308
927.312	12467
927.419	12483
927.525	12521
927.631	12460
927.737	12346
927.843	12262
927.95	12163
928.056	12209
928.162	12239
928.267	12311
928.373	12920
928.479	12319
928.585	12129
928.69	12330
928.796	12194
928.901	12159
929.007	11980
929.112	12015
929.218	12144
929.323	12079
929.428	12038
929.533	12159
929.638	11935
929.743	11916
929.848	12049
929.953	12007
930.058	11809
930.163	11653
930.267	11630
930.372	11832
930.477	11604
930.581	11904
930.685	11733
930.79	11619
930.894	11535
930.998	11482
931.103	11703
931.207	11258
931.311	11277
931.415	11117
931.519	11006
931.623	10946
