Data from test_V78500241_2810.txt Node
Date: Fri Mar 25 15:29:25 CST 2022
User: usil
Spectrometer: V785-0024
Trigger mode: 0
Integration Time (sec): 4.000000E-1
Scans to average: 1
Nonlinearity correction enabled: false
Boxcar width: 0
Storing dark spectrum: false
XAxis mode: Wavelengths
Number of Pixels in Spectrum: 1024
>>>>>Begin Spectral Data<<<<<
801.071	27230
801.214	27020
801.356	26937
801.499	26746
801.641	26716
801.783	26739
801.926	26781
802.068	26686
802.211	26617
802.353	26564
802.496	26431
802.638	26351
802.78	26278
802.923	26267
803.065	26210
803.208	26370
803.35	26404
803.492	26484
803.635	26427
803.777	26484
803.919	26560
804.061	26906
804.204	26465
804.346	26537
804.488	26446
804.63	26465
804.773	26221
804.915	26385
805.057	26621
805.199	26419
805.341	26568
805.483	26609
805.626	26629
805.768	26488
805.91	26575
806.052	26689
806.194	26541
806.336	26682
806.478	26511
806.62	26556
806.762	26636
806.904	26887
807.046	27142
807.188	27066
807.33	27100
807.472	27089
807.614	26891
807.756	26956
807.898	26849
808.04	26731
808.182	26788
808.324	26899
808.465	26902
808.607	27089
808.749	27313
808.891	27321
809.033	27272
809.174	27226
809.316	27150
809.458	27096
809.6	27157
809.741	27241
809.883	27218
810.025	27507
810.166	27526
810.308	27511
810.45	27382
810.591	27279
810.733	27230
810.875	27207
811.016	27157
811.158	27135
811.299	27249
811.441	27317
811.582	27466
811.724	27268
811.865	27146
812.007	27093
812.148	27252
812.29	27268
812.431	27332
812.573	27427
812.714	27587
812.855	27686
812.997	27804
813.138	27922
813.279	27861
813.421	27698
813.562	27625
813.703	27473
813.845	27317
813.986	27039
814.127	27085
814.268	26895
814.41	26994
814.551	26929
814.692	26838
814.833	26788
814.974	26792
815.115	26918
815.256	26659
815.397	26686
815.539	26743
815.68	26708
815.821	26541
815.962	26507
816.103	26667
816.244	26446
816.385	26431
816.526	26358
816.666	26199
816.807	26126
816.948	26195
817.089	26214
817.23	26180
817.371	26126
817.512	26130
817.653	26031
817.793	25966
817.934	26195
818.075	26096
818.216	26168
818.356	26122
818.497	26046
818.638	25807
818.778	25902
818.919	25879
819.06	25811
819.2	26046
819.341	25989
819.481	26084
819.622	26084
819.762	26465
819.903	26415
820.043	26305
820.184	26244
820.324	26252
820.465	26214
820.605	26229
820.746	26149
820.886	26050
821.026	26134
821.167	26149
821.307	26062
821.447	26008
821.588	25974
821.728	25830
821.868	25635
822.008	25651
822.149	25693
822.289	25537
822.429	25350
822.569	25270
822.709	25297
822.849	25053
822.99	25031
823.13	25012
823.27	25012
823.41	24951
823.55	24741
823.69	24886
823.83	24848
823.97	24764
824.11	24749
824.25	24681
824.389	24642
824.529	24658
824.669	24696
824.809	24779
824.949	24791
825.089	24734
825.228	24700
825.368	24696
825.508	24498
825.648	24669
825.787	24563
825.927	24700
826.067	24391
826.206	24498
826.346	24631
826.485	24650
826.625	24700
826.765	24593
826.904	24536
827.044	24300
827.183	24285
827.323	24247
827.462	24174
827.601	24232
827.741	24216
827.88	24247
828.02	24144
828.159	24235
828.298	24098
828.437	24281
828.577	24110
828.716	24342
828.855	24182
828.994	24057
829.134	23992
829.273	23954
829.412	23866
829.551	23866
829.69	23885
829.829	23980
829.968	24091
830.107	24155
830.246	23954
830.385	23965
830.524	23760
830.663	23756
830.802	23748
830.941	23672
831.08	23623
831.219	23703
831.357	23611
831.496	23824
831.635	23615
831.774	23528
831.913	23509
832.051	23455
832.19	23337
832.329	23318
832.467	23330
832.606	23178
832.744	23170
832.883	23159
833.022	23117
833.16	23307
833.299	23387
833.437	23273
833.576	23345
833.714	23330
833.852	23455
833.991	23337
834.129	23387
834.267	23417
834.406	23376
834.544	23376
834.682	23337
834.821	23288
834.959	23524
835.097	23296
835.235	23315
835.373	23360
835.511	23337
835.65	23064
835.788	23155
835.926	23025
836.064	22923
836.202	22995
836.34	23212
836.478	23292
836.615	23128
836.753	23079
836.891	23265
837.029	23109
837.167	22995
837.305	23132
837.443	23162
837.58	23003
837.718	22953
837.856	22984
837.993	22915
838.131	23098
838.269	22820
838.406	22949
838.544	22824
838.681	22653
838.819	22630
838.956	22508
839.094	22466
839.231	22542
839.369	22622
839.506	22801
839.643	22706
839.781	22409
839.918	22577
840.055	22466
840.193	22478
840.33	22314
840.467	22474
840.604	22485
840.742	22748
840.879	22249
841.016	22337
841.153	22226
841.29	22542
841.427	22561
841.564	22451
841.701	22409
841.838	22356
841.975	22360
842.112	22280
842.249	22211
842.385	22322
842.522	22272
842.659	22242
842.796	22128
842.933	22116
843.069	22116
843.206	22097
843.343	22253
843.479	22139
843.616	22211
843.752	22078
843.889	21972
844.025	22162
844.162	21945
844.298	21998
844.435	21835
844.571	21941
844.708	21979
844.844	22093
844.98	22105
845.117	22040
845.253	21861
845.389	21838
845.525	21873
845.661	21739
845.798	21705
845.934	21781
846.07	21583
846.206	21686
846.342	21701
846.478	21625
846.614	21469
846.75	21412
846.886	21378
847.022	21405
847.158	21473
847.294	21507
847.429	21515
847.565	21367
847.701	21656
847.837	21260
847.972	21077
848.108	21256
848.244	21310
848.379	20937
848.515	20906
848.65	20960
848.786	20979
848.921	20899
849.057	21199
849.192	21077
849.328	21009
849.463	21005
849.598	21062
849.734	20910
849.869	20891
850.004	20788
850.14	20792
850.275	20674
850.41	20651
850.545	20712
850.68	20724
850.815	20701
850.95	20735
851.085	20880
851.22	20872
851.355	20667
851.49	20758
851.625	20800
851.76	20773
851.895	20716
852.03	20720
852.165	20727
852.299	20731
852.434	20990
852.569	20788
852.703	20773
852.838	20670
852.973	20925
853.107	20960
853.242	20800
853.376	20670
853.511	20560
853.645	20533
853.78	20686
853.914	20590
854.048	20530
854.183	20514
854.317	20655
854.451	20815
854.585	20568
854.72	20602
854.854	20655
854.988	20579
855.122	20655
855.256	20484
855.39	20549
855.524	20659
855.658	20735
855.792	20606
855.926	20579
856.06	20636
856.194	20705
856.327	20579
856.461	20473
856.595	20503
856.729	20530
856.862	20804
856.996	20674
857.13	20617
857.263	20743
857.397	20674
857.53	20640
857.664	20651
857.797	20499
857.931	20670
858.064	20621
858.197	20659
858.331	20549
858.464	20609
858.597	20461
858.731	20606
858.864	20617
858.997	20579
859.13	20644
859.263	20663
859.396	20636
859.529	20621
859.662	20465
859.795	20499
859.928	20644
860.061	20697
860.194	20807
860.327	20556
860.46	20670
860.592	20720
860.725	20765
860.858	20815
860.99	20625
861.123	20450
861.256	20564
861.388	20613
861.521	21157
861.653	20511
861.786	20480
861.918	20343
862.05	20503
862.183	20556
862.315	20530
862.447	20537
862.58	20499
862.712	20214
862.844	20271
862.976	20423
863.108	20434
863.24	20838
863.372	20275
863.504	20252
863.636	20282
863.768	20362
863.9	20347
864.032	20313
864.164	20256
864.296	20286
864.428	20438
864.559	20343
864.691	20454
864.823	20313
864.954	20317
865.086	20229
865.217	20278
865.349	20206
865.48	20195
865.612	20271
865.743	20263
865.875	20221
866.006	20237
866.137	20328
866.269	20149
866.4	20313
866.531	20062
866.662	20084
866.793	20214
866.924	20081
867.055	20263
867.186	20176
867.317	20119
867.448	20073
867.579	20183
867.71	20138
867.841	20027
867.972	20164
868.103	20107
868.233	20122
868.364	20065
868.495	20210
868.625	20328
868.756	20495
868.886	20355
869.017	20465
869.147	20484
869.278	20606
869.408	20438
869.539	20362
869.669	20457
869.799	20473
869.929	20526
870.06	20537
870.19	20663
870.32	20727
870.45	20777
870.58	20819
870.71	20887
870.84	20861
870.97	20853
871.1	20754
871.23	20963
871.36	20975
871.489	20902
871.619	20990
871.749	20994
871.879	21009
872.008	21009
872.138	20994
872.267	21043
872.397	20853
872.526	20842
872.656	20880
872.785	20849
872.915	20990
873.044	20975
873.173	21001
873.303	21062
873.432	20963
873.561	21096
873.69	21104
873.819	21028
873.948	21165
874.077	21047
874.206	21058
874.335	21013
874.464	21100
874.593	21291
874.722	21241
874.851	21272
874.979	21184
875.108	21374
875.237	21157
875.365	21268
875.494	21233
875.623	21180
875.751	21161
875.88	21268
876.008	21435
876.136	21488
876.265	21641
876.393	21789
876.521	21755
876.65	21701
876.778	21675
876.906	21625
877.034	21576
877.162	21663
877.29	21625
877.418	21663
877.546	21511
877.674	21572
877.802	21705
877.93	21667
878.058	21549
878.185	21439
878.313	21633
878.441	21724
878.568	21542
878.696	21523
878.824	21599
878.951	21698
879.079	21774
879.206	21895
879.333	21781
879.461	21557
879.588	21671
879.715	21827
879.842	21800
879.97	21732
880.097	21507
880.224	21416
880.351	21477
880.478	21477
880.605	21435
880.732	21344
880.859	21717
880.986	21481
881.112	21408
881.239	21397
881.366	21184
881.493	21116
881.619	21055
881.746	21074
881.872	21051
881.999	21051
882.125	20941
882.252	21055
882.378	20918
882.505	21112
882.631	20937
882.757	20792
882.883	20864
883.01	20743
883.136	20823
883.262	20575
883.388	20514
883.514	20773
883.64	20811
883.766	20670
883.892	20549
884.018	20579
884.143	20720
884.269	20819
884.395	20594
884.52	20355
884.646	20415
884.772	20385
884.897	20393
885.023	20454
885.148	20556
885.274	20507
885.399	20533
885.524	20332
885.65	20450
885.775	20385
885.9	20339
886.025	20575
886.15	20469
886.275	20271
886.4	20267
886.525	20309
886.65	20275
886.775	20377
886.9	20374
887.025	20560
887.149	20301
887.274	20248
887.399	20237
887.523	20206
887.648	20107
887.773	19974
887.897	20237
888.021	20202
888.146	20138
888.27	20210
888.395	20355
888.519	20275
888.643	20187
888.767	20206
888.891	20069
889.015	19970
889.139	20001
889.263	19871
889.387	19993
889.511	20214
889.635	20065
889.759	19917
889.883	19989
890.006	20035
890.13	20119
890.254	19951
890.377	20001
890.501	19704
890.624	19772
890.748	19757
890.871	19571
890.995	19525
891.118	19586
891.241	19639
891.364	19548
891.488	19651
891.611	19628
891.734	19460
891.857	19696
891.98	19381
892.103	19510
892.226	19457
892.349	19533
892.471	19362
892.594	19525
892.717	19384
892.839	19392
892.962	19468
893.085	19559
893.207	19533
893.33	19339
893.452	19434
893.575	19396
893.697	19487
893.819	19670
893.941	19670
894.064	19624
894.186	19369
894.308	19362
894.43	19506
894.552	19609
894.674	19609
894.796	19407
894.918	19381
895.04	19411
895.161	19476
895.283	19377
895.405	19468
895.526	19438
895.648	19514
895.769	19495
895.891	19476
896.012	19468
896.134	19567
896.255	19506
896.376	19346
896.498	19483
896.619	19483
896.74	19449
896.861	19624
896.982	19708
897.103	19963
897.224	19784
897.345	19761
897.466	19609
897.587	19685
897.708	19925
897.828	19674
897.949	19632
898.07	19529
898.19	19597
898.311	19784
898.431	19616
898.552	19658
898.672	19807
898.792	19871
898.913	19628
899.033	19635
899.153	19594
899.273	19396
899.393	19502
899.513	19438
899.633	19457
899.753	19582
899.873	19438
899.993	19434
900.113	19514
900.232	19438
900.352	19388
900.472	19312
900.591	19190
900.711	19285
900.83	19293
900.95	19293
901.069	19331
901.189	19171
901.308	18947
901.427	18814
901.546	18886
901.665	18886
901.784	18871
901.904	18722
902.023	18589
902.141	18445
902.26	18437
902.379	18464
902.498	18380
902.617	18327
902.735	18418
902.854	18327
902.973	18224
903.091	18110
903.21	18057
903.328	18045
903.446	17939
903.565	17840
903.683	17832
903.801	17756
903.919	17882
904.038	17741
904.156	17760
904.274	17699
904.392	17634
904.51	17501
904.627	17615
904.745	17638
904.863	17798
904.981	17425
905.098	17402
905.216	17379
905.334	17379
905.451	17433
905.569	17227
905.686	17364
905.803	17246
905.921	17018
906.038	17147
906.155	17147
906.272	17003
906.389	16980
906.506	16930
906.623	16843
906.74	16812
906.857	16672
906.974	16748
907.091	16847
907.208	16911
907.324	16816
907.441	16778
907.557	16554
907.674	16584
907.79	16546
907.907	16493
908.023	16527
908.139	16546
908.256	16596
908.372	16512
908.488	16462
908.604	16379
908.72	16322
908.836	16280
908.952	16257
909.068	16322
909.184	16386
909.3	16223
909.415	16219
909.531	16249
909.647	16101
909.762	15888
909.878	16048
909.993	15979
910.108	15994
910.224	15934
910.339	16021
910.454	15907
910.57	15778
910.685	15766
910.8	15972
910.915	16006
911.03	15766
911.145	15679
911.259	15500
911.374	15553
911.489	15561
911.604	15542
911.718	15386
911.833	15386
911.947	15256
912.062	15203
912.176	15443
912.291	15397
912.405	15389
912.519	15545
912.633	15538
912.748	15367
912.862	15302
912.976	15199
913.09	15146
913.204	15161
913.318	15116
913.431	15207
913.545	15245
913.659	15268
913.772	15256
913.886	14948
914	15017
914.113	15009
914.226	15085
914.34	15116
914.453	14845
914.566	15020
914.68	14891
914.793	14823
914.906	14735
915.019	14602
915.132	14602
915.245	14621
915.358	14648
915.47	14636
915.583	14522
915.696	14708
915.809	14731
915.921	14792
916.034	14549
916.146	14560
916.259	14503
916.371	14667
916.483	14514
916.595	14473
916.708	14434
916.82	14313
916.932	14484
917.044	14457
917.156	14427
917.268	14381
917.38	14240
917.491	14347
917.603	14244
917.715	14336
917.826	14415
917.938	14214
918.049	14176
918.161	14294
918.272	14442
918.384	14305
918.495	14275
918.606	14027
918.717	14073
918.828	14069
918.939	14119
919.05	13909
919.161	14031
919.272	13887
919.383	13856
919.494	14043
919.604	14168
919.715	14077
919.826	13928
919.936	14012
920.047	14065
920.157	13989
920.267	14191
920.378	14145
920.488	13925
920.598	14240
920.708	14290
920.818	14237
920.928	14096
921.038	14347
921.148	14225
921.258	13986
921.368	13890
921.477	13894
921.587	13765
921.697	13597
921.806	13868
921.916	13601
922.025	13449
922.134	13430
922.244	13369
922.353	13369
922.462	13293
922.571	13255
922.68	13126
922.789	13000
922.898	13046
923.007	13076
923.116	13179
923.224	13107
923.333	13015
923.442	12909
923.55	12837
923.659	12958
923.767	12970
923.876	12814
923.984	12996
924.092	12867
924.201	12840
924.309	12738
924.417	12882
924.525	12696
924.633	12787
924.741	13533
924.849	12521
924.956	12715
925.064	12498
925.172	12490
925.279	12509
925.387	12566
925.494	12429
925.602	12532
925.709	12502
925.816	12429
925.924	12475
926.031	12494
926.138	12445
926.245	12506
926.352	12372
926.459	12483
926.566	12544
926.673	12410
926.779	12209
926.886	12289
926.993	12190
927.099	12114
927.206	12083
927.312	11969
927.419	12155
927.525	12095
927.631	12045
927.737	12041
927.843	11935
927.95	11920
928.056	11836
928.162	11916
928.267	11882
928.373	12692
928.479	11992
928.585	11817
928.69	11999
928.796	11927
928.901	11802
929.007	11684
929.112	11794
929.218	11767
929.323	11733
929.428	11676
929.533	11809
929.638	11642
929.743	11661
929.848	11554
929.953	11676
930.058	11577
930.163	11311
930.267	11402
930.372	11490
930.477	11364
930.581	11630
930.685	11478
930.79	11250
930.894	11258
930.998	11208
931.103	11417
931.207	11003
931.311	10938
931.415	10892
931.519	10702
931.623	10637
