Data from test_V78500241_1803.txt Node
Date: Fri Mar 25 15:22:24 CST 2022
User: usil
Spectrometer: V785-0024
Trigger mode: 0
Integration Time (sec): 4.000000E-1
Scans to average: 1
Nonlinearity correction enabled: false
Boxcar width: 0
Storing dark spectrum: false
XAxis mode: Wavelengths
Number of Pixels in Spectrum: 1024
>>>>>Begin Spectral Data<<<<<
801.071	27930
801.214	27800
801.356	27648
801.499	27485
801.641	27443
801.783	27408
801.926	27443
802.068	27416
802.211	27317
802.353	27237
802.496	27199
802.638	27074
802.78	26975
802.923	27108
803.065	26906
803.208	26811
803.35	27157
803.492	27195
803.635	27093
803.777	27180
803.919	27279
804.061	27606
804.204	27279
804.346	27214
804.488	27199
804.63	27287
804.773	27192
804.915	27157
805.057	27424
805.199	27199
805.341	27180
805.483	27443
805.626	27321
805.768	27077
805.91	27359
806.052	27359
806.194	27116
806.336	27526
806.478	27595
806.62	27374
806.762	27542
806.904	27629
807.046	27789
807.188	27880
807.33	27831
807.472	27922
807.614	27667
807.756	27751
807.898	27633
808.04	27610
808.182	27557
808.324	27572
808.465	27732
808.607	27854
808.749	28006
808.891	27914
809.033	27941
809.174	28051
809.316	27937
809.458	27903
809.6	27949
809.741	28135
809.883	28166
810.025	28234
810.166	28272
810.308	28223
810.45	28078
810.591	28177
810.733	28048
810.875	27934
811.016	27956
811.158	27656
811.299	27991
811.441	28303
811.582	27975
811.724	28025
811.865	27884
812.007	27846
812.148	27903
812.29	28029
812.431	28158
812.573	28303
812.714	28363
812.855	28440
812.997	28466
813.138	28771
813.279	28653
813.421	28569
813.562	28409
813.703	28242
813.845	28215
813.986	27949
814.127	27713
814.268	27667
814.41	27572
814.551	27686
814.692	27800
814.833	27648
814.974	27667
815.115	27663
815.256	27572
815.397	27359
815.539	27420
815.68	27500
815.821	27450
815.962	27599
816.103	27507
816.244	27382
816.385	27222
816.526	27344
816.666	27100
816.807	26975
816.948	26960
817.089	27127
817.23	27055
817.371	27013
817.512	27001
817.653	27017
817.793	26925
817.934	27024
818.075	26743
818.216	27100
818.356	27001
818.497	26785
818.638	26765
818.778	26845
818.919	26762
819.06	26819
819.2	26933
819.341	26956
819.481	26998
819.622	27123
819.762	27355
819.903	27138
820.043	27173
820.184	27131
820.324	27100
820.465	27135
820.605	27195
820.746	27116
820.886	26982
821.026	27119
821.167	27020
821.307	27207
821.447	26979
821.588	26906
821.728	26739
821.868	26480
822.008	26617
822.149	26484
822.289	26396
822.429	26210
822.569	26221
822.709	26081
822.849	25993
822.99	25936
823.13	25788
823.27	26069
823.41	25830
823.55	25635
823.69	25727
823.83	25791
823.97	25639
824.11	25540
824.25	25647
824.389	25696
824.529	25567
824.669	25590
824.809	25632
824.949	25529
825.089	25666
825.228	25616
825.368	25388
825.508	25441
825.648	25499
825.787	25468
825.927	25582
826.067	25559
826.206	25476
826.346	25510
826.485	25540
826.625	25544
826.765	25628
826.904	25521
827.044	25240
827.183	25164
827.323	25320
827.462	25354
827.601	25244
827.741	25133
827.88	25221
828.02	25168
828.159	25019
828.298	25289
828.437	25358
828.577	25228
828.716	25202
828.855	25141
828.994	24913
829.134	24848
829.273	24856
829.412	24916
829.551	24852
829.69	24764
829.829	24909
829.968	24981
830.107	24913
830.246	24878
830.385	24783
830.524	24711
830.663	24703
830.802	24684
830.941	24547
831.08	24544
831.219	24688
831.357	24719
831.496	24802
831.635	24574
831.774	24422
831.913	24471
832.051	24292
832.19	24285
832.329	24353
832.467	24209
832.606	24053
832.744	24182
832.883	24174
833.022	24254
833.16	24155
833.299	24247
833.437	24296
833.576	24399
833.714	24334
833.852	24384
833.991	24304
834.129	24311
834.267	24388
834.406	24319
834.544	24308
834.682	24266
834.821	24407
834.959	24437
835.097	24247
835.235	24319
835.373	24213
835.511	24102
835.65	24144
835.788	24152
835.926	24064
836.064	23950
836.202	23893
836.34	24026
836.478	24216
836.615	23988
836.753	24038
836.891	24171
837.029	24133
837.167	24034
837.305	24114
837.443	23939
837.58	23969
837.718	24068
837.856	23870
837.993	23882
838.131	23847
838.269	23847
838.406	23897
838.544	23767
838.681	23710
838.819	23604
838.956	23600
839.094	23455
839.231	23387
839.369	23627
839.506	23863
839.643	23661
839.781	23467
839.918	23383
840.055	23452
840.193	23436
840.33	23372
840.467	23414
840.604	23440
840.742	23684
840.879	23258
841.016	23356
841.153	23315
841.29	23478
841.427	23376
841.564	23277
841.701	23353
841.838	23334
841.975	23124
842.112	23296
842.249	23090
842.385	23086
842.522	23261
842.659	23155
842.796	23060
842.933	23105
843.069	23124
843.206	23006
843.343	23239
843.479	23166
843.616	23109
843.752	22968
843.889	22927
844.025	23025
844.162	22953
844.298	23075
844.435	22972
844.571	22748
844.708	22889
844.844	23060
844.98	23006
845.117	22854
845.253	22786
845.389	22725
845.525	22733
845.661	22679
845.798	22603
845.934	22694
846.07	22664
846.206	22580
846.342	22702
846.478	22725
846.614	22481
846.75	22303
846.886	22382
847.022	22527
847.158	22405
847.294	22363
847.429	22352
847.565	22284
847.701	22531
847.837	22070
847.972	22044
848.108	22192
848.244	22070
848.379	22021
848.515	21956
848.65	21937
848.786	22044
848.921	22029
849.057	21945
849.192	22074
849.328	21892
849.463	21987
849.598	21907
849.734	21861
849.869	21812
850.004	21774
850.14	21682
850.275	21789
850.41	21523
850.545	21652
850.68	21606
850.815	21603
850.95	21778
851.085	21934
851.22	21713
851.355	21587
851.49	21888
851.625	21656
851.76	21720
851.895	21648
852.03	21637
852.165	21701
852.299	21667
852.434	21747
852.569	21694
852.703	21827
852.838	21690
852.973	21876
853.107	21888
853.242	21545
853.376	21534
853.511	21408
853.645	21466
853.78	21610
853.914	21625
854.048	21599
854.183	21488
854.317	21507
854.451	21682
854.585	21542
854.72	21504
854.854	21587
854.988	21420
855.122	21530
855.256	21325
855.39	21408
855.524	21519
855.658	21557
855.792	21488
855.926	21542
856.06	21618
856.194	21629
856.327	21545
856.461	21408
856.595	21435
856.729	21412
856.862	21667
856.996	21599
857.13	21614
857.263	21561
857.397	21591
857.53	21553
857.664	21622
857.797	21420
857.931	21622
858.064	21557
858.197	21553
858.331	21553
858.464	21511
858.597	21367
858.731	21458
858.864	21519
858.997	21458
859.13	21435
859.263	21580
859.396	21526
859.529	21538
859.662	21564
859.795	21504
859.928	21473
860.061	21648
860.194	21705
860.327	21603
860.46	21435
860.592	21549
860.725	21694
860.858	21576
860.99	21439
861.123	21473
861.256	21378
861.388	21435
861.521	22188
861.653	21378
861.786	21268
861.918	21355
862.05	21435
862.183	21401
862.315	21523
862.447	21386
862.58	21473
862.712	21252
862.844	21252
862.976	21264
863.108	21184
863.24	21648
863.372	21264
863.504	21188
863.636	21138
863.768	21260
863.9	21123
864.032	21093
864.164	21222
864.296	21302
864.428	21302
864.559	21340
864.691	21329
864.823	21321
864.954	21142
865.086	21192
865.217	21051
865.349	21100
865.48	21081
865.612	21100
865.743	21226
865.875	21237
866.006	21104
866.137	21165
866.269	21138
866.4	21062
866.531	21005
866.662	21028
866.793	20944
866.924	21039
867.055	21127
867.186	21093
867.317	21085
867.448	20975
867.579	21112
867.71	20944
867.841	20944
867.972	21089
868.103	21043
868.233	20948
868.364	21013
868.495	21211
868.625	21268
868.756	21397
868.886	21161
869.017	21165
869.147	21435
869.278	21412
869.408	21389
869.539	21275
869.669	21412
869.799	21397
869.929	21454
870.06	21424
870.19	21625
870.32	21526
870.45	21542
870.58	21759
870.71	21774
870.84	21751
870.97	21663
871.1	21709
871.23	21759
871.36	21808
871.489	21789
871.619	21873
871.749	21831
871.879	21937
872.008	21930
872.138	21911
872.267	21934
872.397	21808
872.526	21835
872.656	21660
872.785	21652
872.915	21949
873.044	22051
873.173	21941
873.303	21979
873.432	22051
873.561	22082
873.69	21869
873.819	21861
873.948	21987
874.077	21953
874.206	21732
874.335	21972
874.464	21987
874.593	22059
874.722	22032
874.851	22196
874.979	22200
875.108	22116
875.237	22112
875.365	22105
875.494	22101
875.623	22192
875.751	22055
875.88	22166
876.008	22287
876.136	22341
876.265	22474
876.393	22592
876.521	22557
876.65	22691
876.778	22607
876.906	22447
877.034	22565
877.162	22428
877.29	22432
877.418	22626
877.546	22542
877.674	22428
877.802	22379
877.93	22451
878.058	22428
878.185	22363
878.313	22527
878.441	22462
878.568	22325
878.696	22424
878.824	22527
878.951	22565
879.079	22691
879.206	22702
879.333	22508
879.461	22466
879.588	22584
879.715	22622
879.842	22771
879.97	22615
880.097	22230
880.224	22272
880.351	22306
880.478	22318
880.605	22200
880.732	22299
880.859	22432
880.986	22325
881.112	22291
881.239	22128
881.366	22044
881.493	21922
881.619	21945
881.746	21945
881.872	21831
881.999	21827
882.125	21831
882.252	21850
882.378	21854
882.505	21922
882.631	21622
882.757	21477
882.883	21728
883.01	21614
883.136	21583
883.262	21447
883.388	21344
883.514	21481
883.64	21637
883.766	21595
883.892	21367
884.018	21298
884.143	21393
884.269	21572
884.395	21142
884.52	21157
884.646	21226
884.772	21272
884.897	21146
885.023	21226
885.148	21298
885.274	21306
885.399	21241
885.524	21233
885.65	21226
885.775	21306
885.9	21272
886.025	21329
886.15	21192
886.275	21188
886.4	21116
886.525	21039
886.65	21017
886.775	21085
886.9	21256
887.025	21416
887.149	21074
887.274	20880
887.399	21013
887.523	20960
887.648	20868
887.773	20830
887.897	21055
888.021	20925
888.146	20880
888.27	21135
888.395	21024
888.519	21017
888.643	20872
888.767	20986
888.891	20902
889.015	20777
889.139	20807
889.263	20838
889.387	20895
889.511	20864
889.635	20918
889.759	20735
889.883	20682
890.006	20750
890.13	20800
890.254	20651
890.377	20712
890.501	20663
890.624	20484
890.748	20617
890.871	20423
890.995	20294
891.118	20183
891.241	20427
891.364	20278
891.488	20431
891.611	20320
891.734	20305
891.857	20301
891.98	20385
892.103	20423
892.226	20370
892.349	20256
892.471	20191
892.594	20240
892.717	20195
892.839	20229
892.962	20298
893.085	20301
893.207	20298
893.33	20130
893.452	20218
893.575	20237
893.697	20221
893.819	20313
893.941	20362
894.064	20450
894.186	20267
894.308	20096
894.43	20278
894.552	20377
894.674	20282
894.796	20134
894.918	20214
895.04	20225
895.161	20275
895.283	20244
895.405	20062
895.526	20195
895.648	20199
895.769	20172
895.891	20240
896.012	20183
896.134	20275
896.255	20259
896.376	20252
896.498	20199
896.619	20134
896.74	20256
896.861	20237
896.982	20556
897.103	20750
897.224	20518
897.345	20461
897.466	20476
897.587	20427
897.708	20484
897.828	20503
897.949	20454
898.07	20317
898.19	20343
898.311	20541
898.431	20427
898.552	20454
898.672	20514
898.792	20518
898.913	20454
899.033	20267
899.153	20343
899.273	20244
899.393	20138
899.513	20157
899.633	20172
899.753	20183
899.873	20100
899.993	20172
900.113	20142
900.232	20233
900.352	20119
900.472	20119
900.591	19868
900.711	19947
900.83	19803
900.95	19978
901.069	19993
901.189	19860
901.308	19597
901.427	19575
901.546	19506
901.665	19449
901.784	19586
901.904	19407
902.023	19365
902.141	19236
902.26	19076
902.379	19095
902.498	19133
902.617	19042
902.735	19095
902.854	18886
902.973	18935
903.091	18700
903.21	18673
903.328	18829
903.446	18669
903.565	18528
903.683	18525
903.801	18445
903.919	18391
904.038	18513
904.156	18353
904.274	18365
904.392	18342
904.51	18201
904.627	18323
904.745	18300
904.863	18277
904.981	18083
905.098	18049
905.216	17988
905.334	17969
905.451	17969
905.569	17950
905.686	17980
905.803	17973
905.921	17630
906.038	17821
906.155	17767
906.272	17714
906.389	17676
906.506	17512
906.623	17474
906.74	17493
906.857	17406
906.974	17471
907.091	17497
907.208	17611
907.324	17581
907.441	17353
907.557	17277
907.674	17136
907.79	17113
907.907	17136
908.023	17231
908.139	17200
908.256	17185
908.372	17060
908.488	17083
908.604	17022
908.72	16911
908.836	16934
908.952	16934
909.068	17060
909.184	16957
909.3	16881
909.415	17003
909.531	16885
909.647	16706
909.762	16637
909.878	16580
909.993	16649
910.108	16653
910.224	16527
910.339	16607
910.454	16527
910.57	16443
910.685	16417
910.8	16706
910.915	16561
911.03	16451
911.145	16192
911.259	16287
911.374	16310
911.489	16200
911.604	16112
911.718	15987
911.833	15975
911.947	15888
912.062	15846
912.176	15987
912.291	15915
912.405	15880
912.519	16128
912.633	16086
912.748	16017
912.862	15945
912.976	15800
913.09	15717
913.204	15793
913.318	15751
913.431	15865
913.545	15899
913.659	15804
913.772	15648
913.886	15663
914	15584
914.113	15694
914.226	15778
914.34	15717
914.453	15466
914.566	15675
914.68	15481
914.793	15401
914.906	15275
915.019	15146
915.132	15214
915.245	15230
915.358	15203
915.47	15119
915.583	15230
915.696	15146
915.809	15294
915.921	15230
916.034	15165
916.146	15176
916.259	15062
916.371	15116
916.483	15192
916.595	15112
916.708	14998
916.82	15009
916.932	14941
917.044	15032
917.156	14883
917.268	14921
917.38	14834
917.491	14910
917.603	14872
917.715	14880
917.826	14944
917.938	14720
918.049	14636
918.161	14727
918.272	14933
918.384	14880
918.495	14826
918.606	14587
918.717	14537
918.828	14674
918.939	14644
919.05	14495
919.161	14587
919.272	14442
919.383	14434
919.494	14613
919.604	14823
919.715	14598
919.826	14389
919.936	14507
920.047	14606
920.157	14518
920.267	14739
920.378	14556
920.488	14541
920.598	14743
920.708	14910
920.818	14697
920.928	14625
921.038	14864
921.148	14773
921.258	14537
921.368	14431
921.477	14275
921.587	14275
921.697	14157
921.806	14343
921.916	14138
922.025	13989
922.134	13970
922.244	13841
922.353	13940
922.462	13784
922.571	13727
922.68	13658
922.789	13597
922.898	13624
923.007	13491
923.116	13597
923.224	13483
923.333	13514
923.442	13480
923.55	13346
923.659	13438
923.767	13521
923.876	13373
923.984	13480
924.092	13270
924.201	13354
924.309	13381
924.417	13304
924.525	13293
924.633	13247
924.741	14081
924.849	13004
924.956	13122
925.064	13012
925.172	12977
925.279	13004
925.387	13023
925.494	13065
925.602	13114
925.709	13091
925.816	12947
925.924	12958
926.031	13004
926.138	12890
926.245	12913
926.352	12810
926.459	12985
926.566	13019
926.673	12753
926.779	12688
926.886	12749
926.993	12719
927.099	12555
927.206	12517
927.312	12513
927.419	12528
927.525	12540
927.631	12536
927.737	12506
927.843	12467
927.95	12270
928.056	12357
928.162	12407
928.267	12380
928.373	13034
928.479	12380
928.585	12232
928.69	12323
928.796	12327
928.901	12270
929.007	12114
929.112	12197
929.218	12155
929.323	12121
929.428	12114
929.533	12213
929.638	11984
929.743	12064
929.848	12136
929.953	12072
930.058	11889
930.163	11794
930.267	11828
930.372	11878
930.477	11748
930.581	11958
930.685	11878
930.79	11684
930.894	11657
930.998	11638
931.103	11722
931.207	11398
931.311	11330
931.415	11258
931.519	11033
931.623	11128
