Data from test_V78500241_2454.txt Node
Date: Fri Mar 25 15:26:56 CST 2022
User: usil
Spectrometer: V785-0024
Trigger mode: 0
Integration Time (sec): 4.000000E-1
Scans to average: 1
Nonlinearity correction enabled: false
Boxcar width: 0
Storing dark spectrum: false
XAxis mode: Wavelengths
Number of Pixels in Spectrum: 1024
>>>>>Begin Spectral Data<<<<<
801.071	27036
801.214	27070
801.356	26689
801.499	26693
801.641	26438
801.783	26484
801.926	26606
802.068	26484
802.211	26423
802.353	26396
802.496	26298
802.638	26153
802.78	26077
802.923	26096
803.065	26107
803.208	26164
803.35	26100
803.492	26434
803.635	26214
803.777	26237
803.919	26313
804.061	26568
804.204	26298
804.346	26389
804.488	26290
804.63	26377
804.773	26339
804.915	26355
805.057	26377
805.199	26381
805.341	26290
805.483	26457
805.626	26389
805.768	26355
805.91	26381
806.052	26511
806.194	26484
806.336	26511
806.478	26286
806.62	26317
806.762	26385
806.904	26777
807.046	26823
807.188	26857
807.33	26769
807.472	26914
807.614	26765
807.756	26800
807.898	26777
808.04	26579
808.182	26693
808.324	26606
808.465	26727
808.607	26788
808.749	27020
808.891	27135
809.033	27119
809.174	27154
809.316	27089
809.458	26891
809.6	26849
809.741	27055
809.883	27176
810.025	27116
810.166	27310
810.308	27310
810.45	27154
810.591	27043
810.733	26998
810.875	26842
811.016	26804
811.158	26971
811.299	26933
811.441	27100
811.582	27180
811.724	26914
811.865	26899
812.007	26826
812.148	26758
812.29	26960
812.431	27005
812.573	27203
812.714	27184
812.855	27469
812.997	27485
813.138	27633
813.279	27564
813.421	27374
813.562	27355
813.703	27199
813.845	27150
813.986	26868
814.127	26636
814.268	26769
814.41	26705
814.551	26720
814.692	26769
814.833	26530
814.974	26667
815.115	26655
815.256	26461
815.397	26431
815.539	26609
815.68	26434
815.821	26431
815.962	26469
816.103	26408
816.244	26377
816.385	26043
816.526	26377
816.666	26031
816.807	25852
816.948	25963
817.089	25940
817.23	25966
817.371	25883
817.512	25852
817.653	25761
817.793	25909
817.934	25807
818.075	25856
818.216	25871
818.356	25791
818.497	25727
818.638	25723
818.778	25689
818.919	25723
819.06	25715
819.2	25814
819.341	25890
819.481	25727
819.622	25993
819.762	26191
819.903	26176
820.043	26005
820.184	25917
820.324	25970
820.465	26046
820.605	25993
820.746	25986
820.886	25791
821.026	25955
821.167	25830
821.307	26062
821.447	25852
821.588	25799
821.728	25700
821.868	25582
822.008	25335
822.149	25339
822.289	25244
822.429	25152
822.569	25042
822.709	25061
822.849	24947
822.99	24958
823.13	24920
823.27	24787
823.41	24688
823.55	24555
823.69	24574
823.83	24642
823.97	24608
824.11	24460
824.25	24490
824.389	24555
824.529	24467
824.669	24616
824.809	24604
824.949	24563
825.089	24521
825.228	24509
825.368	24388
825.508	24201
825.648	24254
825.787	24304
825.927	24437
826.067	24315
826.206	24251
826.346	24380
826.485	24258
826.625	24418
826.765	24422
826.904	24384
827.044	24205
827.183	24171
827.323	24041
827.462	24140
827.601	24087
827.741	23980
827.88	24110
828.02	23961
828.159	23920
828.298	24049
828.437	24144
828.577	23931
828.716	24190
828.855	23920
828.994	23767
829.134	23779
829.273	23752
829.412	23779
829.551	23771
829.69	23779
829.829	23741
829.968	23802
830.107	23866
830.246	23783
830.385	23623
830.524	23718
830.663	23535
830.802	23535
830.941	23429
831.08	23395
831.219	23604
831.357	23372
831.496	23600
831.635	23364
831.774	23258
831.913	23250
832.051	23280
832.19	23124
832.329	23277
832.467	23113
832.606	23029
832.744	23041
832.883	22942
833.022	23048
833.16	23075
833.299	23140
833.437	23254
833.576	23037
833.714	23124
833.852	23075
833.991	23181
834.129	23204
834.267	23147
834.406	23254
834.544	23280
834.682	23060
834.821	23132
834.959	23356
835.097	23098
835.235	23124
835.373	23056
835.511	23018
835.65	22946
835.788	23006
835.926	22946
836.064	22755
836.202	22782
836.34	23064
836.478	23094
836.615	22938
836.753	22999
836.891	23014
837.029	23056
837.167	22965
837.305	22816
837.443	22858
837.58	22752
837.718	22786
837.856	22839
837.993	22763
838.131	22946
838.269	22767
838.406	22687
838.544	22634
838.681	22523
838.819	22493
838.956	22303
839.094	22371
839.231	22546
839.369	22588
839.506	22831
839.643	22599
839.781	22413
839.918	22090
840.055	22462
840.193	22280
840.33	22177
840.467	22329
840.604	22257
840.742	22443
840.879	22238
841.016	22238
841.153	22090
841.29	22287
841.427	22299
841.564	22352
841.701	22211
841.838	22143
841.975	22158
842.112	22147
842.249	22010
842.385	21918
842.522	22287
842.659	22086
842.796	22128
842.933	21968
843.069	22093
843.206	21972
843.343	22128
843.479	22010
843.616	21937
843.752	21739
843.889	21743
844.025	21827
844.162	21724
844.298	21983
844.435	21743
844.571	21759
844.708	21975
844.844	21964
844.98	21937
845.117	21960
845.253	21679
845.389	21743
845.525	21603
845.661	21583
845.798	21515
845.934	21564
846.07	21473
846.206	21523
846.342	21641
846.478	21511
846.614	21340
846.75	21214
846.886	21222
847.022	21260
847.158	21272
847.294	21355
847.429	21340
847.565	21096
847.701	21507
847.837	20967
847.972	20967
848.108	21169
848.244	21093
848.379	20743
848.515	20739
848.65	20845
848.786	20921
848.921	20716
849.057	20994
849.192	20933
849.328	20914
849.463	20815
849.598	20765
849.734	20864
849.869	20727
850.004	20724
850.14	20575
850.275	20667
850.41	20438
850.545	20678
850.68	20568
850.815	20636
850.95	20655
851.085	20731
851.22	20705
851.355	20587
851.49	20590
851.625	20583
851.76	20644
851.895	20495
852.03	20457
852.165	20640
852.299	20724
852.434	20708
852.569	20701
852.703	20746
852.838	20632
852.973	20640
853.107	20701
853.242	20629
853.376	20408
853.511	20499
853.645	20446
853.78	20530
853.914	20442
854.048	20465
854.183	20431
854.317	20488
854.451	20640
854.585	20351
854.72	20461
854.854	20541
854.988	20454
855.122	20374
855.256	20282
855.39	20438
855.524	20484
855.658	20492
855.792	20465
855.926	20461
856.06	20442
856.194	20503
856.327	20362
856.461	20332
856.595	20385
856.729	20366
856.862	20621
856.996	20583
857.13	20549
857.263	20495
857.397	20602
857.53	20465
857.664	20454
857.797	20556
857.931	20537
858.064	20450
858.197	20670
858.331	20476
858.464	20377
858.597	20400
858.731	20473
858.864	20450
858.997	20438
859.13	20530
859.263	20507
859.396	20533
859.529	20461
859.662	20480
859.795	20408
859.928	20492
860.061	20678
860.194	20750
860.327	20606
860.46	20442
860.592	20442
860.725	20663
860.858	20579
860.99	20564
861.123	20237
861.256	20385
861.388	20419
861.521	21093
861.653	20343
861.786	20244
861.918	20298
862.05	20358
862.183	20526
862.315	20408
862.447	20381
862.58	20374
862.712	20191
862.844	20065
862.976	20313
863.108	20149
863.24	20769
863.372	20039
863.504	20214
863.636	20225
863.768	20202
863.9	20111
864.032	20130
864.164	20081
864.296	20252
864.428	20282
864.559	20267
864.691	20225
864.823	20256
864.954	20122
865.086	20130
865.217	20225
865.349	20142
865.48	20065
865.612	20103
865.743	20176
865.875	20096
866.006	20024
866.137	20062
866.269	20096
866.4	20062
866.531	20058
866.662	19993
866.793	20100
866.924	20103
867.055	20016
867.186	19989
867.317	20054
867.448	19845
867.579	19913
867.71	19955
867.841	19928
867.972	20039
868.103	20012
868.233	20058
868.364	19989
868.495	20024
868.625	20221
868.756	20343
868.886	20183
869.017	20180
869.147	20393
869.278	20343
869.408	20313
869.539	20301
869.669	20320
869.799	20305
869.929	20396
870.06	20336
870.19	20526
870.32	20606
870.45	20564
870.58	20651
870.71	20788
870.84	20746
870.97	20811
871.1	20678
871.23	20883
871.36	20880
871.489	20735
871.619	20883
871.749	20678
871.879	20918
872.008	20956
872.138	20906
872.267	20971
872.397	20834
872.526	20739
872.656	20655
872.785	20606
872.915	20830
873.044	20994
873.173	20899
873.303	20952
873.432	20906
873.561	20982
873.69	20960
873.819	20853
873.948	20925
874.077	20842
874.206	20899
874.335	20804
874.464	20998
874.593	21104
874.722	21081
874.851	21214
874.979	21176
875.108	21325
875.237	21085
875.365	21009
875.494	21093
875.623	21241
875.751	21104
875.88	21157
876.008	21233
876.136	21351
876.265	21530
876.393	21766
876.521	21713
876.65	21572
876.778	21656
876.906	21679
877.034	21568
877.162	21424
877.29	21515
877.418	21485
877.546	21564
877.674	21462
877.802	21534
877.93	21435
878.058	21507
878.185	21450
878.313	21443
878.441	21462
878.568	21268
878.696	21374
878.824	21526
878.951	21549
879.079	21682
879.206	21778
879.333	21576
879.461	21504
879.588	21591
879.715	21656
879.842	21804
879.97	21671
880.097	21340
880.224	21363
880.351	21245
880.478	21386
880.605	21344
880.732	21374
880.859	21610
880.986	21332
881.112	21268
881.239	21100
881.366	21195
881.493	20918
881.619	20979
881.746	20971
881.872	20982
881.999	20830
882.125	20921
882.252	20933
882.378	20796
882.505	20872
882.631	20701
882.757	20708
882.883	20762
883.01	20644
883.136	20476
883.262	20541
883.388	20389
883.514	20522
883.64	20807
883.766	20469
883.892	20461
884.018	20431
884.143	20609
884.269	20667
884.395	20328
884.52	20343
884.646	20187
884.772	20210
884.897	20187
885.023	20195
885.148	20374
885.274	20385
885.399	20396
885.524	20119
885.65	20396
885.775	20415
885.9	20225
886.025	20290
886.15	20358
886.275	20191
886.4	20278
886.525	20237
886.65	20187
886.775	20180
886.9	20381
887.025	20438
887.149	20267
887.274	20031
887.399	19951
887.523	20062
887.648	20016
887.773	19902
887.897	20050
888.021	19955
888.146	20065
888.27	20168
888.395	20218
888.519	20069
888.643	20206
888.767	20008
888.891	19913
889.015	19826
889.139	20008
889.263	19704
889.387	19989
889.511	20008
889.635	19947
889.759	19776
889.883	19788
890.006	19887
890.13	19856
890.254	19803
890.377	19814
890.501	19685
890.624	19540
890.748	19689
890.871	19552
890.995	19476
891.118	19419
891.241	19453
891.364	19449
891.488	19578
891.611	19468
891.734	19434
891.857	19556
891.98	19449
892.103	19445
892.226	19449
892.349	19381
892.471	19293
892.594	19297
892.717	19297
892.839	19358
892.962	19362
893.085	19422
893.207	19217
893.33	19190
893.452	19320
893.575	19335
893.697	19384
893.819	19624
893.941	19525
894.064	19491
894.186	19358
894.308	19358
894.43	19441
894.552	19624
894.674	19445
894.796	19289
894.918	19358
895.04	19312
895.161	19411
895.283	19362
895.405	19403
895.526	19198
895.648	19278
895.769	19377
895.891	19400
896.012	19373
896.134	19316
896.255	19502
896.376	19403
896.498	19419
896.619	19343
896.74	19422
896.861	19487
896.982	19609
897.103	19761
897.224	19616
897.345	19662
897.466	19529
897.587	19597
897.708	19868
897.828	19601
897.949	19616
898.07	19388
898.19	19388
898.311	19628
898.431	19559
898.552	19556
898.672	19651
898.792	19643
898.913	19601
899.033	19506
899.153	19411
899.273	19346
899.393	19350
899.513	19384
899.633	19491
899.753	19422
899.873	19350
899.993	19426
900.113	19255
900.232	19358
900.352	19324
900.472	19080
900.591	19072
900.711	19289
900.83	19122
900.95	19251
901.069	19187
901.189	18973
901.308	18867
901.427	18654
901.546	18711
901.665	18791
901.784	18852
901.904	18597
902.023	18471
902.141	18319
902.26	18270
902.379	18445
902.498	18323
902.617	18144
902.735	18235
902.854	18247
902.973	18201
903.091	17847
903.21	17908
903.328	17847
903.446	17771
903.565	17779
903.683	17752
903.801	17623
903.919	17737
904.038	17714
904.156	17581
904.274	17592
904.392	17528
904.51	17497
904.627	17520
904.745	17505
904.863	17429
904.981	17280
905.098	17231
905.216	17105
905.334	17250
905.451	17189
905.569	17170
905.686	17121
905.803	17212
905.921	16987
906.038	17048
906.155	17071
906.272	16892
906.389	16919
906.506	16717
906.623	16759
906.74	16717
906.857	16580
906.974	16672
907.091	16755
907.208	16900
907.324	16706
907.441	16713
907.557	16519
907.674	16554
907.79	16474
907.907	16554
908.023	16417
908.139	16398
908.256	16337
908.372	16375
908.488	16375
908.604	16253
908.72	16143
908.836	16116
908.952	16223
909.068	16120
909.184	16310
909.3	16188
909.415	16200
909.531	16192
909.647	15972
909.762	15869
909.878	15945
909.993	15956
910.108	15899
910.224	15846
910.339	15873
910.454	15770
910.57	15637
910.685	15591
910.8	16067
910.915	15956
911.03	15709
911.145	15561
911.259	15397
911.374	15469
911.489	15412
911.604	15283
911.718	15252
911.833	15325
911.947	15291
912.062	15055
912.176	15306
912.291	15275
912.405	15180
912.519	15386
912.633	15454
912.748	15367
912.862	15222
912.976	15100
913.09	15020
913.204	15146
913.318	15108
913.431	15165
913.545	15207
913.659	15176
913.772	15154
913.886	14887
914	14933
914.113	14971
914.226	15085
914.34	14948
914.453	14716
914.566	14956
914.68	14807
914.793	14746
914.906	14556
915.019	14495
915.132	14419
915.245	14465
915.358	14465
915.47	14526
915.583	14431
915.696	14663
915.809	14655
915.921	14530
916.034	14412
916.146	14415
916.259	14358
916.371	14412
916.483	14454
916.595	14370
916.708	14286
916.82	14324
916.932	14256
917.044	14267
917.156	14275
917.268	14237
917.38	14275
917.491	14130
917.603	14145
917.715	14214
917.826	14256
917.938	14115
918.049	14031
918.161	14115
918.272	14237
918.384	14199
918.495	14138
918.606	13906
918.717	13940
918.828	14012
918.939	14054
919.05	13959
919.161	13852
919.272	13753
919.383	13822
919.494	13974
919.604	14149
919.715	13947
919.826	13769
919.936	13902
920.047	13993
920.157	13989
920.267	14145
920.378	13925
920.488	13925
920.598	14130
920.708	14309
920.818	14073
920.928	14062
921.038	14202
921.148	14199
921.258	13925
921.368	13772
921.477	13742
921.587	13693
921.697	13491
921.806	13738
921.916	13651
922.025	13480
922.134	13373
922.244	13221
922.353	13365
922.462	13190
922.571	13107
922.68	13107
922.789	13088
922.898	13012
923.007	12939
923.116	12981
923.224	12947
923.333	12840
923.442	12844
923.55	12711
923.659	12856
923.767	12905
923.876	12817
923.984	12985
924.092	12730
924.201	12802
924.309	12745
924.417	12719
924.525	12662
924.633	12665
924.741	13548
924.849	12498
924.956	12547
925.064	12464
925.172	12460
925.279	12544
925.387	12445
925.494	12391
925.602	12502
925.709	12544
925.816	12323
925.924	12475
926.031	12441
926.138	12426
926.245	12525
926.352	12350
926.459	12471
926.566	12471
926.673	12330
926.779	12197
926.886	12209
926.993	12144
927.099	12022
927.206	12125
927.312	12007
927.419	12053
927.525	12030
927.631	12098
927.737	11931
927.843	11946
927.95	11745
928.056	11870
928.162	11920
928.267	11958
928.373	12490
928.479	11977
928.585	11779
928.69	11859
928.796	11828
928.901	11748
929.007	11638
929.112	11767
929.218	11752
929.323	11566
929.428	11703
929.533	11699
929.638	11551
929.743	11668
929.848	11649
929.953	11653
930.058	11482
930.163	11372
930.267	11322
930.372	11490
930.477	11261
930.581	11497
930.685	11379
930.79	11162
930.894	11269
930.998	11231
931.103	11239
931.207	11029
931.311	10957
931.415	10809
931.519	10675
931.623	10550
