Data from test_V78500241_3520.txt Node
Date: Fri Mar 25 15:34:22 CST 2022
User: usil
Spectrometer: V785-0024
Trigger mode: 0
Integration Time (sec): 4.000000E-1
Scans to average: 1
Nonlinearity correction enabled: false
Boxcar width: 0
Storing dark spectrum: false
XAxis mode: Wavelengths
Number of Pixels in Spectrum: 1024
>>>>>Begin Spectral Data<<<<<
801.071	27462
801.214	27291
801.356	27081
801.499	27096
801.641	27032
801.783	26899
801.926	27017
802.068	26929
802.211	26899
802.353	26705
802.496	26682
802.638	26659
802.78	26579
802.923	26583
803.065	26465
803.208	26457
803.35	26571
803.492	26773
803.635	26781
803.777	26606
803.919	26773
804.061	27039
804.204	26826
804.346	26625
804.488	26587
804.63	26545
804.773	26571
804.915	26674
805.057	26834
805.199	26674
805.341	26724
805.483	26906
805.626	26906
805.768	26777
805.91	26750
806.052	26910
806.194	26830
806.336	26899
806.478	26762
806.62	26807
806.762	26925
806.904	27036
807.046	27332
807.188	27249
807.33	27180
807.472	27245
807.614	27058
807.756	27218
807.898	27074
808.04	27058
808.182	27135
808.324	27039
808.465	27070
808.607	27218
808.749	27416
808.891	27416
809.033	27694
809.174	27351
809.316	27610
809.458	27325
809.6	27348
809.741	27424
809.883	27401
810.025	27724
810.166	27720
810.308	27831
810.45	27739
810.591	27614
810.733	27393
810.875	27542
811.016	27450
811.158	27329
811.299	27656
811.441	27663
811.582	27572
811.724	27462
811.865	27298
812.007	27401
812.148	27420
812.29	27416
812.431	27660
812.573	27610
812.714	27755
812.855	27934
812.997	28021
813.138	28044
813.279	28040
813.421	27953
813.562	27876
813.703	27583
813.845	27557
813.986	27397
814.127	27218
814.268	27142
814.41	27123
814.551	27146
814.692	27081
814.833	27001
814.974	27066
815.115	27127
815.256	26876
815.397	27051
815.539	26857
815.68	26910
815.821	26727
815.962	26963
816.103	26823
816.244	26716
816.385	26556
816.526	26560
816.666	26492
816.807	26343
816.948	26366
817.089	26377
817.23	26381
817.371	26423
817.512	26294
817.653	26393
817.793	26290
817.934	26374
818.075	26412
818.216	26271
818.356	26317
818.497	26142
818.638	26168
818.778	26088
818.919	26008
819.06	26355
819.2	26298
819.341	26339
819.481	26431
819.622	26438
819.762	26659
819.903	26670
820.043	26549
820.184	26484
820.324	26438
820.465	26480
820.605	26526
820.746	26446
820.886	26328
821.026	26568
821.167	26453
821.307	26396
821.447	26419
821.588	26206
821.728	26122
821.868	25978
822.008	25803
822.149	25746
822.289	25776
822.429	25613
822.569	25639
822.709	25518
822.849	25217
822.99	25282
823.13	25422
823.27	25331
823.41	25202
823.55	25050
823.69	25263
823.83	25175
823.97	25095
824.11	25114
824.25	24958
824.389	25031
824.529	24962
824.669	25012
824.809	25175
824.949	24973
825.089	24985
825.228	25065
825.368	24814
825.508	25000
825.648	24966
825.787	24905
825.927	24878
826.067	24757
826.206	24833
826.346	24821
826.485	24947
826.625	24920
826.765	25038
826.904	24989
827.044	24688
827.183	24681
827.323	24490
827.462	24707
827.601	24604
827.741	24547
827.88	24505
828.02	24429
828.159	24555
828.298	24566
828.437	24661
828.577	24494
828.716	24608
828.855	24597
828.994	24308
829.134	24292
829.273	24486
829.412	24133
829.551	24266
829.69	24277
829.829	24300
829.968	24429
830.107	24365
830.246	24319
830.385	24296
830.524	24121
830.663	24102
830.802	24018
830.941	23939
831.08	23885
831.219	23992
831.357	23996
831.496	24174
831.635	23958
831.774	23882
831.913	23908
832.051	23798
832.19	23680
832.329	23733
832.467	23627
832.606	23634
832.744	23551
832.883	23551
833.022	23535
833.16	23577
833.299	23676
833.437	23642
833.576	23676
833.714	23611
833.852	23741
833.991	23786
834.129	23703
834.267	23798
834.406	23737
834.544	23623
834.682	23767
834.821	23577
834.959	23687
835.097	23623
835.235	23707
835.373	23710
835.511	23623
835.65	23410
835.788	23520
835.926	23425
836.064	23311
836.202	23299
836.34	23516
836.478	23467
836.615	23436
836.753	23539
836.891	23570
837.029	23524
837.167	23368
837.305	23406
837.443	23425
837.58	23353
837.718	23417
837.856	23372
837.993	23284
838.131	23330
838.269	23330
838.406	23334
838.544	23197
838.681	22923
838.819	23022
838.956	22793
839.094	22854
839.231	22881
839.369	22900
839.506	23216
839.643	23162
839.781	22930
839.918	22786
840.055	22889
840.193	22721
840.33	22710
840.467	22828
840.604	22721
840.742	23003
840.879	22713
841.016	22782
841.153	22763
841.29	22793
841.427	22828
841.564	22793
841.701	22892
841.838	22778
841.975	22546
842.112	22725
842.249	22626
842.385	22584
842.522	22778
842.659	22611
842.796	22535
842.933	22550
843.069	22440
843.206	22516
843.343	22630
843.479	22573
843.616	22538
843.752	22303
843.889	22360
844.025	22341
844.162	22276
844.298	22341
844.435	22211
844.571	22166
844.708	22310
844.844	22500
844.98	22421
845.117	22413
845.253	22257
845.389	22219
845.525	22284
845.661	22192
845.798	21975
845.934	22059
846.07	21983
846.206	22093
846.342	22128
846.478	22074
846.614	21922
846.75	21797
846.886	21831
847.022	21937
847.158	21759
847.294	21713
847.429	21854
847.565	21637
847.701	21949
847.837	21492
847.972	21530
848.108	21701
848.244	21542
848.379	21545
848.515	21428
848.65	21416
848.786	21443
848.921	21310
849.057	21507
849.192	21435
849.328	21420
849.463	21382
849.598	21272
849.734	21272
849.869	21199
850.004	21112
850.14	21211
850.275	21020
850.41	21131
850.545	21093
850.68	21199
850.815	21081
850.95	21123
851.085	21336
851.22	21233
851.355	21070
851.49	21001
851.625	21119
851.76	21036
851.895	20979
852.03	20948
852.165	21074
852.299	21131
852.434	21184
852.569	21096
852.703	21157
852.838	21256
852.973	21275
853.107	21233
853.242	21112
853.376	21013
853.511	20876
853.645	20941
853.78	20979
853.914	20979
854.048	20876
854.183	20902
854.317	20944
854.451	21161
854.585	21085
854.72	20891
854.854	20994
854.988	20975
855.122	20956
855.256	20864
855.39	20868
855.524	21089
855.658	21081
855.792	20952
855.926	20914
856.06	21001
856.194	20998
856.327	20982
856.461	20887
856.595	20914
856.729	20975
856.862	21017
856.996	20971
857.13	21051
857.263	20967
857.397	21096
857.53	20963
857.664	21058
857.797	20948
857.931	21032
858.064	21013
858.197	21108
858.331	20800
858.464	20960
858.597	20918
858.731	20967
858.864	21100
858.997	20891
859.13	21017
859.263	20952
859.396	21070
859.529	20933
859.662	20880
859.795	20845
859.928	21009
860.061	21043
860.194	21256
860.327	21165
860.46	20861
860.592	21138
860.725	21051
860.858	21081
860.99	20929
861.123	20823
861.256	20849
861.388	21062
861.521	21755
861.653	20849
861.786	20705
861.918	20769
862.05	20891
862.183	20781
862.315	20906
862.447	20899
862.58	20838
862.712	20754
862.844	20583
862.976	20864
863.108	20705
863.24	21001
863.372	20598
863.504	20731
863.636	20625
863.768	20693
863.9	20602
864.032	20648
864.164	20636
864.296	20670
864.428	20689
864.559	20701
864.691	20777
864.823	20602
864.954	20606
865.086	20636
865.217	20552
865.349	20549
865.48	20625
865.612	20594
865.743	20773
865.875	20583
866.006	20613
866.137	20552
866.269	20674
866.4	20514
866.531	20560
866.662	20545
866.793	20514
866.924	20670
867.055	20556
867.186	20499
867.317	20396
867.448	20480
867.579	20541
867.71	20469
867.841	20328
867.972	20511
868.103	20568
868.233	20537
868.364	20621
868.495	20716
868.625	20705
868.756	20842
868.886	20712
869.017	20754
869.147	20891
869.278	20944
869.408	20876
869.539	20708
869.669	20739
869.799	20800
869.929	20967
870.06	20849
870.19	21039
870.32	21024
870.45	21108
870.58	21176
870.71	21264
870.84	21340
870.97	21127
871.1	21089
871.23	21344
871.36	21447
871.489	21249
871.619	21283
871.749	21359
871.879	21450
872.008	21469
872.138	21401
872.267	21401
872.397	21348
872.526	21127
872.656	21199
872.785	21207
872.915	21382
873.044	21458
873.173	21355
873.303	21511
873.432	21466
873.561	21469
873.69	21344
873.819	21389
873.948	21507
874.077	21367
874.206	21329
874.335	21355
874.464	21545
874.593	21542
874.722	21416
874.851	21671
874.979	21709
875.108	21591
875.237	21511
875.365	21519
875.494	21599
875.623	21682
875.751	21564
875.88	21595
876.008	21831
876.136	21880
876.265	22032
876.393	22291
876.521	22055
876.65	22055
876.778	21850
876.906	21899
877.034	22040
877.162	22150
877.29	21949
877.418	22109
877.546	22025
877.674	22010
877.802	21979
877.93	21941
878.058	21975
878.185	21941
878.313	22010
878.441	21968
878.568	21774
878.696	21953
878.824	21915
878.951	22112
879.079	22177
879.206	22352
879.333	22059
879.461	22082
879.588	22207
879.715	22158
879.842	22238
879.97	22090
880.097	21816
880.224	21838
880.351	21884
880.478	21827
880.605	21679
880.732	21831
880.859	22055
880.986	21747
881.112	21778
881.239	21705
881.366	21583
881.493	21534
881.619	21420
881.746	21431
881.872	21431
881.999	21329
882.125	21310
882.252	21348
882.378	21222
882.505	21466
882.631	21214
882.757	21188
882.883	21203
883.01	20960
883.136	20975
883.262	20956
883.388	20929
883.514	21070
883.64	21138
883.766	21058
883.892	20944
884.018	20986
884.143	21089
884.269	21131
884.395	20819
884.52	20720
884.646	20746
884.772	20648
884.897	20727
885.023	20883
885.148	20838
885.274	20788
885.399	20842
885.524	20629
885.65	20773
885.775	20667
885.9	20693
886.025	20819
886.15	20815
886.275	20670
886.4	20667
886.525	20629
886.65	20644
886.775	20564
886.9	20796
887.025	20956
887.149	20720
887.274	20552
887.399	20454
887.523	20457
887.648	20469
887.773	20457
887.897	20644
888.021	20552
888.146	20419
888.27	20701
888.395	20670
888.519	20648
888.643	20533
888.767	20644
888.891	20461
889.015	20347
889.139	20336
889.263	20199
889.387	20317
889.511	20564
889.635	20400
889.759	20301
889.883	20309
890.006	20233
890.13	20438
890.254	20263
890.377	20206
890.501	20145
890.624	19963
890.748	20107
890.871	19959
890.995	19811
891.118	19860
891.241	19963
891.364	19928
891.488	19993
891.611	19852
891.734	19909
891.857	19871
891.98	19917
892.103	19811
892.226	19868
892.349	19742
892.471	19708
892.594	19772
892.717	19841
892.839	19681
892.962	19856
893.085	19852
893.207	19765
893.33	19616
893.452	19689
893.575	19837
893.697	19666
893.819	20031
893.941	19928
894.064	19940
894.186	19723
894.308	19677
894.43	19845
894.552	19890
894.674	19803
894.796	19715
894.918	19803
895.04	19708
895.161	19795
895.283	19826
895.405	19837
895.526	19746
895.648	19704
895.769	19757
895.891	19822
896.012	19845
896.134	19799
896.255	19902
896.376	19772
896.498	19776
896.619	19826
896.74	19750
896.861	19845
896.982	20073
897.103	20309
897.224	20111
897.345	20096
897.466	19902
897.587	20012
897.708	20294
897.828	20092
897.949	19986
898.07	19864
898.19	19921
898.311	20100
898.431	20027
898.552	20016
898.672	20126
898.792	20073
898.913	19909
899.033	19936
899.153	19906
899.273	19643
899.393	19795
899.513	19833
899.633	19765
899.753	19780
899.873	19613
899.993	19757
900.113	19628
900.232	19556
900.352	19647
900.472	19609
900.591	19453
900.711	19594
900.83	19388
900.95	19635
901.069	19613
901.189	19335
901.308	19164
901.427	19046
901.546	19194
901.665	19095
901.784	19232
901.904	19015
902.023	18909
902.141	18661
902.26	18673
902.379	18688
902.498	18665
902.617	18646
902.735	18604
902.854	18665
902.973	18544
903.091	18357
903.21	18296
903.328	18334
903.446	18239
903.565	18155
903.683	18182
903.801	18022
903.919	18091
904.038	18022
904.156	17882
904.274	17920
904.392	17901
904.51	17779
904.627	17786
904.745	17965
904.863	17950
904.981	17726
905.098	17611
905.216	17661
905.334	17672
905.451	17642
905.569	17512
905.686	17619
905.803	17543
905.921	17417
906.038	17417
906.155	17429
906.272	17425
906.389	17406
906.506	17048
906.623	17155
906.74	17151
906.857	16991
906.974	17094
907.091	17181
907.208	17178
907.324	17227
907.441	16968
907.557	16847
907.674	16862
907.79	16725
907.907	16710
908.023	16858
908.139	16725
908.256	16820
908.372	16824
908.488	16763
908.604	16527
908.72	16596
908.836	16497
908.952	16538
909.068	16603
909.184	16565
909.3	16561
909.415	16554
909.531	16588
909.647	16318
909.762	16211
909.878	16291
909.993	16253
910.108	16173
910.224	16230
910.339	16181
910.454	16139
910.57	16048
910.685	16032
910.8	16200
910.915	16181
911.03	16105
911.145	15945
911.259	15857
911.374	15827
911.489	15846
911.604	15743
911.718	15599
911.833	15679
911.947	15500
912.062	15545
912.176	15595
912.291	15614
912.405	15458
912.519	15774
912.633	15800
912.748	15633
912.862	15526
912.976	15542
913.09	15378
913.204	15348
913.318	15416
913.431	15606
913.545	15580
913.659	15576
913.772	15416
913.886	15230
914	15199
914.113	15321
914.226	15344
914.34	15222
914.453	15154
914.566	15325
914.68	15100
914.793	15028
914.906	14982
915.019	14906
915.132	14781
915.245	14864
915.358	14826
915.47	14921
915.583	14842
915.696	14864
915.809	14986
915.921	14910
916.034	14857
916.146	14762
916.259	14758
916.371	14830
916.483	14826
916.595	14663
916.708	14686
916.82	14606
916.932	14636
917.044	14686
917.156	14556
917.268	14537
917.38	14450
917.491	14537
917.603	14492
917.715	14583
917.826	14644
917.938	14469
918.049	14355
918.161	14480
918.272	14575
918.384	14571
918.495	14370
918.606	14328
918.717	14275
918.828	14362
918.939	14377
919.05	14187
919.161	14263
919.272	14043
919.383	14130
919.494	14336
919.604	14457
919.715	14237
919.826	14195
919.936	14237
920.047	14381
920.157	14259
920.267	14358
920.378	14237
920.488	14202
920.598	14404
920.708	14495
920.818	14347
920.928	14412
921.038	14594
921.148	14473
921.258	14164
921.368	14073
921.477	13989
921.587	13944
921.697	13917
921.806	13963
921.916	13841
922.025	13742
922.134	13651
922.244	13605
922.353	13620
922.462	13468
922.571	13487
922.68	13278
922.789	13289
922.898	13278
923.007	13168
923.116	13381
923.224	13217
923.333	13206
923.442	13129
923.55	13065
923.659	13175
923.767	13129
923.876	13118
923.984	13095
924.092	12935
924.201	13099
924.309	13076
924.417	13046
924.525	13008
924.633	12897
924.741	13696
924.849	12814
924.956	12897
925.064	12681
925.172	12642
925.279	12658
925.387	12776
925.494	12700
925.602	12829
925.709	12764
925.816	12658
925.924	12631
926.031	12741
926.138	12658
926.245	12673
926.352	12582
926.459	12749
926.566	12738
926.673	12532
926.779	12555
926.886	12429
926.993	12273
927.099	12289
927.206	12133
927.312	12251
927.419	12304
927.525	12319
927.631	12239
927.737	12220
927.843	12194
927.95	12041
928.056	12106
928.162	12098
928.267	12133
928.373	12654
928.479	12110
928.585	11954
928.69	12087
928.796	12083
928.901	12034
929.007	11824
929.112	11904
929.218	11893
929.323	11889
929.428	11775
929.533	12007
929.638	11752
929.743	11771
929.848	11866
929.953	11737
930.058	11737
930.163	11532
930.267	11474
930.372	11611
930.477	11520
930.581	11710
930.685	11505
930.79	11395
930.894	11444
930.998	11478
931.103	11554
931.207	11151
931.311	11159
931.415	11037
931.519	10847
931.623	10778
