Data from test_V78500241_1009.txt Node
Date: Fri Mar 25 15:16:53 CST 2022
User: usil
Spectrometer: V785-0024
Trigger mode: 0
Integration Time (sec): 4.000000E-1
Scans to average: 1
Nonlinearity correction enabled: false
Boxcar width: 0
Storing dark spectrum: false
XAxis mode: Wavelengths
Number of Pixels in Spectrum: 1024
>>>>>Begin Spectral Data<<<<<
801.071	28280
801.214	28154
801.356	27793
801.499	27941
801.641	27850
801.783	27583
801.926	27835
802.068	27797
802.211	27606
802.353	27644
802.496	27427
802.638	27382
802.78	27515
802.923	27557
803.065	27180
803.208	27401
803.35	27530
803.492	27545
803.635	27606
803.777	27553
803.919	27739
804.061	27972
804.204	27713
804.346	27583
804.488	27526
804.63	27587
804.773	27519
804.915	27564
805.057	27720
805.199	27717
805.341	27762
805.483	27861
805.626	27838
805.768	27660
805.91	27778
806.052	27720
806.194	27762
806.336	27930
806.478	27732
806.62	27793
806.762	28029
806.904	28074
807.046	28322
807.188	28196
807.33	28169
807.472	28200
807.614	28051
807.756	28276
807.898	28166
808.04	28006
808.182	28112
808.324	28112
808.465	28150
808.607	28325
808.749	28447
808.891	28508
809.033	28626
809.174	28508
809.316	28360
809.458	28523
809.6	28417
809.741	28607
809.883	28577
810.025	28927
810.166	28721
810.308	28812
810.45	28710
810.591	28660
810.733	28519
810.875	28489
811.016	28500
811.158	28428
811.299	28508
811.441	28698
811.582	28580
811.724	28519
811.865	28455
812.007	28462
812.148	28470
812.29	28405
812.431	28580
812.573	28866
812.714	28831
812.855	29037
812.997	29018
813.138	29261
813.279	29029
813.421	29014
813.562	28862
813.703	28900
813.845	28660
813.986	28519
814.127	28356
814.268	28185
814.41	28154
814.551	28128
814.692	28287
814.833	28173
814.974	28124
815.115	28162
815.256	28109
815.397	28093
815.539	28002
815.68	27991
815.821	27888
815.962	28051
816.103	27998
816.244	27968
816.385	27660
816.526	27660
816.666	27629
816.807	27454
816.948	27610
817.089	27488
817.23	27500
817.371	27534
817.512	27530
817.653	27549
817.793	27568
817.934	27614
818.075	27519
818.216	27336
818.356	27485
818.497	27469
818.638	27249
818.778	27157
818.919	27203
819.06	27329
819.2	27386
819.341	27485
819.481	27534
819.622	27633
819.762	27854
819.903	27713
820.043	27671
820.184	27618
820.324	27629
820.465	27694
820.605	27568
820.746	27481
820.886	27431
821.026	27557
821.167	27542
821.307	27686
821.447	27511
821.588	27412
821.728	27249
821.868	27058
822.008	27074
822.149	26979
822.289	26914
822.429	26701
822.569	26663
822.709	26545
822.849	26682
822.99	26457
823.13	26412
823.27	26446
823.41	26195
823.55	26046
823.69	26278
823.83	26248
823.97	26267
824.11	26065
824.25	26092
824.389	25997
824.529	26275
824.669	26043
824.809	26229
824.949	26153
825.089	26267
825.228	26153
825.368	25947
825.508	25974
825.648	26134
825.787	25978
825.927	25974
826.067	25913
826.206	26081
826.346	26081
826.485	26233
826.625	26027
826.765	26046
826.904	26096
827.044	25704
827.183	25864
827.323	25761
827.462	25769
827.601	25799
827.741	25655
827.88	25940
828.02	25670
828.159	25704
828.298	25822
828.437	25780
828.577	25624
828.716	25921
828.855	25723
828.994	25468
829.134	25499
829.273	25552
829.412	25453
829.551	25422
829.69	25487
829.829	25582
829.968	25464
830.107	25582
830.246	25529
830.385	25350
830.524	25320
830.663	25301
830.802	25175
830.941	24985
831.08	25076
831.219	25213
831.357	25152
831.496	25384
831.635	25061
831.774	25023
831.913	24909
832.051	24840
832.19	24916
832.329	24882
832.467	24741
832.606	24730
832.744	24608
832.883	24848
833.022	24837
833.16	24848
833.299	24791
833.437	24897
833.576	24935
833.714	24848
833.852	24886
833.991	24928
834.129	24894
834.267	24981
834.406	24810
834.544	24848
834.682	24817
834.821	24802
834.959	25019
835.097	24738
835.235	24856
835.373	24734
835.511	24753
835.65	24757
835.788	24570
835.926	24654
836.064	24376
836.202	24532
836.34	24639
836.478	24734
836.615	24631
836.753	24585
836.891	24745
837.029	24589
837.167	24574
837.305	24608
837.443	24384
837.58	24521
837.718	24509
837.856	24547
837.993	24376
838.131	24460
838.269	24426
838.406	24388
838.544	24258
838.681	24083
838.819	24186
838.956	23901
839.094	23946
839.231	23916
839.369	24133
839.506	24327
839.643	24205
839.781	23980
839.918	23889
840.055	23950
840.193	23885
840.33	23821
840.467	23840
840.604	23920
840.742	24186
840.879	23805
841.016	23707
841.153	23695
841.29	23878
841.427	23733
841.564	23843
841.701	23840
841.838	23817
841.975	23790
842.112	23661
842.249	23592
842.385	23505
842.522	23824
842.659	23684
842.796	23535
842.933	23642
843.069	23551
843.206	23573
843.343	23589
843.479	23699
843.616	23630
843.752	23387
843.889	23490
844.025	23566
844.162	23391
844.298	23505
844.435	23360
844.571	23478
844.708	23478
844.844	23360
844.98	23497
845.117	23482
845.253	23303
845.389	23155
845.525	23296
845.661	23216
845.798	23121
845.934	23170
846.07	23052
846.206	23109
846.342	23083
846.478	23083
846.614	22927
846.75	22831
846.886	22816
847.022	22968
847.158	22927
847.294	22793
847.429	22896
847.565	22698
847.701	23094
847.837	22694
847.972	22466
848.108	22767
848.244	22717
848.379	22478
848.515	22531
848.65	22645
848.786	22493
848.921	22421
849.057	22497
849.192	22512
849.328	22607
849.463	22413
849.598	22489
849.734	22348
849.869	22379
850.004	22207
850.14	22360
850.275	22257
850.41	22055
850.545	22226
850.68	22276
850.815	22196
850.95	22166
851.085	22310
851.22	22360
851.355	22166
851.49	22204
851.625	22181
851.76	22185
851.895	22070
852.03	22162
852.165	22181
852.299	22188
852.434	22291
852.569	22272
852.703	22276
852.838	22325
852.973	22421
853.107	22299
853.242	22200
853.376	22090
853.511	21972
853.645	21998
853.78	22036
853.914	22093
854.048	22010
854.183	22078
854.317	21979
854.451	22284
854.585	21930
854.72	22044
854.854	22063
854.988	21987
855.122	22040
855.256	21903
855.39	22006
855.524	22154
855.658	21968
855.792	22044
855.926	22097
856.06	22059
856.194	22166
856.327	21998
856.461	22010
856.595	21956
856.729	21956
856.862	22131
856.996	22086
857.13	22097
857.263	22166
857.397	22112
857.53	22013
857.664	22116
857.797	22082
857.931	22219
858.064	22044
858.197	22169
858.331	21911
858.464	21880
858.597	21918
858.731	21991
858.864	22036
858.997	21895
859.13	21987
859.263	21968
859.396	22013
859.529	21869
859.662	21975
859.795	21861
859.928	21983
860.061	22192
860.194	22238
860.327	22112
860.46	22032
860.592	22147
860.725	22173
860.858	22162
860.99	22120
861.123	21975
861.256	22002
861.388	22093
861.521	22660
861.653	21831
861.786	21785
861.918	21751
862.05	21968
862.183	21922
862.315	21915
862.447	22082
862.58	21838
862.712	21838
862.844	21660
862.976	21857
863.108	21819
863.24	22070
863.372	21774
863.504	21785
863.636	21804
863.768	21739
863.9	21759
864.032	21663
864.164	21698
864.296	21770
864.428	21941
864.559	21762
864.691	21728
864.823	21762
864.954	21686
865.086	21686
865.217	21606
865.349	21549
865.48	21648
865.612	21690
865.743	21861
865.875	21576
866.006	21564
866.137	21523
866.269	21637
866.4	21477
866.531	21568
866.662	21599
866.793	21549
866.924	21595
867.055	21656
867.186	21564
867.317	21591
867.448	21351
867.579	21500
867.71	21469
867.841	21458
867.972	21462
868.103	21545
868.233	21458
868.364	21485
868.495	21614
868.625	21766
868.756	21888
868.886	21694
869.017	21812
869.147	21793
869.278	21816
869.408	21819
869.539	21652
869.669	21804
869.799	21842
869.929	21869
870.06	21922
870.19	22120
870.32	22162
870.45	22051
870.58	22257
870.71	22268
870.84	22196
870.97	22207
871.1	22272
871.23	22394
871.36	22322
871.489	22158
871.619	22246
871.749	22447
871.879	22363
872.008	22356
872.138	22428
872.267	22280
872.397	22242
872.526	22131
872.656	22253
872.785	22230
872.915	22341
873.044	22428
873.173	22295
873.303	22432
873.432	22360
873.561	22371
873.69	22443
873.819	22531
873.948	22455
874.077	22265
874.206	22333
874.335	22390
874.464	22485
874.593	22436
874.722	22424
874.851	22679
874.979	22580
875.108	22717
875.237	22573
875.365	22500
875.494	22637
875.623	22656
875.751	22577
875.88	22428
876.008	22771
876.136	22889
876.265	22911
876.393	23121
876.521	23022
876.65	22991
876.778	22961
876.906	22866
877.034	22873
877.162	22987
877.29	22908
877.418	22995
877.546	22896
877.674	22961
877.802	22961
877.93	22889
878.058	22961
878.185	22801
878.313	22816
878.441	22919
878.568	22748
878.696	22843
878.824	23006
878.951	23174
879.079	23052
879.206	23151
879.333	23044
879.461	23014
879.588	23102
879.715	23056
879.842	23212
879.97	22946
880.097	22767
880.224	22698
880.351	22911
880.478	22866
880.605	22782
880.732	22774
880.859	22957
880.986	22759
881.112	22797
881.239	22615
881.366	22447
881.493	22440
881.619	22405
881.746	22295
881.872	22299
881.999	22306
882.125	22265
882.252	22242
882.378	22177
882.505	22386
882.631	22131
882.757	22154
882.883	22143
883.01	22021
883.136	22006
883.262	21827
883.388	21827
883.514	21956
883.64	21972
883.766	22093
883.892	21739
884.018	21819
884.143	21956
884.269	22082
884.395	21690
884.52	21663
884.646	21736
884.772	21599
884.897	21606
885.023	21599
885.148	21759
885.274	21751
885.399	21774
885.524	21694
885.65	21675
885.775	21629
885.9	21637
886.025	21785
886.15	21671
886.275	21557
886.4	21591
886.525	21530
886.65	21603
886.775	21618
886.9	21743
887.025	21907
887.149	21622
887.274	21424
887.399	21447
887.523	21469
887.648	21363
887.773	21355
887.897	21469
888.021	21439
888.146	21252
888.27	21443
888.395	21439
888.519	21447
888.643	21526
888.767	21507
888.891	21336
889.015	21283
889.139	21279
889.263	21085
889.387	21237
889.511	21386
889.635	21275
889.759	21195
889.883	21180
890.006	21150
890.13	21313
890.254	21180
890.377	21157
890.501	20887
890.624	20998
890.748	21005
890.871	20830
890.995	20727
891.118	20670
891.241	20952
891.364	20872
891.488	20857
891.611	20769
891.734	20807
891.857	20819
891.98	20830
892.103	20743
892.226	20746
892.349	20746
892.471	20415
892.594	20670
892.717	20648
892.839	20689
892.962	20609
893.085	20769
893.207	20750
893.33	20556
893.452	20682
893.575	20746
893.697	20632
893.819	20746
893.941	20880
894.064	20800
894.186	20587
894.308	20606
894.43	20682
894.552	20659
894.674	20689
894.796	20526
894.918	20716
895.04	20503
895.161	20765
895.283	20762
895.405	20632
895.526	20765
895.648	20556
895.769	20697
895.891	20625
896.012	20762
896.134	20746
896.255	20701
896.376	20606
896.498	20705
896.619	20667
896.74	20644
896.861	20674
896.982	20994
897.103	21112
897.224	21017
897.345	20781
897.466	20819
897.587	20834
897.708	21085
897.828	20906
897.949	20883
898.07	20640
898.19	20777
898.311	20921
898.431	20678
898.552	20963
898.672	20971
898.792	20842
898.913	20967
899.033	20781
899.153	20625
899.273	20594
899.393	20682
899.513	20648
899.633	20511
899.753	20549
899.873	20609
899.993	20587
900.113	20434
900.232	20655
900.352	20587
900.472	20526
900.591	20244
900.711	20434
900.83	20320
900.95	20499
901.069	20415
901.189	20221
901.308	20077
901.427	19909
901.546	19989
901.665	20069
901.784	19898
901.904	19791
902.023	19734
902.141	19388
902.26	19518
902.379	19510
902.498	19483
902.617	19422
902.735	19491
902.854	19369
902.973	19396
903.091	19175
903.21	19202
903.328	19209
903.446	19076
903.565	18810
903.683	18993
903.801	18829
903.919	18909
904.038	18875
904.156	18669
904.274	18833
904.392	18719
904.51	18741
904.627	18715
904.745	18669
904.863	18768
904.981	18422
905.098	18372
905.216	18380
905.334	18353
905.451	18353
905.569	18300
905.686	18410
905.803	18388
905.921	18205
906.038	18194
906.155	18110
906.272	18106
906.389	18011
906.506	17935
906.623	17958
906.74	17920
906.857	17745
906.974	17832
907.091	17893
907.208	18003
907.324	17961
907.441	17752
907.557	17604
907.674	17722
907.79	17634
907.907	17604
908.023	17695
908.139	17627
908.256	17436
908.372	17539
908.488	17414
908.604	17364
908.72	17220
908.836	17341
908.952	17185
909.068	17410
909.184	17471
909.3	17387
909.415	17376
909.531	17185
909.647	17025
909.762	17037
909.878	16995
909.993	17178
910.108	16999
910.224	17056
910.339	17064
910.454	16885
910.57	16862
910.685	16691
910.8	17052
910.915	17022
911.03	16816
911.145	16687
911.259	16569
911.374	16618
911.489	16561
911.604	16447
911.718	16413
911.833	16402
911.947	16268
912.062	16226
912.176	16276
912.291	16333
912.405	16268
912.519	16546
912.633	16398
912.748	16352
912.862	16382
912.976	16219
913.09	16040
913.204	16109
913.318	16200
913.431	16143
913.545	16173
913.659	16360
913.772	16074
913.886	16010
914	15869
914.113	16029
914.226	16112
914.34	15960
914.453	15873
914.566	15953
914.68	15827
914.793	15785
914.906	15553
915.019	15557
915.132	15564
915.245	15572
915.358	15564
915.47	15515
915.583	15538
915.696	15519
915.809	15713
915.921	15641
916.034	15504
916.146	15447
916.259	15359
916.371	15420
916.483	15469
916.595	15382
916.708	15260
916.82	15359
916.932	15401
917.044	15317
917.156	15252
917.268	15180
917.38	15207
917.491	15237
917.603	15214
917.715	15313
917.826	15169
917.938	15089
918.049	15055
918.161	15138
918.272	15256
918.384	15313
918.495	15123
918.606	14994
918.717	14910
918.828	14899
918.939	14998
919.05	14910
919.161	14868
919.272	14708
919.383	14769
919.494	14914
919.604	15081
919.715	14971
919.826	14872
919.936	14933
920.047	14998
920.157	14948
920.267	15020
920.378	14864
920.488	14853
920.598	15089
920.708	15222
920.818	15032
920.928	14948
921.038	15165
921.148	15085
921.258	14796
921.368	14849
921.477	14617
921.587	14549
921.697	14492
921.806	14697
921.916	14556
922.025	14309
922.134	14259
922.244	14138
922.353	14221
922.462	14100
922.571	13989
922.68	13917
922.789	13898
922.898	13887
923.007	13837
923.116	13852
923.224	13879
923.333	13871
923.442	13772
923.55	13734
923.659	13734
923.767	13803
923.876	13651
923.984	13776
924.092	13639
924.201	13738
924.309	13674
924.417	13563
924.525	13559
924.633	13609
924.741	14587
924.849	13396
924.956	13525
925.064	13426
925.172	13152
925.279	13263
925.387	13282
925.494	13312
925.602	13331
925.709	13346
925.816	13156
925.924	13164
926.031	13339
926.138	13179
926.245	13263
926.352	13198
926.459	13240
926.566	13343
926.673	13122
926.779	12916
926.886	13042
926.993	12954
927.099	12871
927.206	12764
927.312	12757
927.419	12825
927.525	12806
927.631	12844
927.737	12764
927.843	12692
927.95	12486
928.056	12604
928.162	12650
928.267	12719
928.373	13168
928.479	12711
928.585	12490
928.69	12589
928.796	12673
928.901	12551
929.007	12350
929.112	12544
929.218	12509
929.323	12437
929.428	12346
929.533	12536
929.638	12254
929.743	12323
929.848	12388
929.953	12220
930.058	12209
930.163	12049
930.267	11954
930.372	12258
930.477	12015
930.581	12254
930.685	12057
930.79	12019
930.894	11977
930.998	11996
931.103	12022
931.207	11695
931.311	11570
931.415	11558
931.519	11311
931.623	11284
