Data from test_V78500241_611.txt Node
Date: Fri Mar 25 15:14:06 CST 2022
User: usil
Spectrometer: V785-0024
Trigger mode: 0
Integration Time (sec): 4.000000E-1
Scans to average: 1
Nonlinearity correction enabled: false
Boxcar width: 0
Storing dark spectrum: false
XAxis mode: Wavelengths
Number of Pixels in Spectrum: 1024
>>>>>Begin Spectral Data<<<<<
801.071	27644
801.214	27420
801.356	27370
801.499	27264
801.641	27085
801.783	27165
801.926	27176
802.068	27195
802.211	27001
802.353	27070
802.496	26929
802.638	26918
802.78	26868
802.923	26731
803.065	26781
803.208	26807
803.35	26891
803.492	27020
803.635	26967
803.777	26823
803.919	26948
804.061	27142
804.204	26979
804.346	26868
804.488	26826
804.63	27062
804.773	26861
804.915	26880
805.057	27146
805.199	26944
805.341	27135
805.483	27218
805.626	27116
805.768	27066
805.91	26994
806.052	27230
806.194	27039
806.336	27279
806.478	27195
806.62	27161
806.762	27264
806.904	27374
807.046	27682
807.188	27625
807.33	27736
807.472	27526
807.614	27485
807.756	27557
807.898	27348
808.04	27256
808.182	27397
808.324	27348
808.465	27389
808.607	27507
808.749	27705
808.891	27755
809.033	27934
809.174	27949
809.316	27812
809.458	27682
809.6	27705
809.741	27907
809.883	27934
810.025	28055
810.166	28120
810.308	28051
810.45	27960
810.591	28021
810.733	27819
810.875	27789
811.016	27572
811.158	27580
811.299	27926
811.441	27888
811.582	27873
811.724	27720
811.865	27675
812.007	27720
812.148	27766
812.29	27770
812.431	27857
812.573	28112
812.714	28147
812.855	28268
812.997	28443
813.138	28592
813.279	28459
813.421	28226
813.562	28268
813.703	28207
813.845	27994
813.986	27530
814.127	27603
814.268	27530
814.41	27561
814.551	27382
814.692	27633
814.833	27313
814.974	27382
815.115	27500
815.256	27511
815.397	27306
815.539	27287
815.68	27363
815.821	27321
815.962	27279
816.103	27291
816.244	27096
816.385	27085
816.526	26864
816.666	26899
816.807	26800
816.948	26731
817.089	26868
817.23	26792
817.371	26762
817.512	26872
817.653	26670
817.793	26720
817.934	26735
818.075	26815
818.216	26754
818.356	26777
818.497	26701
818.638	26590
818.778	26518
818.919	26549
819.06	26518
819.2	26705
819.341	26674
819.481	26708
819.622	26819
819.762	27009
819.903	27066
820.043	26910
820.184	26986
820.324	26967
820.465	26872
820.605	26891
820.746	26918
820.886	26659
821.026	26815
821.167	26777
821.307	26906
821.447	26826
821.588	26754
821.728	26545
821.868	26431
822.008	26195
822.149	26240
822.289	26233
822.429	25955
822.569	26020
822.709	25830
822.849	25849
822.99	25845
823.13	25556
823.27	25559
823.41	25575
823.55	25422
823.69	25620
823.83	25590
823.97	25518
824.11	25251
824.25	25289
824.389	25316
824.529	25453
824.669	25377
824.809	25445
824.949	25419
825.089	25540
825.228	25422
825.368	25190
825.508	25244
825.648	25365
825.787	25320
825.927	25266
826.067	25259
826.206	25255
826.346	25316
826.485	25221
826.625	25141
826.765	25358
826.904	25415
827.044	25015
827.183	25129
827.323	25042
827.462	25065
827.601	25031
827.741	25038
827.88	25053
828.02	24844
828.159	25004
828.298	24878
828.437	24939
828.577	24928
828.716	25110
828.855	24844
828.994	24692
829.134	24768
829.273	24601
829.412	24616
829.551	24631
829.69	24772
829.829	24642
829.968	24707
830.107	24783
830.246	24631
830.385	24589
830.524	24623
830.663	24388
830.802	24391
830.941	24148
831.08	24243
831.219	24380
831.357	24300
831.496	24464
831.635	24289
831.774	24304
831.913	24133
832.051	24235
832.19	24060
832.329	24228
832.467	24015
832.606	23988
832.744	23984
832.883	23946
833.022	23965
833.16	23939
833.299	24102
833.437	23996
833.576	24022
833.714	24034
833.852	24060
833.991	24076
834.129	24030
834.267	24235
834.406	24060
834.544	23996
834.682	24133
834.821	23973
834.959	24190
835.097	23916
835.235	24064
835.373	24018
835.511	24011
835.65	23969
835.788	23927
835.926	23699
836.064	23691
836.202	23802
836.34	23843
836.478	23999
836.615	23908
836.753	23726
836.891	23969
837.029	23931
837.167	23813
837.305	23756
837.443	23756
837.58	23733
837.718	23729
837.856	23745
837.993	23687
838.131	23741
838.269	23493
838.406	23543
838.544	23509
838.681	23315
838.819	23436
838.956	23151
839.094	23277
839.231	23254
839.369	23368
839.506	23547
839.643	23474
839.781	23162
839.918	23067
840.055	23174
840.193	23147
840.33	23010
840.467	23147
840.604	23105
840.742	23303
840.879	23033
841.016	23060
841.153	22995
841.29	23273
841.427	23185
841.564	23128
841.701	23113
841.838	23029
841.975	22953
842.112	22968
842.249	22919
842.385	22767
842.522	23178
842.659	22854
842.796	22725
842.933	22839
843.069	22767
843.206	22831
843.343	22927
843.479	22854
843.616	22946
843.752	22691
843.889	22706
844.025	22774
844.162	22611
844.298	22831
844.435	22569
844.571	22580
844.708	22618
844.844	22672
844.98	22729
845.117	22721
845.253	22611
845.389	22512
845.525	22489
845.661	22508
845.798	22421
845.934	22489
846.07	22375
846.206	22413
846.342	22527
846.478	22352
846.614	22207
846.75	22097
846.886	22086
847.022	22166
847.158	22131
847.294	22112
847.429	22268
847.565	22135
847.701	22322
847.837	21922
847.972	21743
848.108	21903
848.244	21994
848.379	21743
848.515	21675
848.65	21781
848.786	21713
848.921	21728
849.057	21785
849.192	21778
849.328	21766
849.463	21755
849.598	21606
849.734	21549
849.869	21515
850.004	21511
850.14	21568
850.275	21466
850.41	21344
850.545	21408
850.68	21523
850.815	21469
850.95	21477
851.085	21660
851.22	21622
851.355	21481
851.49	21382
851.625	21405
851.76	21386
851.895	21397
852.03	21275
852.165	21313
852.299	21507
852.434	21515
852.569	21572
852.703	21363
852.838	21462
852.973	21553
853.107	21511
853.242	21458
853.376	21283
853.511	21279
853.645	21218
853.78	21351
853.914	21367
854.048	21249
854.183	21283
854.317	21279
854.451	21591
854.585	21336
854.72	21256
854.854	21450
854.988	21207
855.122	21226
855.256	21214
855.39	21218
855.524	21264
855.658	21283
855.792	21283
855.926	21348
856.06	21336
856.194	21431
856.327	21256
856.461	21272
856.595	21294
856.729	21260
856.862	21359
856.996	21340
857.13	21336
857.263	21393
857.397	21439
857.53	21214
857.664	21275
857.797	21374
857.931	21389
858.064	21199
858.197	21393
858.331	21233
858.464	21180
858.597	21173
858.731	21302
858.864	21268
858.997	21272
859.13	21279
859.263	21306
859.396	21310
859.529	21222
859.662	21249
859.795	21154
859.928	21241
860.061	21519
860.194	21397
860.327	21329
860.46	21344
860.592	21325
860.725	21420
860.858	21492
860.99	21348
861.123	21165
861.256	21180
861.388	21298
861.521	22101
861.653	21138
861.786	21131
861.918	21017
862.05	21336
862.183	21157
862.315	21332
862.447	21325
862.58	21154
862.712	21013
862.844	21013
862.976	21062
863.108	21043
863.24	21416
863.372	20952
863.504	21070
863.636	21043
863.768	21036
863.9	20975
864.032	20788
864.164	20941
864.296	20990
864.428	21028
864.559	21104
864.691	21123
864.823	20994
864.954	21070
865.086	20994
865.217	20956
865.349	20921
865.48	20880
865.612	20845
865.743	20864
865.875	20921
866.006	20743
866.137	20792
866.269	20887
866.4	20918
866.531	20758
866.662	20823
866.793	20872
866.924	20891
867.055	20952
867.186	20754
867.317	20853
867.448	20682
867.579	20678
867.71	20788
867.841	20754
867.972	20876
868.103	20842
868.233	20864
868.364	20807
868.495	20914
868.625	21036
868.756	21195
868.886	20986
869.017	21142
869.147	21195
869.278	21252
869.408	21146
869.539	21017
869.669	21150
869.799	21123
869.929	21165
870.06	21226
870.19	21389
870.32	21370
870.45	21386
870.58	21447
870.71	21530
870.84	21545
870.97	21450
871.1	21496
871.23	21504
871.36	21709
871.489	21469
871.619	21622
871.749	21618
871.879	21583
872.008	21762
872.138	21652
872.267	21614
872.397	21572
872.526	21530
872.656	21580
872.785	21488
872.915	21686
873.044	21694
873.173	21637
873.303	21739
873.432	21778
873.561	21793
873.69	21717
873.819	21644
873.948	21728
874.077	21682
874.206	21637
874.335	21682
874.464	21720
874.593	21934
874.722	21743
874.851	21869
874.979	21934
875.108	21968
875.237	21854
875.365	21781
875.494	21850
875.623	21983
875.751	21888
875.88	21895
876.008	21964
876.136	22048
876.265	22367
876.393	22356
876.521	22379
876.65	22287
876.778	22337
876.906	22230
877.034	22200
877.162	22128
877.29	22249
877.418	22188
877.546	22318
877.674	22291
877.802	22192
877.93	22147
878.058	22303
878.185	22173
878.313	22272
878.441	22291
878.568	22135
878.696	22242
878.824	22166
878.951	22424
879.079	22398
879.206	22538
879.333	22440
879.461	22253
879.588	22333
879.715	22390
879.842	22565
879.97	22234
880.097	22109
880.224	22067
880.351	22116
880.478	22021
880.605	22090
880.732	21998
880.859	22284
880.986	22006
881.112	22006
881.239	22029
881.366	21755
881.493	21663
881.619	21713
881.746	21568
881.872	21614
881.999	21610
882.125	21557
882.252	21633
882.378	21663
882.505	21781
882.631	21397
882.757	21443
882.883	21405
883.01	21363
883.136	21291
883.262	21165
883.388	21165
883.514	21272
883.64	21412
883.766	21264
883.892	21047
884.018	21195
884.143	21310
884.269	21332
884.395	21169
884.52	20849
884.646	20883
884.772	20876
884.897	20880
885.023	21013
885.148	21093
885.274	21066
885.399	21081
885.524	20994
885.65	20880
885.775	20960
885.9	20800
886.025	21146
886.15	21001
886.275	20948
886.4	20944
886.525	20979
886.65	20937
886.775	20921
886.9	21055
887.025	21135
887.149	20948
887.274	20792
887.399	20796
887.523	20720
887.648	20720
887.773	20682
887.897	20830
888.021	20727
888.146	20769
888.27	20781
888.395	20811
888.519	20883
888.643	20689
888.767	20762
888.891	20644
889.015	20518
889.139	20541
889.263	20537
889.387	20590
889.511	20765
889.635	20724
889.759	20533
889.883	20537
890.006	20530
890.13	20648
890.254	20526
890.377	20503
890.501	20355
890.624	20286
890.748	20492
890.871	20164
890.995	20122
891.118	20069
891.241	20168
891.364	20275
891.488	20317
891.611	20122
891.734	20221
891.857	20218
891.98	20115
892.103	20145
892.226	20039
892.349	20092
892.471	19921
892.594	19955
892.717	20103
892.839	20046
892.962	20050
893.085	20096
893.207	19913
893.33	19909
893.452	19898
893.575	20096
893.697	20043
893.819	20092
893.941	20218
894.064	20210
894.186	19974
894.308	19989
894.43	20031
894.552	20161
894.674	20145
894.796	20020
894.918	20054
895.04	20096
895.161	20065
895.283	19997
895.405	19887
895.526	19928
895.648	20027
895.769	20016
895.891	20050
896.012	20005
896.134	20065
896.255	20035
896.376	19928
896.498	19982
896.619	20027
896.74	20088
896.861	20069
896.982	20396
897.103	20514
897.224	20290
897.345	20332
897.466	20161
897.587	20294
897.708	20370
897.828	20355
897.949	20206
898.07	20058
898.19	20161
898.311	20298
898.431	20145
898.552	20233
898.672	20450
898.792	20294
898.913	20202
899.033	20142
899.153	20096
899.273	20062
899.393	19898
899.513	19989
899.633	19997
899.753	20046
899.873	19917
899.993	20092
900.113	19887
900.232	19963
900.352	19860
900.472	19833
900.591	19811
900.711	19734
900.83	19776
900.95	19856
901.069	19902
901.189	19658
901.308	19270
901.427	19400
901.546	19384
901.665	19457
901.784	19339
901.904	19187
902.023	19171
902.141	18993
902.26	18913
902.379	18985
902.498	18859
902.617	18867
902.735	19000
902.854	18844
902.973	18844
903.091	18471
903.21	18517
903.328	18639
903.446	18494
903.565	18456
903.683	18429
903.801	18254
903.919	18357
904.038	18296
904.156	18038
904.274	18167
904.392	18091
904.51	18057
904.627	18083
904.745	18186
904.863	18064
904.981	17923
905.098	17920
905.216	17783
905.334	17855
905.451	17775
905.569	17836
905.686	17767
905.803	17802
905.921	17619
906.038	17741
906.155	17615
906.272	17433
906.389	17581
906.506	17364
906.623	17349
906.74	17341
906.857	17147
906.974	17269
907.091	17299
907.208	17368
907.324	17398
907.441	17227
907.557	17037
907.674	17037
907.79	17037
907.907	16904
908.023	16995
908.139	17117
908.256	16953
908.372	16938
908.488	16881
908.604	16820
908.72	16706
908.836	16733
908.952	16744
909.068	16854
909.184	16881
909.3	16816
909.415	16733
909.531	16729
909.647	16409
909.762	16523
909.878	16417
909.993	16474
910.108	16481
910.224	16432
910.339	16466
910.454	16402
910.57	16284
910.685	16166
910.8	16512
910.915	16386
911.03	16257
911.145	16158
911.259	16059
911.374	15987
911.489	16017
911.604	15945
911.718	15819
911.833	15854
911.947	15694
912.062	15675
912.176	15766
912.291	15759
912.405	15774
912.519	15960
912.633	15987
912.748	15857
912.862	15842
912.976	15652
913.09	15534
913.204	15587
913.318	15698
913.431	15816
913.545	15679
913.659	15762
913.772	15698
913.886	15386
914	15378
914.113	15500
914.226	15500
914.34	15469
914.453	15287
914.566	15428
914.68	15408
914.793	15283
914.906	15218
915.019	15077
915.132	15005
915.245	15028
915.358	15062
915.47	15062
915.583	15116
915.696	15112
915.809	15192
915.921	15138
916.034	15024
916.146	14937
916.259	14937
916.371	15142
916.483	14998
916.595	14921
916.708	14804
916.82	14868
916.932	14815
917.044	14777
917.156	14716
917.268	14587
917.38	14674
917.491	14640
917.603	14682
917.715	14739
917.826	14811
917.938	14735
918.049	14473
918.161	14705
918.272	14845
918.384	14712
918.495	14667
918.606	14434
918.717	14336
918.828	14526
918.939	14469
919.05	14412
919.161	14434
919.272	14233
919.383	14278
919.494	14514
919.604	14617
919.715	14469
919.826	14298
919.936	14412
920.047	14530
920.157	14480
920.267	14587
920.378	14362
920.488	14347
920.598	14571
920.708	14697
920.818	14530
920.928	14461
921.038	14659
921.148	14781
921.258	14324
921.368	14176
921.477	14069
921.587	14168
921.697	14027
921.806	14195
921.916	13974
922.025	13860
922.134	13852
922.244	13742
922.353	13837
922.462	13594
922.571	13651
922.68	13571
922.789	13438
922.898	13472
923.007	13373
923.116	13403
923.224	13438
923.333	13457
923.442	13289
923.55	13206
923.659	13320
923.767	13274
923.876	13228
923.984	13384
924.092	13259
924.201	13232
924.309	13145
924.417	13206
924.525	13072
924.633	13099
924.741	13875
924.849	12989
924.956	13046
925.064	12935
925.172	12844
925.279	12916
925.387	12905
925.494	12901
925.602	12970
925.709	12909
925.816	12745
925.924	12833
926.031	12825
926.138	12817
926.245	12875
926.352	12745
926.459	12848
926.566	12848
926.673	12646
926.779	12631
926.886	12692
926.993	12555
927.099	12426
927.206	12429
927.312	12319
927.419	12403
927.525	12475
927.631	12479
927.737	12372
927.843	12239
927.95	12186
928.056	12194
928.162	12300
928.267	12319
928.373	13023
928.479	12277
928.585	12175
928.69	12209
928.796	12281
928.901	12117
929.007	11992
929.112	12125
929.218	12087
929.323	11999
929.428	11958
929.533	12133
929.638	11912
929.743	11954
929.848	11977
929.953	11961
930.058	11824
930.163	11707
930.267	11710
930.372	11866
930.477	11642
930.581	11889
930.685	11661
930.79	11516
930.894	11535
930.998	11535
931.103	11691
931.207	11379
931.311	11299
931.415	11193
931.519	10946
931.623	10965
