Data from test_V78500241_339.txt Node
Date: Fri Mar 25 15:12:13 CST 2022
User: usil
Spectrometer: V785-0024
Trigger mode: 0
Integration Time (sec): 4.000000E-1
Scans to average: 1
Nonlinearity correction enabled: false
Boxcar width: 0
Storing dark spectrum: false
XAxis mode: Wavelengths
Number of Pixels in Spectrum: 1024
>>>>>Begin Spectral Data<<<<<
801.071	27108
801.214	26807
801.356	26750
801.499	26708
801.641	26621
801.783	26552
801.926	26594
802.068	26476
802.211	26549
802.353	26381
802.496	26374
802.638	26336
802.78	26202
802.923	26214
803.065	26142
803.208	26092
803.35	26126
803.492	26377
803.635	26351
803.777	26240
803.919	26252
804.061	26785
804.204	26275
804.346	26210
804.488	26233
804.63	26362
804.773	26195
804.915	26282
805.057	26469
805.199	26275
805.341	26336
805.483	26431
805.626	26412
805.768	26237
805.91	26271
806.052	26518
806.194	26400
806.336	26526
806.478	26381
806.62	26427
806.762	26499
806.904	26541
807.046	26834
807.188	26815
807.33	26800
807.472	26872
807.614	26731
807.756	26746
807.898	26697
808.04	26667
808.182	26476
808.324	26655
808.465	26811
808.607	26902
808.749	26823
808.891	27218
809.033	27112
809.174	27013
809.316	27062
809.458	27089
809.6	26933
809.741	26948
809.883	27066
810.025	27313
810.166	27302
810.308	27249
810.45	27188
810.591	27150
810.733	27127
810.875	26990
811.016	26975
811.158	26975
811.299	27032
811.441	27028
811.582	27146
811.724	26845
811.865	26948
812.007	26834
812.148	26929
812.29	26925
812.431	27142
812.573	27157
812.714	27420
812.855	27492
812.997	27622
813.138	27797
813.279	27682
813.421	27427
813.562	27420
813.703	27389
813.845	27146
813.986	26830
814.127	26781
814.268	26701
814.41	26693
814.551	26686
814.692	26739
814.833	26522
814.974	26686
815.115	26541
815.256	26583
815.397	26522
815.539	26450
815.68	26400
815.821	26511
815.962	26484
816.103	26473
816.244	26305
816.385	26240
816.526	26043
816.666	26001
816.807	25890
816.948	25993
817.089	25993
817.23	25883
817.371	25944
817.512	25974
817.653	25890
817.793	25864
817.934	25966
818.075	26008
818.216	25989
818.356	25856
818.497	25776
818.638	25559
818.778	25658
818.919	25757
819.06	25700
819.2	25731
819.341	25845
819.481	25791
819.622	25978
819.762	26172
819.903	26202
820.043	26046
820.184	26024
820.324	25944
820.465	26115
820.605	25997
820.746	26058
820.886	25902
821.026	26046
821.167	26005
821.307	26065
821.447	25959
821.588	25780
821.728	25723
821.868	25502
822.008	25358
822.149	25392
822.289	25472
822.429	25129
822.569	24901
822.709	25145
822.849	24817
822.99	24871
823.13	24886
823.27	24871
823.41	24559
823.55	24540
823.69	24650
823.83	24700
823.97	24528
824.11	24544
824.25	24395
824.389	24566
824.529	24616
824.669	24536
824.809	24490
824.949	24471
825.089	24612
825.228	24517
825.368	24361
825.508	24388
825.648	24327
825.787	24334
825.927	24479
826.067	24254
826.206	24289
826.346	24292
826.485	24380
826.625	24437
826.765	24460
826.904	24445
827.044	24018
827.183	24091
827.323	24011
827.462	24098
827.601	24030
827.741	23992
827.88	23961
828.02	24045
828.159	24022
828.298	24022
828.437	24148
828.577	24015
828.716	24228
828.855	23923
828.994	23885
829.134	23832
829.273	23847
829.412	23897
829.551	23760
829.69	23821
829.829	23874
829.968	23843
830.107	23851
830.246	23779
830.385	23653
830.524	23619
830.663	23486
830.802	23387
830.941	23360
831.08	23436
831.219	23486
831.357	23391
831.496	23726
831.635	23398
831.774	23318
831.913	23353
832.051	23185
832.19	23174
832.329	23258
832.467	23140
832.606	23014
832.744	22892
832.883	23159
833.022	23025
833.16	23140
833.299	23003
833.437	23128
833.576	23269
833.714	23181
833.852	23166
833.991	23181
834.129	23223
834.267	23269
834.406	23143
834.544	23280
834.682	23208
834.821	23254
834.959	23337
835.097	23132
835.235	23280
835.373	22961
835.511	23193
835.65	23121
835.788	23044
835.926	22980
836.064	22752
836.202	22828
836.34	23075
836.478	23140
836.615	23037
836.753	23083
836.891	23128
837.029	23132
837.167	23033
837.305	22957
837.443	22911
837.58	22927
837.718	23025
837.856	22968
837.993	22965
838.131	22923
838.269	22805
838.406	22717
838.544	22702
838.681	22573
838.819	22466
838.956	22504
839.094	22417
839.231	22348
839.369	22500
839.506	22793
839.643	22592
839.781	22261
839.918	22329
840.055	22379
840.193	22325
840.33	22268
840.467	22348
840.604	22333
840.742	22603
840.879	22112
841.016	22291
841.153	22253
841.29	22371
841.427	22344
841.564	22432
841.701	22344
841.838	22295
841.975	22226
842.112	22246
842.249	22143
842.385	22063
842.522	22333
842.659	21979
842.796	21964
842.933	22032
843.069	21998
843.206	21983
843.343	22185
843.479	22135
843.616	22082
843.752	21842
843.889	21781
844.025	21937
844.162	21846
844.298	21922
844.435	21816
844.571	21892
844.708	21873
844.844	21945
844.98	21987
845.117	21991
845.253	21816
845.389	21648
845.525	21728
845.661	21587
845.798	21663
845.934	21751
846.07	21606
846.206	21713
846.342	21759
846.478	21618
846.614	21439
846.75	21218
846.886	21192
847.022	21431
847.158	21386
847.294	21351
847.429	21374
847.565	21340
847.701	21538
847.837	21157
847.972	21043
848.108	21142
848.244	21032
848.379	20944
848.515	20982
848.65	20876
848.786	20925
848.921	20937
849.057	21032
849.192	20910
849.328	20986
849.463	20830
849.598	20899
849.734	20872
849.869	20765
850.004	20693
850.14	20708
850.275	20872
850.41	20655
850.545	20678
850.68	20579
850.815	20716
850.95	20648
851.085	20845
851.22	20682
851.355	20659
851.49	20659
851.625	20629
851.76	20575
851.895	20640
852.03	20568
852.165	20716
852.299	20823
852.434	20777
852.569	20625
852.703	20644
852.838	20632
852.973	20933
853.107	20769
853.242	20705
853.376	20503
853.511	20442
853.645	20480
853.78	20552
853.914	20556
854.048	20511
854.183	20530
854.317	20450
854.451	20689
854.585	20617
854.72	20480
854.854	20514
854.988	20339
855.122	20480
855.256	20324
855.39	20560
855.524	20594
855.658	20488
855.792	20545
855.926	20552
856.06	20587
856.194	20636
856.327	20499
856.461	20545
856.595	20549
856.729	20488
856.862	20629
856.996	20613
857.13	20541
857.263	20731
857.397	20674
857.53	20545
857.664	20495
857.797	20454
857.931	20571
858.064	20530
858.197	20575
858.331	20511
858.464	20533
858.597	20400
858.731	20549
858.864	20571
858.997	20419
859.13	20564
859.263	20473
859.396	20636
859.529	20431
859.662	20412
859.795	20484
859.928	20518
860.061	20682
860.194	20682
860.327	20590
860.46	20499
860.592	20579
860.725	20731
860.858	20625
860.99	20541
861.123	20431
861.256	20488
861.388	20602
861.521	21039
861.653	20415
861.786	20415
861.918	20385
862.05	20396
862.183	20423
862.315	20393
862.447	20537
862.58	20434
862.712	20218
862.844	20233
862.976	20366
863.108	20282
863.24	20682
863.372	20187
863.504	20339
863.636	20271
863.768	20294
863.9	20180
864.032	20046
864.164	20225
864.296	20202
864.428	20218
864.559	20275
864.691	20199
864.823	20328
864.954	20176
865.086	20210
865.217	20145
865.349	19909
865.48	20119
865.612	20138
865.743	20282
865.875	20161
866.006	20103
866.137	20103
866.269	20149
866.4	20145
866.531	20130
866.662	20050
866.793	20073
866.924	19925
867.055	20084
867.186	20077
867.317	19955
867.448	20073
867.579	20164
867.71	19978
867.841	19982
867.972	20126
868.103	20084
868.233	20115
868.364	20069
868.495	20153
868.625	20351
868.756	20404
868.886	20195
869.017	20313
869.147	20267
869.278	20347
869.408	20408
869.539	20313
869.669	20438
869.799	20393
869.929	20438
870.06	20427
870.19	20598
870.32	20454
870.45	20651
870.58	20731
870.71	20815
870.84	20701
870.97	20655
871.1	20701
871.23	20876
871.36	20933
871.489	20872
871.619	20849
871.749	20925
871.879	20941
872.008	20876
872.138	20933
872.267	20861
872.397	20823
872.526	20727
872.656	20697
872.785	20819
872.915	20933
873.044	20998
873.173	20845
873.303	20967
873.432	20918
873.561	21199
873.69	20880
873.819	20815
873.948	20986
874.077	20876
874.206	20819
874.335	21089
874.464	20990
874.593	21188
874.722	21127
874.851	21195
874.979	21214
875.108	21146
875.237	21165
875.365	21112
875.494	21024
875.623	21218
875.751	21180
875.88	21188
876.008	21272
876.136	21382
876.265	21667
876.393	21755
876.521	21690
876.65	21660
876.778	21496
876.906	21538
877.034	21424
877.162	21526
877.29	21370
877.418	21519
877.546	21583
877.674	21511
877.802	21454
877.93	21447
878.058	21599
878.185	21428
878.313	21473
878.441	21504
878.568	21405
878.696	21542
878.824	21523
878.951	21587
879.079	21698
879.206	21797
879.333	21682
879.461	21530
879.588	21641
879.715	21732
879.842	21747
879.97	21523
880.097	21336
880.224	21382
880.351	21450
880.478	21298
880.605	21302
880.732	21359
880.859	21595
880.986	21412
881.112	21283
881.239	21294
881.366	21176
881.493	21074
881.619	21043
881.746	20967
881.872	20960
881.999	21039
882.125	20902
882.252	20864
882.378	20895
882.505	21070
882.631	20910
882.757	20621
882.883	20667
883.01	20659
883.136	20469
883.262	20549
883.388	20385
883.514	20625
883.64	20758
883.766	20499
883.892	20438
884.018	20514
884.143	20564
884.269	20640
884.395	20351
884.52	20351
884.646	20252
884.772	20244
884.897	20130
885.023	20362
885.148	20480
885.274	20332
885.399	20328
885.524	20259
885.65	20271
885.775	20294
885.9	20282
886.025	20427
886.15	20385
886.275	20305
886.4	20214
886.525	20355
886.65	20115
886.775	20111
886.9	20396
887.025	20537
887.149	20324
887.274	20111
887.399	20016
887.523	19963
887.648	20001
887.773	19947
887.897	20092
888.021	20145
888.146	20016
888.27	20221
888.395	20130
888.519	20119
888.643	20187
888.767	20191
888.891	19887
889.015	19822
889.139	19890
889.263	19902
889.387	20107
889.511	20157
889.635	19970
889.759	19906
889.883	19879
890.006	19757
890.13	19913
890.254	19677
890.377	19746
890.501	19643
890.624	19601
890.748	19742
890.871	19605
890.995	19472
891.118	19419
891.241	19453
891.364	19578
891.488	19586
891.611	19441
891.734	19476
891.857	19556
891.98	19415
892.103	19540
892.226	19480
892.349	19362
892.471	19320
892.594	19480
892.717	19582
892.839	19369
892.962	19384
893.085	19487
893.207	19369
893.33	19133
893.452	19278
893.575	19392
893.697	19335
893.819	19525
893.941	19586
894.064	19514
894.186	19392
894.308	19266
894.43	19480
894.552	19495
894.674	19476
894.796	19312
894.918	19422
895.04	19316
895.161	19392
895.283	19331
895.405	19346
895.526	19365
895.648	19278
895.769	19350
895.891	19396
896.012	19441
896.134	19373
896.255	19358
896.376	19327
896.498	19320
896.619	19369
896.74	19419
896.861	19407
896.982	19685
897.103	19769
897.224	19700
897.345	19647
897.466	19518
897.587	19628
897.708	19704
897.828	19708
897.949	19537
898.07	19422
898.19	19499
898.311	19658
898.431	19594
898.552	19575
898.672	19757
898.792	19624
898.913	19647
899.033	19464
899.153	19434
899.273	19377
899.393	19301
899.513	19400
899.633	19407
899.753	19365
899.873	19312
899.993	19358
900.113	19411
900.232	19259
900.352	19289
900.472	19266
900.591	19232
900.711	19103
900.83	19099
900.95	19263
901.069	19274
901.189	19069
901.308	18848
901.427	18760
901.546	18703
901.665	18722
901.784	18692
901.904	18597
902.023	18547
902.141	18296
902.26	18262
902.379	18418
902.498	18311
902.617	18289
902.735	18174
902.854	18148
902.973	18190
903.091	17999
903.21	17923
903.328	17977
903.446	17775
903.565	17710
903.683	17741
903.801	17649
903.919	17779
904.038	17638
904.156	17562
904.274	17722
904.392	17482
904.51	17383
904.627	17577
904.745	17596
904.863	17589
904.981	17391
905.098	17170
905.216	17181
905.334	17155
905.451	17197
905.569	17273
905.686	17277
905.803	17254
905.921	16968
906.038	17136
906.155	17052
906.272	16919
906.389	16953
906.506	16862
906.623	16809
906.74	16767
906.857	16637
906.974	16607
907.091	16771
907.208	16824
907.324	16820
907.441	16634
907.557	16497
907.674	16577
907.79	16360
907.907	16306
908.023	16592
908.139	16402
908.256	16428
908.372	16341
908.488	16360
908.604	16192
908.72	16166
908.836	16188
908.952	16139
909.068	16238
909.184	16306
909.3	16211
909.415	16181
909.531	16185
909.647	15983
909.762	16010
909.878	15960
909.993	16032
910.108	15907
910.224	15918
910.339	16002
910.454	15682
910.57	15793
910.685	15637
910.8	15941
910.915	15835
911.03	15778
911.145	15515
911.259	15526
911.374	15587
911.489	15466
911.604	15504
911.718	15192
911.833	15233
911.947	15161
912.062	15047
912.176	15226
912.291	15218
912.405	15275
912.519	15431
912.633	15507
912.748	15268
912.862	15157
912.976	15104
913.09	14960
913.204	15127
913.318	15081
913.431	15218
913.545	15298
913.659	15230
913.772	15001
913.886	14910
914	14895
914.113	14994
914.226	15043
914.34	14921
914.453	14762
914.566	14948
914.68	14739
914.793	14796
914.906	14545
915.019	14530
915.132	14514
915.245	14469
915.358	14488
915.47	14511
915.583	14518
915.696	14526
915.809	14693
915.921	14674
916.034	14434
916.146	14412
916.259	14358
916.371	14522
916.483	14457
916.595	14351
916.708	14450
916.82	14438
916.932	14396
917.044	14259
917.156	14259
917.268	14240
917.38	14244
917.491	14202
917.603	14199
917.715	14336
917.826	14366
917.938	14195
918.049	14027
918.161	14138
918.272	14301
918.384	14256
918.495	14005
918.606	14084
918.717	13887
918.828	14058
918.939	14031
919.05	13913
919.161	13928
919.272	13761
919.383	13734
919.494	14077
919.604	14138
919.715	14012
919.826	13879
919.936	13921
920.047	14005
920.157	13909
920.267	14145
920.378	13936
920.488	13909
920.598	14065
920.708	14256
920.818	14058
920.928	14081
921.038	14225
921.148	14168
921.258	13940
921.368	13761
921.477	13655
921.587	13689
921.697	13537
921.806	13681
921.916	13563
922.025	13438
922.134	13396
922.244	13324
922.353	13407
922.462	13187
922.571	13190
922.68	13038
922.789	12989
922.898	13019
923.007	12852
923.116	13076
923.224	12954
923.333	12932
923.442	12825
923.55	12878
923.659	12905
923.767	12924
923.876	12776
923.984	12844
924.092	12711
924.201	12734
924.309	12726
924.417	12681
924.525	12665
924.633	12707
924.741	13441
924.849	12559
924.956	12696
925.064	12418
925.172	12429
925.279	12437
925.387	12490
925.494	12422
925.602	12665
925.709	12452
925.816	12403
925.924	12414
926.031	12570
926.138	12410
926.245	12429
926.352	12342
926.459	12494
926.566	12464
926.673	12350
926.779	12209
926.886	12178
926.993	12064
927.099	12095
927.206	12003
927.312	11908
927.419	12022
927.525	11904
927.631	12038
927.737	11882
927.843	11931
927.95	11748
928.056	11840
928.162	11878
928.267	11874
928.373	12410
928.479	11882
928.585	11672
928.69	11851
928.796	11859
928.901	11741
929.007	11558
929.112	11775
929.218	11733
929.323	11665
929.428	11611
929.533	11703
929.638	11547
929.743	11558
929.848	11547
929.953	11520
930.058	11482
930.163	11254
930.267	11376
930.372	11459
930.477	11193
930.581	11501
930.685	11307
930.79	11189
930.894	11201
930.998	11189
931.103	11341
931.207	10839
931.311	10915
931.415	10793
931.519	10622
931.623	10569
