Data from test_V78500241_2753.txt Node
Date: Fri Mar 25 15:29:01 CST 2022
User: usil
Spectrometer: V785-0024
Trigger mode: 0
Integration Time (sec): 4.000000E-1
Scans to average: 1
Nonlinearity correction enabled: false
Boxcar width: 0
Storing dark spectrum: false
XAxis mode: Wavelengths
Number of Pixels in Spectrum: 1024
>>>>>Begin Spectral Data<<<<<
801.071	27032
801.214	26982
801.356	26724
801.499	26716
801.641	26533
801.783	26526
801.926	26716
802.068	26579
802.211	26480
802.353	26225
802.496	26259
802.638	26294
802.78	26180
802.923	26058
803.065	26126
803.208	26050
803.35	26191
803.492	26282
803.635	26221
803.777	26248
803.919	26214
804.061	26644
804.204	26347
804.346	26199
804.488	26298
804.63	26423
804.773	26320
804.915	26278
805.057	26461
805.199	26202
805.341	26317
805.483	26434
805.626	26393
805.768	26374
805.91	26328
806.052	26469
806.194	26263
806.336	26564
806.478	26453
806.62	26473
806.762	26381
806.904	26537
807.046	26940
807.188	26754
807.33	26990
807.472	26861
807.614	26807
807.756	26834
807.898	26560
808.04	26606
808.182	26644
808.324	26727
808.465	26689
808.607	26769
808.749	27009
808.891	27123
809.033	27161
809.174	27150
809.316	26868
809.458	26948
809.6	26963
809.741	27123
809.883	27287
810.025	27317
810.166	27340
810.308	27230
810.45	27241
810.591	27100
810.733	26990
810.875	26986
811.016	26883
811.158	26891
811.299	27180
811.441	27169
811.582	27211
811.724	27036
811.865	26895
812.007	26876
812.148	26838
812.29	26979
812.431	27161
812.573	27279
812.714	27382
812.855	27488
812.997	27561
813.138	27606
813.279	27637
813.421	27511
813.562	27367
813.703	27310
813.845	27173
813.986	26857
814.127	26925
814.268	26602
814.41	26613
814.551	26708
814.692	26720
814.833	26583
814.974	26533
815.115	26705
815.256	26484
815.397	26488
815.539	26617
815.68	26370
815.821	26290
815.962	26415
816.103	26374
816.244	26343
816.385	26153
816.526	26214
816.666	25989
816.807	25826
816.948	26065
817.089	25864
817.23	25830
817.371	26031
817.512	25811
817.653	25879
817.793	25715
817.934	25894
818.075	25837
818.216	25826
818.356	25932
818.497	25704
818.638	25571
818.778	25655
818.919	25628
819.06	25723
819.2	25807
819.341	25875
819.481	25944
819.622	25978
819.762	26229
819.903	26096
820.043	26050
820.184	26043
820.324	26077
820.465	25986
820.605	25928
820.746	25989
820.886	25738
821.026	25909
821.167	25986
821.307	25936
821.447	25890
821.588	25780
821.728	25681
821.868	25544
822.008	25335
822.149	25358
822.289	25225
822.429	24958
822.569	24992
822.709	24977
822.849	24821
822.99	24852
823.13	24658
823.27	24791
823.41	24665
823.55	24673
823.69	24589
823.83	24681
823.97	24665
824.11	24460
824.25	24460
824.389	24426
824.529	24578
824.669	24426
824.809	24620
824.949	24528
825.089	24593
825.228	24551
825.368	24308
825.508	24323
825.648	24365
825.787	24350
825.927	24414
826.067	24369
826.206	24304
826.346	24369
826.485	24277
826.625	24464
826.765	24391
826.904	24395
827.044	24045
827.183	24117
827.323	24018
827.462	24121
827.601	24003
827.741	23942
827.88	24102
828.02	23969
828.159	23942
828.298	23939
828.437	24133
828.577	23901
828.716	24064
828.855	24034
828.994	23843
829.134	23809
829.273	23771
829.412	23824
829.551	23615
829.69	23760
829.829	23653
829.968	23828
830.107	23764
830.246	23790
830.385	23661
830.524	23646
830.663	23471
830.802	23433
830.941	23512
831.08	23258
831.219	23376
831.357	23296
831.496	23573
831.635	23254
831.774	23341
831.913	23326
832.051	23140
832.19	23086
832.329	23147
832.467	23204
832.606	22984
832.744	22965
832.883	23147
833.022	22949
833.16	22968
833.299	23079
833.437	23010
833.576	23075
833.714	23064
833.852	23083
833.991	23261
834.129	23121
834.267	23193
834.406	23109
834.544	23124
834.682	23105
834.821	23121
834.959	23231
835.097	23048
835.235	23124
835.373	23060
835.511	23121
835.65	22930
835.788	23029
835.926	22858
836.064	22786
836.202	22858
836.34	22892
836.478	23052
836.615	22774
836.753	22927
836.891	22946
837.029	22869
837.167	22881
837.305	22767
837.443	22801
837.58	22835
837.718	22805
837.856	22809
837.993	22729
838.131	22782
838.269	22660
838.406	22672
838.544	22569
838.681	22489
838.819	22459
838.956	22299
839.094	22181
839.231	22360
839.369	22360
839.506	22668
839.643	22485
839.781	22303
839.918	22238
840.055	22257
840.193	22261
840.33	22185
840.467	22363
840.604	22181
840.742	22542
840.879	22082
841.016	22051
841.153	22109
841.29	22310
841.427	22200
841.564	22284
841.701	22234
841.838	21994
841.975	22051
842.112	22246
842.249	22044
842.385	21911
842.522	22207
842.659	22067
842.796	22063
842.933	21842
843.069	21827
843.206	21819
843.343	22010
843.479	21930
843.616	21869
843.752	21759
843.889	21663
844.025	21918
844.162	21720
844.298	21808
844.435	21751
844.571	21667
844.708	21743
844.844	21918
844.98	21675
845.117	21762
845.253	21622
845.389	21618
845.525	21648
845.661	21633
845.798	21412
845.934	21454
846.07	21431
846.206	21473
846.342	21557
846.478	21504
846.614	21370
846.75	21165
846.886	21188
847.022	21279
847.158	21233
847.294	21142
847.429	21207
847.565	21138
847.701	21473
847.837	20921
847.972	20941
848.108	20960
848.244	20982
848.379	20845
848.515	20830
848.65	20655
848.786	20815
848.921	20819
849.057	20967
849.192	21005
849.328	20811
849.463	20731
849.598	20777
849.734	20632
849.869	20625
850.004	20492
850.14	20629
850.275	20541
850.41	20431
850.545	20499
850.68	20522
850.815	20609
850.95	20556
851.085	20648
851.22	20727
851.355	20575
851.49	20556
851.625	20640
851.76	20644
851.895	20484
852.03	20484
852.165	20587
852.299	20499
852.434	20571
852.569	20625
852.703	20693
852.838	20514
852.973	20735
853.107	20636
853.242	20442
853.376	20351
853.511	20252
853.645	20374
853.78	20465
853.914	20320
854.048	20396
854.183	20442
854.317	20438
854.451	20640
854.585	20282
854.72	20423
854.854	20492
854.988	20290
855.122	20431
855.256	20294
855.39	20537
855.524	20526
855.658	20431
855.792	20408
855.926	20434
856.06	20434
856.194	20438
856.327	20351
856.461	20267
856.595	20358
856.729	20465
856.862	20552
856.996	20412
857.13	20396
857.263	20469
857.397	20537
857.53	20366
857.664	20533
857.797	20545
857.931	20564
858.064	20351
858.197	20552
858.331	20454
858.464	20377
858.597	20282
858.731	20400
858.864	20450
858.997	20385
859.13	20404
859.263	20393
859.396	20488
859.529	20381
859.662	20404
859.795	20355
859.928	20480
860.061	20537
860.194	20640
860.327	20495
860.46	20362
860.592	20526
860.725	20541
860.858	20404
860.99	20393
861.123	20377
861.256	20343
861.388	20400
861.521	21058
861.653	20271
861.786	20130
861.918	20298
862.05	20358
862.183	20317
862.315	20324
862.447	20408
862.58	20332
862.712	20199
862.844	20096
862.976	20225
863.108	20043
863.24	20556
863.372	20199
863.504	20031
863.636	20084
863.768	20168
863.9	20050
864.032	20077
864.164	20065
864.296	20065
864.428	20309
864.559	20240
864.691	20187
864.823	20168
864.954	20210
865.086	20088
865.217	20027
865.349	20001
865.48	19974
865.612	19883
865.743	20084
865.875	20054
866.006	19993
866.137	20043
866.269	20069
866.4	20050
866.531	19963
866.662	20027
866.793	20058
866.924	19993
867.055	19932
867.186	20050
867.317	19913
867.448	19955
867.579	19947
867.71	19852
867.841	19902
867.972	19989
868.103	20020
868.233	20065
868.364	19951
868.495	20115
868.625	20244
868.756	20317
868.886	20122
869.017	20263
869.147	20355
869.278	20282
869.408	20336
869.539	20263
869.669	20275
869.799	20271
869.929	20332
870.06	20294
870.19	20545
870.32	20438
870.45	20712
870.58	20552
870.71	20705
870.84	20762
870.97	20556
871.1	20602
871.23	20739
871.36	20857
871.489	20693
871.619	20697
871.749	20895
871.879	20861
872.008	21005
872.138	20785
872.267	20811
872.397	20663
872.526	20682
872.656	20556
872.785	20651
872.915	20739
873.044	20845
873.173	20864
873.303	20895
873.432	20872
873.561	20868
873.69	20929
873.819	20906
873.948	20883
874.077	20872
874.206	20792
874.335	20819
874.464	21093
874.593	21093
874.722	20891
874.851	21138
874.979	21100
875.108	21207
875.237	21142
875.365	21062
875.494	21146
875.623	21070
875.751	21138
875.88	21161
876.008	21184
876.136	21272
876.265	21378
876.393	21633
876.521	21625
876.65	21591
876.778	21420
876.906	21485
877.034	21428
877.162	21553
877.29	21454
877.418	21492
877.546	21534
877.674	21492
877.802	21450
877.93	21386
878.058	21401
878.185	21287
878.313	21424
878.441	21256
878.568	21142
878.696	21408
878.824	21504
878.951	21485
879.079	21572
879.206	21736
879.333	21633
879.461	21428
879.588	21576
879.715	21610
879.842	21671
879.97	21553
880.097	21287
880.224	21237
880.351	21317
880.478	21287
880.605	21169
880.732	21306
880.859	21420
880.986	21416
881.112	21157
881.239	21184
881.366	21017
881.493	21047
881.619	20891
881.746	20979
881.872	20853
881.999	20842
882.125	20705
882.252	20815
882.378	20720
882.505	21005
882.631	20720
882.757	20442
882.883	20689
883.01	20575
883.136	20552
883.262	20434
883.388	20324
883.514	20636
883.64	20674
883.766	20526
883.892	20324
884.018	20484
884.143	20629
884.269	20495
884.395	20191
884.52	20244
884.646	20206
884.772	20180
884.897	20122
885.023	20248
885.148	20294
885.274	20404
885.399	20343
885.524	20172
885.65	20161
885.775	20187
885.9	20225
886.025	20374
886.15	20275
886.275	20157
886.4	20069
886.525	20168
886.65	20202
886.775	20168
886.9	20347
887.025	20404
887.149	20130
887.274	20157
887.399	20020
887.523	19928
887.648	19978
887.773	19928
887.897	20069
888.021	20050
888.146	19883
888.27	20016
888.395	20062
888.519	20012
888.643	20069
888.767	20012
888.891	19826
889.015	19833
889.139	19890
889.263	19860
889.387	19788
889.511	20005
889.635	19932
889.759	19708
889.883	19811
890.006	19856
890.13	19841
890.254	19723
890.377	19780
890.501	19643
890.624	19556
890.748	19647
890.871	19438
890.995	19331
891.118	19263
891.241	19289
891.364	19354
891.488	19472
891.611	19426
891.734	19403
891.857	19499
891.98	19339
892.103	19453
892.226	19381
892.349	19354
892.471	19194
892.594	19266
892.717	19247
892.839	19312
892.962	19327
893.085	19274
893.207	19335
893.33	19190
893.452	19236
893.575	19449
893.697	19274
893.819	19365
893.941	19601
894.064	19373
894.186	19270
894.308	19358
894.43	19362
894.552	19304
894.674	19278
894.796	19228
894.918	19278
895.04	19209
895.161	19259
895.283	19400
895.405	19308
895.526	19301
895.648	19263
895.769	19308
895.891	19304
896.012	19506
896.134	19396
896.255	19263
896.376	19255
896.498	19320
896.619	19350
896.74	19362
896.861	19464
896.982	19632
897.103	19734
897.224	19635
897.345	19499
897.466	19578
897.587	19480
897.708	19594
897.828	19651
897.949	19655
898.07	19434
898.19	19430
898.311	19628
898.431	19491
898.552	19514
898.672	19723
898.792	19635
898.913	19487
899.033	19480
899.153	19411
899.273	19274
899.393	19232
899.513	19396
899.633	19266
899.753	19282
899.873	19285
899.993	19426
900.113	19228
900.232	19270
900.352	19202
900.472	19141
900.591	18962
900.711	19050
900.83	19023
900.95	19148
901.069	19141
901.189	18954
901.308	18863
901.427	18726
901.546	18631
901.665	18760
901.784	18711
901.904	18547
902.023	18467
902.141	18357
902.26	18251
902.379	18292
902.498	18266
902.617	18136
902.735	18197
902.854	18224
902.973	18007
903.091	17954
903.21	17885
903.328	17912
903.446	17817
903.565	17714
903.683	17737
903.801	17642
903.919	17707
904.038	17695
904.156	17623
904.274	17528
904.392	17440
904.51	17463
904.627	17524
904.745	17535
904.863	17558
904.981	17284
905.098	17223
905.216	17166
905.334	17235
905.451	17052
905.569	17185
905.686	17132
905.803	17143
905.921	16972
906.038	17018
906.155	16915
906.272	16786
906.389	16900
906.506	16694
906.623	16824
906.74	16691
906.857	16630
906.974	16618
907.091	16805
907.208	16763
907.324	16691
907.441	16622
907.557	16421
907.674	16379
907.79	16409
907.907	16424
908.023	16363
908.139	16497
908.256	16352
908.372	16310
908.488	16325
908.604	16112
908.72	16071
908.836	16188
908.952	16051
909.068	16154
909.184	16219
909.3	16135
909.415	16200
909.531	16139
909.647	15934
909.762	15850
909.878	15759
909.993	15812
910.108	15937
910.224	15823
910.339	15781
910.454	15698
910.57	15686
910.685	15519
910.8	15819
910.915	15888
911.03	15667
911.145	15526
911.259	15367
911.374	15351
911.489	15370
911.604	15317
911.718	15116
911.833	15252
911.947	15142
912.062	15138
912.176	15298
912.291	15252
912.405	15226
912.519	15500
912.633	15378
912.748	15302
912.862	15306
912.976	15028
913.09	14899
913.204	15032
913.318	15058
913.431	15131
913.545	15116
913.659	15093
913.772	14948
913.886	14925
914	14883
914.113	14952
914.226	14971
914.34	14960
914.453	14796
914.566	14925
914.68	14758
914.793	14712
914.906	14587
915.019	14454
915.132	14427
915.245	14469
915.358	14423
915.47	14469
915.583	14465
915.696	14457
915.809	14587
915.921	14537
916.034	14366
916.146	14408
916.259	14278
916.371	14469
916.483	14393
916.595	14218
916.708	14347
916.82	14313
916.932	14221
917.044	14248
917.156	14248
917.268	14191
917.38	14107
917.491	14119
917.603	14210
917.715	14168
917.826	14290
917.938	14126
918.049	13982
918.161	14134
918.272	14237
918.384	14263
918.495	14138
918.606	13955
918.717	13883
918.828	13944
918.939	13989
919.05	13864
919.161	13936
919.272	13685
919.383	13833
919.494	13955
919.604	14130
919.715	13852
919.826	13898
919.936	13780
920.047	14050
920.157	13917
920.267	14123
920.378	13875
920.488	13875
920.598	14012
920.708	14145
920.818	13982
920.928	13978
921.038	14157
921.148	14126
921.258	13871
921.368	13750
921.477	13594
921.587	13643
921.697	13559
921.806	13674
921.916	13525
922.025	13381
922.134	13285
922.244	13335
922.353	13312
922.462	13240
922.571	13103
922.68	13015
922.789	12901
922.898	12985
923.007	12943
923.116	12901
923.224	12970
923.333	12920
923.442	12764
923.55	12787
923.659	12871
923.767	12833
923.876	12639
923.984	12943
924.092	12662
924.201	12837
924.309	12703
924.417	12722
924.525	12566
924.633	12642
924.741	13609
924.849	12490
924.956	12631
925.064	12441
925.172	12391
925.279	12372
925.387	12452
925.494	12399
925.602	12517
925.709	12517
925.816	12342
925.924	12369
926.031	12460
926.138	12433
926.245	12380
926.352	12270
926.459	12369
926.566	12426
926.673	12270
926.779	12190
926.886	12186
926.993	11897
927.099	11988
927.206	11965
927.312	11889
927.419	12133
927.525	11996
927.631	11996
927.737	11927
927.843	11843
927.95	11726
928.056	11821
928.162	11874
928.267	11874
928.373	12372
928.479	11946
928.585	11695
928.69	11653
928.796	11802
928.901	11627
929.007	11512
929.112	11596
929.218	11627
929.323	11596
929.428	11493
929.533	11767
929.638	11512
929.743	11570
929.848	11604
929.953	11562
930.058	11398
930.163	11155
930.267	11201
930.372	11284
930.477	11147
930.581	11471
930.685	11239
930.79	11185
930.894	11170
930.998	11170
931.103	11277
931.207	10949
931.311	10820
931.415	10790
931.519	10550
931.623	10588
