Data from test_V78500241_2948.txt Node
Date: Fri Mar 25 15:30:23 CST 2022
User: usil
Spectrometer: V785-0024
Trigger mode: 0
Integration Time (sec): 4.000000E-1
Scans to average: 1
Nonlinearity correction enabled: false
Boxcar width: 0
Storing dark spectrum: false
XAxis mode: Wavelengths
Number of Pixels in Spectrum: 1024
>>>>>Begin Spectral Data<<<<<
801.071	27127
801.214	26975
801.356	26921
801.499	26678
801.641	26579
801.783	26659
801.926	26708
802.068	26579
802.211	26499
802.353	26434
802.496	26366
802.638	26343
802.78	26347
802.923	26058
803.065	26126
803.208	26119
803.35	26126
803.492	26415
803.635	26476
803.777	26225
803.919	26332
804.061	26842
804.204	26427
804.346	26366
804.488	26244
804.63	26328
804.773	26332
804.915	26286
805.057	26400
805.199	26377
805.341	26374
805.483	26507
805.626	26499
805.768	26453
805.91	26484
806.052	26488
806.194	26465
806.336	26583
806.478	26442
806.62	26514
806.762	26568
806.904	26788
807.046	27047
807.188	26899
807.33	26937
807.472	26971
807.614	26785
807.756	26899
807.898	26746
808.04	26602
808.182	26724
808.324	26705
808.465	26746
808.607	26891
808.749	27275
808.891	27123
809.033	27218
809.174	27176
809.316	27165
809.458	26979
809.6	27112
809.741	27207
809.883	27241
810.025	27359
810.166	27279
810.308	27382
810.45	27401
810.591	27268
810.733	27207
810.875	26994
811.016	27043
811.158	27020
811.299	27344
811.441	27329
811.582	27401
811.724	27241
811.865	27119
812.007	27184
812.148	26887
812.29	27062
812.431	27359
812.573	27332
812.714	27416
812.855	27591
812.997	27656
813.138	27861
813.279	27827
813.421	27728
813.562	27496
813.703	27363
813.845	27283
813.986	26963
814.127	26864
814.268	26765
814.41	26746
814.551	26804
814.692	26792
814.833	26663
814.974	26693
815.115	26849
815.256	26552
815.397	26575
815.539	26731
815.68	26564
815.821	26453
815.962	26457
816.103	26412
816.244	26381
816.385	26294
816.526	26202
816.666	26199
816.807	25894
816.948	26081
817.089	26081
817.23	26161
817.371	25966
817.512	25963
817.653	26088
817.793	25860
817.934	25989
818.075	26008
818.216	26130
818.356	25940
818.497	25871
818.638	25635
818.778	25670
818.919	25757
819.06	25811
819.2	25890
819.341	26088
819.481	25986
819.622	26134
819.762	26122
819.903	26256
820.043	26256
820.184	26126
820.324	25997
820.465	26081
820.605	26065
820.746	26084
820.886	26012
821.026	26081
821.167	26062
821.307	26176
821.447	25868
821.588	25830
821.728	25708
821.868	25681
822.008	25597
822.149	25582
822.289	25396
822.429	25247
822.569	25053
822.709	25122
822.849	25065
822.99	24992
823.13	25008
823.27	24859
823.41	24768
823.55	24616
823.69	24738
823.83	24650
823.97	24715
824.11	24559
824.25	24540
824.389	24585
824.529	24688
824.669	24517
824.809	24601
824.949	24536
825.089	24635
825.228	24525
825.368	24494
825.508	24365
825.648	24346
825.787	24388
825.927	24570
826.067	24338
826.206	24467
826.346	24490
826.485	24532
826.625	24346
826.765	24555
826.904	24437
827.044	24201
827.183	24159
827.323	24102
827.462	24224
827.601	24235
827.741	23996
827.88	24038
828.02	24038
828.159	24152
828.298	24174
828.437	24068
828.577	24125
828.716	24106
828.855	24053
828.994	23843
829.134	23836
829.273	23999
829.412	23866
829.551	23813
829.69	23931
829.829	23798
829.968	23920
830.107	24022
830.246	23824
830.385	23733
830.524	23786
830.663	23726
830.802	23623
830.941	23490
831.08	23486
831.219	23585
831.357	23630
831.496	23710
831.635	23459
831.774	23330
831.913	23315
832.051	23315
832.19	23147
832.329	23269
832.467	23155
832.606	23052
832.744	22980
832.883	23181
833.022	22919
833.16	23162
833.299	23174
833.437	23181
833.576	23368
833.714	23006
833.852	23341
833.991	23227
834.129	23277
834.267	23216
834.406	23246
834.544	23185
834.682	23048
834.821	23159
834.959	23353
835.097	23128
835.235	23250
835.373	23261
835.511	23197
835.65	23136
835.788	23060
835.926	22957
836.064	22797
836.202	22911
836.34	23102
836.478	23060
836.615	22896
836.753	22980
836.891	23121
837.029	23041
837.167	22908
837.305	22850
837.443	22892
837.58	22881
837.718	22835
837.856	22873
837.993	22877
838.131	22850
838.269	22702
838.406	22759
838.544	22622
838.681	22508
838.819	22527
838.956	22386
839.094	22280
839.231	22322
839.369	22565
839.506	22729
839.643	22569
839.781	22249
839.918	22253
840.055	22356
840.193	22268
840.33	22356
840.467	22261
840.604	22322
840.742	22451
840.879	22223
841.016	22246
841.153	22166
841.29	22291
841.427	22348
841.564	22310
841.701	22341
841.838	22276
841.975	22067
842.112	22109
842.249	22074
842.385	22116
842.522	22322
842.659	22101
842.796	21903
842.933	21960
843.069	22021
843.206	21960
843.343	22158
843.479	21983
843.616	21956
843.752	21819
843.889	21835
844.025	21903
844.162	21793
844.298	21975
844.435	21785
844.571	21774
844.708	21762
844.844	21956
844.98	21892
845.117	21797
845.253	21728
845.389	21595
845.525	21701
845.661	21595
845.798	21637
845.934	21652
846.07	21485
846.206	21572
846.342	21641
846.478	21447
846.614	21367
846.75	21298
846.886	21291
847.022	21378
847.158	21317
847.294	21310
847.429	21161
847.565	21260
847.701	21405
847.837	20982
847.972	21013
848.108	21024
848.244	21074
848.379	20979
848.515	20979
848.65	20902
848.786	20819
848.921	20933
849.057	20933
849.192	20979
849.328	20914
849.463	20872
849.598	20895
849.734	20800
849.869	20712
850.004	20655
850.14	20708
850.275	20625
850.41	20484
850.545	20629
850.68	20617
850.815	20708
850.95	20556
851.085	20796
851.22	20708
851.355	20651
851.49	20571
851.625	20682
851.76	20667
851.895	20514
852.03	20560
852.165	20609
852.299	20625
852.434	20758
852.569	20625
852.703	20568
852.838	20613
852.973	20800
853.107	20731
853.242	20583
853.376	20389
853.511	20336
853.645	20465
853.78	20549
853.914	20408
854.048	20473
854.183	20434
854.317	20552
854.451	20583
854.585	20450
854.72	20575
854.854	20533
854.988	20328
855.122	20415
855.256	20252
855.39	20457
855.524	20476
855.658	20454
855.792	20461
855.926	20446
856.06	20488
856.194	20587
856.327	20454
856.461	20419
856.595	20438
856.729	20442
856.862	20575
856.996	20560
857.13	20507
857.263	20393
857.397	20609
857.53	20526
857.664	20408
857.797	20438
857.931	20621
858.064	20404
858.197	20530
858.331	20339
858.464	20336
858.597	20400
858.731	20370
858.864	20434
858.997	20389
859.13	20385
859.263	20488
859.396	20492
859.529	20488
859.662	20423
859.795	20400
859.928	20408
860.061	20514
860.194	20659
860.327	20457
860.46	20476
860.592	20556
860.725	20533
860.858	20602
860.99	20427
861.123	20400
861.256	20404
861.388	20590
861.521	20990
861.653	20393
861.786	20229
861.918	20305
862.05	20332
862.183	20305
862.315	20412
862.447	20541
862.58	20317
862.712	20244
862.844	20191
862.976	20336
863.108	20229
863.24	20712
863.372	20065
863.504	20202
863.636	20126
863.768	20191
863.9	20172
864.032	20134
864.164	20149
864.296	20149
864.428	20324
864.559	20233
864.691	20202
864.823	20271
864.954	20237
865.086	20111
865.217	20119
865.349	20027
865.48	20084
865.612	20115
865.743	20282
865.875	20153
866.006	20130
866.137	20077
866.269	20084
866.4	20122
866.531	19906
866.662	19917
866.793	20012
866.924	20039
867.055	20001
867.186	20077
867.317	20008
867.448	19807
867.579	20027
867.71	19879
867.841	19906
867.972	20012
868.103	20035
868.233	20020
868.364	20046
868.495	20081
868.625	20225
868.756	20298
868.886	20282
869.017	20107
869.147	20309
869.278	20339
869.408	20267
869.539	20317
869.669	20396
869.799	20328
869.929	20370
870.06	20309
870.19	20613
870.32	20556
870.45	20533
870.58	20682
870.71	20716
870.84	20819
870.97	20613
871.1	20648
871.23	20746
871.36	20811
871.489	20644
871.619	20796
871.749	20986
871.879	21001
872.008	20887
872.138	20773
872.267	20845
872.397	20678
872.526	20632
872.656	20682
872.785	20689
872.915	20933
873.044	20929
873.173	20853
873.303	20899
873.432	21055
873.561	20948
873.69	20876
873.819	20864
873.948	21116
874.077	20876
874.206	20849
874.335	20921
874.464	21005
874.593	21085
874.722	21127
874.851	21325
874.979	21028
875.108	21203
875.237	21108
875.365	21074
875.494	21123
875.623	21138
875.751	20948
875.88	21272
876.008	21306
876.136	21294
876.265	21412
876.393	21622
876.521	21648
876.65	21568
876.778	21504
876.906	21416
877.034	21477
877.162	21447
877.29	21359
877.418	21538
877.546	21591
877.674	21576
877.802	21561
877.93	21663
878.058	21492
878.185	21302
878.313	21435
878.441	21424
878.568	21374
878.696	21367
878.824	21618
878.951	21545
879.079	21561
879.206	21759
879.333	21633
879.461	21519
879.588	21667
879.715	21614
879.842	21785
879.97	21583
880.097	21336
880.224	21306
880.351	21458
880.478	21310
880.605	21321
880.732	21272
880.859	21504
880.986	21252
881.112	21355
881.239	21138
881.366	21154
881.493	21032
881.619	20769
881.746	20998
881.872	20826
881.999	20872
882.125	20762
882.252	20895
882.378	20929
882.505	21028
882.631	20724
882.757	20651
882.883	20758
883.01	20640
883.136	20606
883.262	20609
883.388	20381
883.514	20655
883.64	20686
883.766	20613
883.892	20332
884.018	20473
884.143	20575
884.269	20689
884.395	20305
884.52	20180
884.646	20415
884.772	20244
884.897	20107
885.023	20362
885.148	20362
885.274	20377
885.399	20351
885.524	20267
885.65	20317
885.775	20256
885.9	20317
886.025	20336
886.15	20400
886.275	20233
886.4	20256
886.525	20214
886.65	20218
886.775	20278
886.9	20389
887.025	20419
887.149	20202
887.274	20153
887.399	19982
887.523	20027
887.648	19936
887.773	20046
887.897	20096
888.021	20100
888.146	19970
888.27	20134
888.395	20077
888.519	20092
888.643	20115
888.767	20107
888.891	19947
889.015	19944
889.139	20024
889.263	19894
889.387	20073
889.511	20065
889.635	19883
889.759	19837
889.883	19818
890.006	19894
890.13	19947
890.254	19712
890.377	19818
890.501	19616
890.624	19643
890.748	19578
890.871	19563
890.995	19483
891.118	19396
891.241	19400
891.364	19514
891.488	19700
891.611	19483
891.734	19548
891.857	19460
891.98	19434
892.103	19480
892.226	19476
892.349	19331
892.471	19244
892.594	19354
892.717	19480
892.839	19422
892.962	19331
893.085	19472
893.207	19289
893.33	19236
893.452	19365
893.575	19381
893.697	19384
893.819	19544
893.941	19480
894.064	19499
894.186	19236
894.308	19217
894.43	19502
894.552	19518
894.674	19472
894.796	19289
894.918	19392
895.04	19297
895.161	19365
895.283	19339
895.405	19285
895.526	19339
895.648	19358
895.769	19426
895.891	19495
896.012	19388
896.134	19354
896.255	19464
896.376	19240
896.498	19438
896.619	19483
896.74	19472
896.861	19533
896.982	19674
897.103	19909
897.224	19655
897.345	19613
897.466	19609
897.587	19609
897.708	19791
897.828	19750
897.949	19582
898.07	19502
898.19	19635
898.311	19734
898.431	19651
898.552	19613
898.672	19689
898.792	19700
898.913	19590
899.033	19441
899.153	19445
899.273	19297
899.393	19384
899.513	19388
899.633	19365
899.753	19457
899.873	19331
899.993	19377
900.113	19228
900.232	19324
900.352	19293
900.472	19240
900.591	19217
900.711	19148
900.83	19122
900.95	19164
901.069	19304
901.189	19141
901.308	18840
901.427	18734
901.546	18684
901.665	18802
901.784	18806
901.904	18593
902.023	18540
902.141	18361
902.26	18266
902.379	18422
902.498	18414
902.617	18243
902.735	18357
902.854	18159
902.973	18140
903.091	17965
903.21	17999
903.328	17965
903.446	17851
903.565	17798
903.683	17798
903.801	17710
903.919	17710
904.038	17805
904.156	17551
904.274	17661
904.392	17520
904.51	17520
904.627	17532
904.745	17512
904.863	17566
904.981	17337
905.098	17121
905.216	17277
905.334	17414
905.451	17121
905.569	17239
905.686	17204
905.803	17166
905.921	17022
906.038	17128
906.155	17041
906.272	16946
906.389	16862
906.506	16710
906.623	16763
906.74	16736
906.857	16630
906.974	16584
907.091	16782
907.208	16820
907.324	16660
907.441	16771
907.557	16462
907.674	16504
907.79	16512
907.907	16367
908.023	16546
908.139	16538
908.256	16402
908.372	16352
908.488	16432
908.604	16325
908.72	16344
908.836	16234
908.952	16139
909.068	16181
909.184	16314
909.3	16135
909.415	16173
909.531	16097
909.647	16048
909.762	16006
909.878	15953
909.993	15994
910.108	15827
910.224	15857
910.339	15918
910.454	15876
910.57	15831
910.685	15648
910.8	15949
910.915	15827
911.03	15766
911.145	15526
911.259	15416
911.374	15450
911.489	15367
911.604	15488
911.718	15233
911.833	15207
911.947	15184
912.062	15188
912.176	15302
912.291	15329
912.405	15222
912.519	15530
912.633	15458
912.748	15264
912.862	15169
912.976	14979
913.09	14937
913.204	15032
913.318	14967
913.431	15199
913.545	15192
913.659	15195
913.772	15009
913.886	14868
914	14853
914.113	15009
914.226	14982
914.34	14941
914.453	14853
914.566	14933
914.68	14864
914.793	14743
914.906	14598
915.019	14583
915.132	14370
915.245	14393
915.358	14533
915.47	14541
915.583	14552
915.696	14575
915.809	14594
915.921	14689
916.034	14473
916.146	14438
916.259	14343
916.371	14602
916.483	14507
916.595	14408
916.708	14450
916.82	14347
916.932	14267
917.044	14396
917.156	14358
917.268	14168
917.38	14259
917.491	14168
917.603	14271
917.715	14263
917.826	14275
917.938	14214
918.049	14153
918.161	14115
918.272	14301
918.384	14294
918.495	14035
918.606	14024
918.717	13837
918.828	14081
918.939	14027
919.05	13830
919.161	13982
919.272	13849
919.383	13807
919.494	14065
919.604	14164
919.715	14073
919.826	13898
919.936	13909
920.047	14043
920.157	13989
920.267	14123
920.378	13887
920.488	13894
920.598	14145
920.708	14218
920.818	14103
920.928	14187
921.038	14248
921.148	14119
921.258	13890
921.368	13822
921.477	13620
921.587	13620
921.697	13632
921.806	13700
921.916	13552
922.025	13426
922.134	13339
922.244	13362
922.353	13381
922.462	13244
922.571	13232
922.68	13076
922.789	13023
922.898	12973
923.007	12951
923.116	12943
923.224	12924
923.333	12920
923.442	12875
923.55	12817
923.659	12901
923.767	12890
923.876	12863
923.984	12829
924.092	12734
924.201	12768
924.309	12817
924.417	12787
924.525	12734
924.633	12700
924.741	13407
924.849	12426
924.956	12658
925.064	12464
925.172	12342
925.279	12437
925.387	12509
925.494	12498
925.602	12540
925.709	12445
925.816	12384
925.924	12407
926.031	12525
926.138	12395
926.245	12433
926.352	12395
926.459	12399
926.566	12445
926.673	12273
926.779	12281
926.886	12247
926.993	12106
927.099	12053
927.206	12015
927.312	11973
927.419	12011
927.525	11980
927.631	12076
927.737	11954
927.843	11897
927.95	11809
928.056	11764
928.162	11893
928.267	11916
928.373	12414
928.479	11931
928.585	11703
928.69	11741
928.796	11798
928.901	11691
929.007	11543
929.112	11741
929.218	11642
929.323	11676
929.428	11528
929.533	11767
929.638	11490
929.743	11562
929.848	11615
929.953	11539
930.058	11459
930.163	11269
930.267	11277
930.372	11554
930.477	11292
930.581	11490
930.685	11341
930.79	11280
930.894	11250
930.998	11178
931.103	11353
931.207	10999
931.311	10873
931.415	10710
931.519	10660
931.623	10535
