Data from test_V78500241_3373.txt Node
Date: Fri Mar 25 15:33:20 CST 2022
User: usil
Spectrometer: V785-0024
Trigger mode: 0
Integration Time (sec): 4.000000E-1
Scans to average: 1
Nonlinearity correction enabled: false
Boxcar width: 0
Storing dark spectrum: false
XAxis mode: Wavelengths
Number of Pixels in Spectrum: 1024
>>>>>Begin Spectral Data<<<<<
801.071	27173
801.214	27173
801.356	26918
801.499	26891
801.641	26773
801.783	26682
801.926	26857
802.068	26838
802.211	26785
802.353	26606
802.496	26480
802.638	26556
802.78	26396
802.923	26389
803.065	26259
803.208	26278
803.35	26507
803.492	26552
803.635	26625
803.777	26412
803.919	26522
804.061	26762
804.204	26686
804.346	26404
804.488	26355
804.63	26522
804.773	26537
804.915	26693
805.057	26552
805.199	26606
805.341	26590
805.483	26705
805.626	26659
805.768	26644
805.91	26743
806.052	26762
806.194	26625
806.336	26819
806.478	26758
806.62	26682
806.762	26796
806.904	27020
807.046	27283
807.188	27066
807.33	27245
807.472	27028
807.614	26986
807.756	27032
807.898	26944
808.04	26830
808.182	26883
808.324	26811
808.465	27020
808.607	27154
808.749	27184
808.891	27416
809.033	27359
809.174	27241
809.316	27367
809.458	27272
809.6	27226
809.741	27256
809.883	27420
810.025	27557
810.166	27564
810.308	27534
810.45	27454
810.591	27561
810.733	27367
810.875	27283
811.016	27211
811.158	27226
811.299	27389
811.441	27397
811.582	27450
811.724	27340
811.865	27199
812.007	27386
812.148	27256
812.29	27112
812.431	27393
812.573	27557
812.714	27625
812.855	27766
812.997	27709
813.138	28002
813.279	27911
813.421	27800
813.562	27568
813.703	27534
813.845	27462
813.986	27039
814.127	27077
814.268	26906
814.41	26929
814.551	26842
814.692	26990
814.833	26849
814.974	26944
815.115	26937
815.256	26845
815.397	26785
815.539	26826
815.68	26689
815.821	26503
815.962	26735
816.103	26724
816.244	26492
816.385	26530
816.526	26408
816.666	26233
816.807	26199
816.948	26301
817.089	26343
817.23	26301
817.371	26252
817.512	26012
817.653	26161
817.793	26183
817.934	26172
818.075	26111
818.216	26202
818.356	26206
818.497	26077
818.638	25784
818.778	25913
818.919	25902
819.06	26062
819.2	26077
819.341	26084
819.481	26180
819.622	26294
819.762	26469
819.903	26381
820.043	26412
820.184	26381
820.324	26221
820.465	26309
820.605	26453
820.746	26218
820.886	26130
821.026	26206
821.167	26115
821.307	26259
821.447	26218
821.588	26100
821.728	25925
821.868	25852
822.008	25643
822.149	25689
822.289	25525
822.429	25354
822.569	25384
822.709	25308
822.849	25293
822.99	25179
823.13	25053
823.27	25031
823.41	24985
823.55	24856
823.69	24920
823.83	24920
823.97	24897
824.11	24764
824.25	24726
824.389	24760
824.529	24856
824.669	24817
824.809	24848
824.949	24798
825.089	24863
825.228	24821
825.368	24582
825.508	24642
825.648	24650
825.787	24601
825.927	24791
826.067	24566
826.206	24711
826.346	24730
826.485	24555
826.625	24646
826.765	24749
826.904	24661
827.044	24490
827.183	24357
827.323	24273
827.462	24498
827.601	24467
827.741	24452
827.88	24346
828.02	24224
828.159	24319
828.298	24426
828.437	24410
828.577	24296
828.716	24357
828.855	24258
828.994	24155
829.134	24171
829.273	24258
829.412	24003
829.551	24049
829.69	24034
829.829	24190
829.968	24091
830.107	24152
830.246	24114
830.385	24015
830.524	23969
830.663	23794
830.802	23718
830.941	23745
831.08	23676
831.219	23805
831.357	23775
831.496	23992
831.635	23608
831.774	23573
831.913	23558
832.051	23505
832.19	23433
832.329	23410
832.467	23440
832.606	23284
832.744	23265
832.883	23337
833.022	23162
833.16	23444
833.299	23417
833.437	23368
833.576	23376
833.714	23387
833.852	23455
833.991	23478
834.129	23554
834.267	23516
834.406	23562
834.544	23482
834.682	23296
834.821	23482
834.959	23604
835.097	23444
835.235	23524
835.373	23406
835.511	23414
835.65	23360
835.788	23402
835.926	23242
836.064	23223
836.202	23178
836.34	23356
836.478	23356
836.615	23334
836.753	23356
836.891	23288
837.029	23231
837.167	23280
837.305	23193
837.443	23216
837.58	23200
837.718	23079
837.856	23174
837.993	23117
838.131	23136
838.269	22968
838.406	23048
838.544	23010
838.681	22915
838.819	22854
838.956	22596
839.094	22679
839.231	22729
839.369	22771
839.506	22919
839.643	22919
839.781	22519
839.918	22497
840.055	22573
840.193	22535
840.33	22542
840.467	22630
840.604	22607
840.742	22847
840.879	22398
841.016	22413
841.153	22386
841.29	22637
841.427	22535
841.564	22512
841.701	22584
841.838	22504
841.975	22618
842.112	22512
842.249	22443
842.385	22382
842.522	22577
842.659	22360
842.796	22246
842.933	22337
843.069	22363
843.206	22268
843.343	22455
843.479	22188
843.616	22386
843.752	22162
843.889	22169
844.025	22219
844.162	22166
844.298	22185
844.435	22086
844.571	22105
844.708	22082
844.844	22238
844.98	22230
845.117	22177
845.253	22116
845.389	21945
845.525	22101
845.661	21884
845.798	21880
845.934	21880
846.07	21922
846.206	21915
846.342	21998
846.478	21819
846.614	21747
846.75	21473
846.886	21622
847.022	21690
847.158	21682
847.294	21511
847.429	21553
847.565	21534
847.701	21770
847.837	21431
847.972	21192
848.108	21329
848.244	21450
848.379	21165
848.515	21089
848.65	21146
848.786	21138
848.921	21237
849.057	21287
849.192	21272
849.328	21188
849.463	21116
849.598	21161
849.734	21131
849.869	20998
850.004	20944
850.14	20982
850.275	21017
850.41	20899
850.545	20948
850.68	20899
850.815	20956
850.95	20899
851.085	21066
851.22	20998
851.355	21039
851.49	20842
851.625	20910
851.76	20830
851.895	20937
852.03	20864
852.165	20944
852.299	20868
852.434	21017
852.569	20956
852.703	20979
852.838	21017
852.973	21180
853.107	20982
853.242	20853
853.376	20788
853.511	20750
853.645	20682
853.78	20861
853.914	20705
854.048	20731
854.183	20777
854.317	20868
854.451	21047
854.585	20811
854.72	20800
854.854	20868
854.988	20716
855.122	20724
855.256	20473
855.39	20750
855.524	20899
855.658	20796
855.792	20804
855.926	20807
856.06	20785
856.194	20861
856.327	20773
856.461	20670
856.595	20655
856.729	20712
856.862	20925
856.996	20746
857.13	20705
857.263	20921
857.397	20769
857.53	20701
857.664	20762
857.797	20758
857.931	20777
858.064	20781
858.197	20876
858.331	20868
858.464	20735
858.597	20651
858.731	20834
858.864	20697
858.997	20762
859.13	20823
859.263	20777
859.396	20887
859.529	20823
859.662	20667
859.795	20731
859.928	20853
860.061	20956
860.194	20929
860.327	20811
860.46	20769
860.592	20849
860.725	20906
860.858	20868
860.99	20834
861.123	20678
861.256	20785
861.388	20807
861.521	21469
861.653	20629
861.786	20583
861.918	20598
862.05	20727
862.183	20655
862.315	20754
862.447	20701
862.58	20731
862.712	20541
862.844	20377
862.976	20587
863.108	20537
863.24	20826
863.372	20434
863.504	20324
863.636	20351
863.768	20488
863.9	20438
864.032	20332
864.164	20469
864.296	20419
864.428	20587
864.559	20602
864.691	20537
864.823	20454
864.954	20480
865.086	20389
865.217	20381
865.349	20336
865.48	20237
865.612	20377
865.743	20473
865.875	20434
866.006	20374
866.137	20400
866.269	20298
866.4	20355
866.531	20332
866.662	20381
866.793	20389
866.924	20282
867.055	20374
867.186	20240
867.317	20320
867.448	20263
867.579	20313
867.71	20214
867.841	20317
867.972	20343
868.103	20324
868.233	20237
868.364	20339
868.495	20358
868.625	20590
868.756	20769
868.886	20469
869.017	20575
869.147	20598
869.278	20708
869.408	20587
869.539	20549
869.669	20602
869.799	20621
869.929	20613
870.06	20720
870.19	20971
870.32	20788
870.45	20891
870.58	20979
870.71	21024
870.84	21116
870.97	20967
871.1	20941
871.23	21051
871.36	21100
871.489	21108
871.619	21226
871.749	21199
871.879	21283
872.008	21260
872.138	21119
872.267	21165
872.397	21036
872.526	20994
872.656	21051
872.785	20960
872.915	21062
873.044	21260
873.173	21214
873.303	21222
873.432	21310
873.561	21214
873.69	21260
873.819	21165
873.948	21370
874.077	21230
874.206	21154
874.335	21184
874.464	21272
874.593	21382
874.722	21359
874.851	21359
874.979	21507
875.108	21492
875.237	21351
875.365	21310
875.494	21519
875.623	21428
875.751	21382
875.88	21374
876.008	21633
876.136	21610
876.265	21876
876.393	21895
876.521	21880
876.65	21766
876.778	21827
876.906	21800
877.034	21823
877.162	21842
877.29	21667
877.418	21880
877.546	21728
877.674	21759
877.802	21781
877.93	21641
878.058	21816
878.185	21701
878.313	21804
878.441	21713
878.568	21656
878.696	21838
878.824	21895
878.951	21903
879.079	21987
879.206	22040
879.333	21968
879.461	21846
879.588	21998
879.715	21983
879.842	21994
879.97	21781
880.097	21629
880.224	21610
880.351	21667
880.478	21679
880.605	21587
880.732	21644
880.859	21842
880.986	21663
881.112	21671
881.239	21401
881.366	21291
881.493	21310
881.619	21245
881.746	21252
881.872	21313
881.999	21104
882.125	21207
882.252	21188
882.378	21211
882.505	21302
882.631	21024
882.757	20925
882.883	20986
883.01	20899
883.136	20735
883.262	20724
883.388	20765
883.514	20990
883.64	20986
883.766	20785
883.892	20686
884.018	20693
884.143	20826
884.269	20857
884.395	20640
884.52	20571
884.646	20583
884.772	20560
884.897	20381
885.023	20571
885.148	20617
885.274	20788
885.399	20602
885.524	20625
885.65	20537
885.775	20530
885.9	20613
886.025	20655
886.15	20636
886.275	20522
886.4	20366
886.525	20454
886.65	20488
886.775	20332
886.9	20636
887.025	20689
887.149	20549
887.274	20305
887.399	20240
887.523	20301
887.648	20191
887.773	20199
887.897	20343
888.021	20332
888.146	20240
888.27	20396
888.395	20381
888.519	20313
888.643	20362
888.767	20389
888.891	20237
889.015	20187
889.139	20164
889.263	20050
889.387	20328
889.511	20320
889.635	20263
889.759	20062
889.883	20092
890.006	20058
890.13	20119
890.254	20065
890.377	20130
890.501	19894
890.624	19852
890.748	19860
890.871	19750
890.995	19624
891.118	19639
891.241	19704
891.364	19616
891.488	19723
891.611	19700
891.734	19689
891.857	19715
891.98	19723
892.103	19670
892.226	19753
892.349	19734
892.471	19582
892.594	19700
892.717	19761
892.839	19700
892.962	19632
893.085	19647
893.207	19521
893.33	19430
893.452	19525
893.575	19624
893.697	19597
893.819	19818
893.941	19795
894.064	19685
894.186	19552
894.308	19559
894.43	19658
894.552	19723
894.674	19788
894.796	19712
894.918	19632
895.04	19658
895.161	19658
895.283	19662
895.405	19597
895.526	19537
895.648	19594
895.769	19765
895.891	19727
896.012	19784
896.134	19628
896.255	19506
896.376	19597
896.498	19727
896.619	19719
896.74	19613
896.861	19670
896.982	19940
897.103	20145
897.224	19978
897.345	19807
897.466	19807
897.587	19757
897.708	19921
897.828	19883
897.949	19780
898.07	19655
898.19	19742
898.311	19890
898.431	19849
898.552	19814
898.672	19894
898.792	19932
898.913	19982
899.033	19685
899.153	19681
899.273	19495
899.393	19548
899.513	19609
899.633	19651
899.753	19742
899.873	19464
899.993	19540
900.113	19597
900.232	19544
900.352	19559
900.472	19468
900.591	19365
900.711	19480
900.83	19377
900.95	19556
901.069	19544
901.189	19247
901.308	18977
901.427	18958
901.546	18973
901.665	18973
901.784	19046
901.904	18688
902.023	18741
902.141	18483
902.26	18422
902.379	18479
902.498	18490
902.617	18376
902.735	18471
902.854	18475
902.973	18281
903.091	18232
903.21	18133
903.328	18095
903.446	18034
903.565	18026
903.683	17889
903.801	17912
903.919	17927
904.038	17923
904.156	17824
904.274	17863
904.392	17714
904.51	17649
904.627	17775
904.745	17882
904.863	17737
904.981	17611
905.098	17493
905.216	17524
905.334	17471
905.451	17440
905.569	17368
905.686	17463
905.803	17467
905.921	17113
906.038	17261
906.155	17128
906.272	17174
906.389	17200
906.506	16957
906.623	17033
906.74	16953
906.857	16892
906.974	16824
907.091	16915
907.208	17162
907.324	17018
907.441	16824
907.557	16771
907.674	16786
907.79	16626
907.907	16668
908.023	16694
908.139	16599
908.256	16744
908.372	16573
908.488	16516
908.604	16413
908.72	16428
908.836	16474
908.952	16398
909.068	16421
909.184	16470
909.3	16360
909.415	16443
909.531	16341
909.647	16090
909.762	16131
909.878	16105
909.993	16093
910.108	16059
910.224	16090
910.339	16147
910.454	15991
910.57	15899
910.685	15895
910.8	16181
910.915	16036
911.03	16021
911.145	15819
911.259	15789
911.374	15686
911.489	15694
911.604	15614
911.718	15481
911.833	15454
911.947	15466
912.062	15389
912.176	15492
912.291	15458
912.405	15477
912.519	15587
912.633	15622
912.748	15485
912.862	15420
912.976	15355
913.09	15211
913.204	15249
913.318	15359
913.431	15443
913.545	15370
913.659	15302
913.772	15188
913.886	15123
914	15135
914.113	15222
914.226	15142
914.34	15123
914.453	15081
914.566	15207
914.68	15047
914.793	14921
914.906	14815
915.019	14769
915.132	14678
915.245	14762
915.358	14716
915.47	14773
915.583	14617
915.696	14743
915.809	14883
915.921	14830
916.034	14724
916.146	14678
916.259	14625
916.371	14693
916.483	14670
916.595	14533
916.708	14610
916.82	14522
916.932	14514
917.044	14476
917.156	14537
917.268	14415
917.38	14385
917.491	14465
917.603	14408
917.715	14457
917.826	14473
917.938	14336
918.049	14328
918.161	14370
918.272	14495
918.384	14473
918.495	14339
918.606	14161
918.717	14172
918.828	14244
918.939	14229
919.05	14164
919.161	14103
919.272	13959
919.383	14027
919.494	14240
919.604	14358
919.715	14043
919.826	14058
919.936	14012
920.047	14176
920.157	14142
920.267	14339
920.378	14168
920.488	14035
920.598	14324
920.708	14431
920.818	14286
920.928	14282
921.038	14507
921.148	14355
921.258	14134
921.368	14039
921.477	13849
921.587	13959
921.697	13727
921.806	13898
921.916	13784
922.025	13651
922.134	13597
922.244	13533
922.353	13544
922.462	13453
922.571	13400
922.68	13251
922.789	13110
922.898	13209
923.007	13164
923.116	13228
923.224	13133
923.333	13129
923.442	13084
923.55	13012
923.659	12916
923.767	12996
923.876	12954
923.984	12966
924.092	12886
924.201	12973
924.309	12897
924.417	12928
924.525	12909
924.633	12863
924.741	13761
924.849	12593
924.956	12764
925.064	12585
925.172	12566
925.279	12608
925.387	12616
925.494	12623
925.602	12719
925.709	12642
925.816	12517
925.924	12486
926.031	12608
926.138	12426
926.245	12639
926.352	12494
926.459	12616
926.566	12627
926.673	12433
926.779	12315
926.886	12277
926.993	12220
927.099	12129
927.206	12194
927.312	12095
927.419	12197
927.525	12072
927.631	12167
927.737	12098
927.843	12110
927.95	11965
928.056	12011
928.162	12121
928.267	12125
928.373	12547
928.479	12072
928.585	11840
928.69	11950
928.796	11969
928.901	11866
929.007	11764
929.112	11882
929.218	11790
929.323	11813
929.428	11813
929.533	11836
929.638	11646
929.743	11745
929.848	11752
929.953	11684
930.058	11444
930.163	11490
930.267	11482
930.372	11661
930.477	11433
930.581	11638
930.685	11486
930.79	11318
930.894	11280
930.998	11189
931.103	11474
931.207	11022
931.311	11003
931.415	10942
931.519	10790
931.623	10721
