Data from test_V78500241_1536.txt Node
Date: Fri Mar 25 15:20:33 CST 2022
User: usil
Spectrometer: V785-0024
Trigger mode: 0
Integration Time (sec): 4.000000E-1
Scans to average: 1
Nonlinearity correction enabled: false
Boxcar width: 0
Storing dark spectrum: false
XAxis mode: Wavelengths
Number of Pixels in Spectrum: 1024
>>>>>Begin Spectral Data<<<<<
801.071	28120
801.214	27968
801.356	27778
801.499	27831
801.641	27682
801.783	27652
801.926	27743
802.068	27652
802.211	27587
802.353	27485
802.496	27504
802.638	27245
802.78	27340
802.923	27291
803.065	27260
803.208	27287
803.35	27458
803.492	27485
803.635	27496
803.777	27412
803.919	27526
804.061	27846
804.204	27534
804.346	27431
804.488	27469
804.63	27557
804.773	27435
804.915	27523
805.057	27686
805.199	27542
805.341	27637
805.483	27873
805.626	27774
805.768	27644
805.91	27633
806.052	27698
806.194	27603
806.336	27774
806.478	27698
806.62	27557
806.762	27720
806.904	27941
807.046	28276
807.188	28177
807.33	28097
807.472	28078
807.614	28074
807.756	28082
807.898	28021
808.04	27983
808.182	27953
808.324	27964
808.465	28051
808.607	28253
808.749	28299
808.891	28466
809.033	28508
809.174	28405
809.316	28474
809.458	28215
809.6	28322
809.741	28459
809.883	28459
810.025	28729
810.166	28683
810.308	28599
810.45	28455
810.591	28516
810.733	28390
810.875	28447
811.016	28067
811.158	28303
811.299	28333
811.441	28390
811.582	28451
811.724	28249
811.865	28344
812.007	28356
812.148	28265
812.29	28398
812.431	28588
812.573	28736
812.714	28729
812.855	28915
812.997	28965
813.138	29170
813.279	28908
813.421	28847
813.562	28824
813.703	28672
813.845	28569
813.986	28322
814.127	28063
814.268	28147
814.41	28112
814.551	27907
814.692	28185
814.833	27975
814.974	28101
815.115	28242
815.256	27968
815.397	27937
815.539	28051
815.68	27835
815.821	27690
815.962	27755
816.103	27667
816.244	27564
816.385	27526
816.526	27545
816.666	27378
816.807	27211
816.948	27275
817.089	27443
817.23	27340
817.371	27226
817.512	27287
817.653	27199
817.793	27298
817.934	27256
818.075	27332
818.216	27302
818.356	27344
818.497	27131
818.638	26940
818.778	27112
818.919	27173
819.06	27131
819.2	27279
819.341	27237
819.481	27386
819.622	27526
819.762	27694
819.903	27564
820.043	27557
820.184	27488
820.324	27386
820.465	27542
820.605	27424
820.746	27481
820.886	27416
821.026	27344
821.167	27401
821.307	27427
821.447	27294
821.588	27397
821.728	27085
821.868	26952
822.008	26834
822.149	26849
822.289	26670
822.429	26568
822.569	26446
822.709	26533
822.849	26328
822.99	26450
823.13	26252
823.27	26088
823.41	26065
823.55	26043
823.69	26210
823.83	26233
823.97	26081
824.11	25970
824.25	25830
824.389	25890
824.529	25947
824.669	25936
824.809	26119
824.949	26008
825.089	26058
825.228	26035
825.368	25772
825.508	25955
825.648	25822
825.787	25902
825.927	25928
826.067	25845
826.206	25742
826.346	25860
826.485	25944
826.625	25708
826.765	25944
826.904	25788
827.044	25525
827.183	25529
827.323	25597
827.462	25567
827.601	25430
827.741	25430
827.88	25537
828.02	25422
828.159	25613
828.298	25426
828.437	25540
828.577	25594
828.716	25457
828.855	25453
828.994	25251
829.134	25228
829.273	25274
829.412	25346
829.551	25099
829.69	25244
829.829	25358
829.968	25400
830.107	25270
830.246	25251
830.385	25107
830.524	25057
830.663	25183
830.802	24951
830.941	24863
831.08	24658
831.219	24977
831.357	24795
831.496	25027
831.635	24909
831.774	24901
831.913	24764
832.051	24700
832.19	24669
832.329	24578
832.467	24433
832.606	24486
832.744	24429
832.883	24464
833.022	24464
833.16	24464
833.299	24646
833.437	24494
833.576	24601
833.714	24471
833.852	24574
833.991	24696
834.129	24551
834.267	24646
834.406	24612
834.544	24692
834.682	24711
834.821	24585
834.959	24795
835.097	24604
835.235	24585
835.373	24597
835.511	24582
835.65	24479
835.788	24384
835.926	24254
836.064	24152
836.202	24167
836.34	24410
836.478	24422
836.615	24372
836.753	24376
836.891	24525
837.029	24445
837.167	24418
837.305	24311
837.443	24243
837.58	24201
837.718	24258
837.856	24171
837.993	24117
838.131	24159
838.269	24102
838.406	24064
838.544	23942
838.681	23885
838.819	23832
838.956	23687
839.094	23710
839.231	23775
839.369	23847
839.506	24034
839.643	24053
839.781	23745
839.918	23608
840.055	23657
840.193	23710
840.33	23608
840.467	23676
840.604	23573
840.742	23897
840.879	23463
841.016	23490
841.153	23493
841.29	23573
841.427	23573
841.564	23589
841.701	23668
841.838	23478
841.975	23531
842.112	23368
842.249	23421
842.385	23341
842.522	23554
842.659	23444
842.796	23303
842.933	23261
843.069	23296
843.206	23318
843.343	23520
843.479	23356
843.616	23410
843.752	23178
843.889	23231
844.025	23376
844.162	23113
844.298	23261
844.435	23193
844.571	23079
844.708	23288
844.844	23220
844.98	23364
845.117	23269
845.253	23109
845.389	23037
845.525	23060
845.661	22881
845.798	22881
845.934	22919
846.07	22873
846.206	22885
846.342	22942
846.478	22809
846.614	22816
846.75	22481
846.886	22409
847.022	22637
847.158	22717
847.294	22508
847.429	22675
847.565	22603
847.701	22771
847.837	22363
847.972	22207
848.108	22367
848.244	22322
848.379	22109
848.515	22226
848.65	22188
848.786	22135
848.921	22249
849.057	22413
849.192	22306
849.328	22238
849.463	22226
849.598	22150
849.734	22044
849.869	22147
850.004	21960
850.14	22051
850.275	22078
850.41	21804
850.545	21846
850.68	21884
850.815	22051
850.95	21880
851.085	22029
851.22	22051
851.355	22048
851.49	21987
851.625	21972
851.76	21880
851.895	21873
852.03	21701
852.165	21915
852.299	22090
852.434	21983
852.569	22021
852.703	21930
852.838	21975
852.973	22158
853.107	22158
853.242	21960
853.376	21778
853.511	21660
853.645	21625
853.78	21865
853.914	21797
854.048	21823
854.183	21755
854.317	21892
854.451	22029
854.585	21797
854.72	21781
854.854	21960
854.988	21625
855.122	21637
855.256	21534
855.39	21797
855.524	21972
855.658	21945
855.792	21789
855.926	21774
856.06	21797
856.194	21876
856.327	21781
856.461	21766
856.595	21709
856.729	21698
856.862	21804
856.996	21861
857.13	21785
857.263	21835
857.397	21835
857.53	21603
857.664	21755
857.797	21774
857.931	21819
858.064	21732
858.197	21854
858.331	21618
858.464	21686
858.597	21709
858.731	21736
858.864	21766
858.997	21743
859.13	21781
859.263	21774
859.396	21903
859.529	21732
859.662	21762
859.795	21709
859.928	21781
860.061	21854
860.194	22002
860.327	21835
860.46	21930
860.592	21926
860.725	21918
860.858	21892
860.99	21778
861.123	21622
861.256	21728
861.388	21686
861.521	22398
861.653	21591
861.786	21557
861.918	21576
862.05	21663
862.183	21675
862.315	21747
862.447	21644
862.58	21667
862.712	21443
862.844	21348
862.976	21576
863.108	21648
863.24	21861
863.372	21405
863.504	21405
863.636	21450
863.768	21504
863.9	21386
864.032	21389
864.164	21447
864.296	21473
864.428	21469
864.559	21599
864.691	21492
864.823	21542
864.954	21447
865.086	21424
865.217	21485
865.349	21222
865.48	21382
865.612	21302
865.743	21424
865.875	21424
866.006	21283
866.137	21336
866.269	21313
866.4	21275
866.531	21180
866.662	21336
866.793	21211
866.924	21329
867.055	21313
867.186	21275
867.317	21291
867.448	21275
867.579	21192
867.71	21169
867.841	21214
867.972	21336
868.103	21214
868.233	21256
868.364	21249
868.495	21359
868.625	21363
868.756	21629
868.886	21542
869.017	21545
869.147	21504
869.278	21713
869.408	21511
869.539	21660
869.669	21561
869.799	21557
869.929	21492
870.06	21629
870.19	21892
870.32	21720
870.45	21812
870.58	21907
870.71	21884
870.84	22105
870.97	21926
871.1	21823
871.23	22051
871.36	22177
871.489	22025
871.619	22131
871.749	22120
871.879	22032
872.008	22272
872.138	22109
872.267	22177
872.397	22040
872.526	21895
872.656	21994
872.785	21861
872.915	22135
873.044	22249
873.173	22086
873.303	22223
873.432	22150
873.561	22226
873.69	22169
873.819	22048
873.948	22306
874.077	22120
874.206	22116
874.335	22120
874.464	22207
874.593	22398
874.722	22348
874.851	22348
874.979	22318
875.108	22546
875.237	22211
875.365	22284
875.494	22314
875.623	22417
875.751	22287
875.88	22405
876.008	22462
876.136	22443
876.265	22797
876.393	22889
876.521	22679
876.65	22915
876.778	22824
876.906	22702
877.034	22626
877.162	22713
877.29	22653
877.418	22668
877.546	22660
877.674	22637
877.802	22626
877.93	22664
878.058	22626
878.185	22611
878.313	22611
878.441	22672
878.568	22478
878.696	22592
878.824	22634
878.951	22649
879.079	22877
879.206	22949
879.333	22873
879.461	22687
879.588	22736
879.715	22816
879.842	22866
879.97	22713
880.097	22489
880.224	22615
880.351	22538
880.478	22554
880.605	22443
880.732	22542
880.859	22630
880.986	22603
881.112	22546
881.239	22337
881.366	22211
881.493	22177
881.619	22021
881.746	22078
881.872	22059
881.999	21979
882.125	22139
882.252	22154
882.378	22070
882.505	22109
882.631	21895
882.757	21785
882.883	21869
883.01	21671
883.136	21785
883.262	21701
883.388	21648
883.514	21724
883.64	21835
883.766	21701
883.892	21583
884.018	21542
884.143	21557
884.269	21835
884.395	21439
884.52	21519
884.646	21485
884.772	21317
884.897	21237
885.023	21348
885.148	21500
885.274	21568
885.399	21348
885.524	21370
885.65	21405
885.775	21306
885.9	21370
886.025	21534
886.15	21500
886.275	21367
886.4	21287
886.525	21351
886.65	21310
886.775	21488
886.9	21462
887.025	21641
887.149	21469
887.274	21272
887.399	21165
887.523	21192
887.648	21096
887.773	21062
887.897	21264
888.021	21184
888.146	21192
888.27	21180
888.395	21313
888.519	21195
888.643	21169
888.767	21176
888.891	21089
889.015	20952
889.139	20933
889.263	20979
889.387	21100
889.511	21085
889.635	21154
889.759	20811
889.883	20982
890.006	20986
890.13	21100
890.254	20918
890.377	20857
890.501	20701
890.624	20689
890.748	20819
890.871	20720
890.995	20587
891.118	20503
891.241	20602
891.364	20549
891.488	20663
891.611	20564
891.734	20495
891.857	20545
891.98	20564
892.103	20564
892.226	20545
892.349	20431
892.471	20385
892.594	20461
892.717	20423
892.839	20389
892.962	20320
893.085	20461
893.207	20469
893.33	20271
893.452	20473
893.575	20442
893.697	20499
893.819	20522
893.941	20511
894.064	20602
894.186	20385
894.308	20290
894.43	20568
894.552	20568
894.674	20427
894.796	20351
894.918	20450
895.04	20347
895.161	20537
895.283	20514
895.405	20355
895.526	20438
895.648	20381
895.769	20366
895.891	20518
896.012	20427
896.134	20446
896.255	20412
896.376	20366
896.498	20389
896.619	20374
896.74	20465
896.861	20609
896.982	20655
897.103	20815
897.224	20644
897.345	20682
897.466	20583
897.587	20568
897.708	20743
897.828	20716
897.949	20617
898.07	20537
898.19	20598
898.311	20758
898.431	20575
898.552	20663
898.672	20701
898.792	20693
898.913	20689
899.033	20537
899.153	20533
899.273	20370
899.393	20442
899.513	20400
899.633	20393
899.753	20396
899.873	20328
899.993	20347
900.113	20259
900.232	20366
900.352	20324
900.472	20111
900.591	20145
900.711	20195
900.83	20054
900.95	20183
901.069	20225
901.189	20100
901.308	19799
901.427	19803
901.546	19704
901.665	19632
901.784	19807
901.904	19525
902.023	19430
902.141	19304
902.26	19339
902.379	19400
902.498	19209
902.617	19225
902.735	19331
902.854	19228
902.973	19103
903.091	18882
903.21	18970
903.328	18814
903.446	18738
903.565	18764
903.683	18840
903.801	18665
903.919	18658
904.038	18616
904.156	18418
904.274	18433
904.392	18593
904.51	18555
904.627	18429
904.745	18566
904.863	18551
904.981	18247
905.098	18133
905.216	18201
905.334	18197
905.451	18140
905.569	18060
905.686	18186
905.803	18095
905.921	17897
906.038	18152
906.155	17980
906.272	17836
906.389	17882
906.506	17771
906.623	17786
906.74	17760
906.857	17528
906.974	17562
907.091	17786
907.208	17760
907.324	17653
907.441	17505
907.557	17471
907.674	17391
907.79	17356
907.907	17303
908.023	17395
908.139	17406
908.256	17258
908.372	17235
908.488	17265
908.604	17124
908.72	17033
908.836	17094
908.952	17022
909.068	17178
909.184	17250
909.3	17056
909.415	17037
909.531	17102
909.647	16812
909.762	16877
909.878	16710
909.993	16748
910.108	16759
910.224	16683
910.339	16786
910.454	16656
910.57	16668
910.685	16508
910.8	16797
910.915	16847
911.03	16573
911.145	16455
911.259	16363
911.374	16356
911.489	16394
911.604	16242
911.718	16154
911.833	16124
911.947	16002
912.062	15960
912.176	16147
912.291	16181
912.405	16128
912.519	16344
912.633	16325
912.748	16082
912.862	16158
912.976	16021
913.09	15755
913.204	15873
913.318	16029
913.431	16021
913.545	15979
913.659	16082
913.772	15934
913.886	15743
914	15827
914.113	15835
914.226	15915
914.34	15797
914.453	15747
914.566	15800
914.68	15591
914.793	15625
914.906	15443
915.019	15405
915.132	15294
915.245	15378
915.358	15344
915.47	15378
915.583	15374
915.696	15393
915.809	15431
915.921	15416
916.034	15355
916.146	15222
916.259	15154
916.371	15389
916.483	15287
916.595	15150
916.708	15195
916.82	15188
916.932	15192
917.044	15176
917.156	15062
917.268	14967
917.38	15116
917.491	14956
917.603	15070
917.715	15116
917.826	15119
917.938	14887
918.049	14800
918.161	14933
918.272	15074
918.384	15013
918.495	14899
918.606	14857
918.717	14648
918.828	14868
918.939	14720
919.05	14644
919.161	14769
919.272	14473
919.383	14632
919.494	14731
919.604	14883
919.715	14716
919.826	14610
919.936	14651
920.047	14739
920.157	14667
920.267	14815
920.378	14716
920.488	14754
920.598	14800
920.708	15100
920.818	14880
920.928	14857
921.038	14929
921.148	14876
921.258	14560
921.368	14492
921.477	14480
921.587	14499
921.697	14412
921.806	14438
921.916	14309
922.025	14103
922.134	14092
922.244	14046
922.353	14020
922.462	14012
922.571	13868
922.68	13791
922.789	13674
922.898	13772
923.007	13636
923.116	13788
923.224	13734
923.333	13655
923.442	13529
923.55	13540
923.659	13540
923.767	13521
923.876	13502
923.984	13586
924.092	13350
924.201	13430
924.309	13487
924.417	13388
924.525	13396
924.633	13381
924.741	14149
924.849	13183
924.956	13285
925.064	13145
925.172	13080
925.279	13065
925.387	13133
925.494	13095
925.602	13179
925.709	13053
925.816	12954
925.924	13046
926.031	13080
926.138	13088
926.245	13175
926.352	12909
926.459	13015
926.566	13137
926.673	12947
926.779	12863
926.886	12871
926.993	12764
927.099	12719
927.206	12662
927.312	12627
927.419	12726
927.525	12684
927.631	12783
927.737	12551
927.843	12578
927.95	12391
928.056	12513
928.162	12506
928.267	12593
928.373	13209
928.479	12536
928.585	12281
928.69	12471
928.796	12540
928.901	12338
929.007	12201
929.112	12376
929.218	12273
929.323	12285
929.428	12292
929.533	12315
929.638	12205
929.743	12140
929.848	12205
929.953	12167
930.058	12068
930.163	11847
930.267	11889
930.372	11958
930.477	11779
930.581	12015
930.685	11988
930.79	11843
930.894	11980
930.998	11684
931.103	11901
931.207	11562
931.311	11471
931.415	11337
931.519	11181
931.623	11170
