Data from test_V78500241_3597.txt Node
Date: Fri Mar 25 15:34:54 CST 2022
User: usil
Spectrometer: V785-0024
Trigger mode: 0
Integration Time (sec): 4.000000E-1
Scans to average: 1
Nonlinearity correction enabled: false
Boxcar width: 0
Storing dark spectrum: false
XAxis mode: Wavelengths
Number of Pixels in Spectrum: 1024
>>>>>Begin Spectral Data<<<<<
801.071	27157
801.214	27123
801.356	27009
801.499	26796
801.641	26807
801.783	26826
801.926	26857
802.068	26765
802.211	26758
802.353	26640
802.496	26590
802.638	26419
802.78	26427
802.923	26313
803.065	26294
803.208	26370
803.35	26385
803.492	26640
803.635	26545
803.777	26419
803.919	26484
804.061	26925
804.204	26682
804.346	26427
804.488	26507
804.63	26480
804.773	26343
804.915	26549
805.057	26724
805.199	26541
805.341	26530
805.483	26625
805.626	26575
805.768	26617
805.91	26739
806.052	26678
806.194	26727
806.336	26838
806.478	26754
806.62	26636
806.762	26868
806.904	26872
807.046	27024
807.188	27169
807.33	27161
807.472	27032
807.614	27005
807.756	27009
807.898	26937
808.04	26781
808.182	26887
808.324	27093
808.465	27036
808.607	27264
808.749	27317
808.891	27389
809.033	27382
809.174	27310
809.316	27298
809.458	27211
809.6	27279
809.741	27389
809.883	27386
810.025	27545
810.166	27625
810.308	27526
810.45	27595
810.591	27496
810.733	27393
810.875	27294
811.016	27203
811.158	27203
811.299	27386
811.441	27450
811.582	27374
811.724	27256
811.865	27279
812.007	27207
812.148	27252
812.29	27389
812.431	27469
812.573	27542
812.714	27652
812.855	27781
812.997	27945
813.138	27937
813.279	27770
813.421	27819
813.562	27747
813.703	27549
813.845	27534
813.986	27089
814.127	27013
814.268	26834
814.41	26944
814.551	26998
814.692	26982
814.833	26815
814.974	26925
815.115	26918
815.256	26788
815.397	26800
815.539	26857
815.68	26842
815.821	26571
815.962	26735
816.103	26739
816.244	26476
816.385	26530
816.526	26450
816.666	26286
816.807	26229
816.948	26320
817.089	26332
817.23	26191
817.371	26252
817.512	26168
817.653	26195
817.793	26176
817.934	26096
818.075	26145
818.216	26259
818.356	26229
818.497	26180
818.638	25944
818.778	25894
818.919	25932
819.06	26012
819.2	26043
819.341	26259
819.481	26126
819.622	26343
819.762	26465
819.903	26522
820.043	26374
820.184	26393
820.324	26267
820.465	26385
820.605	26210
820.746	26233
820.886	26282
821.026	26202
821.167	26206
821.307	26256
821.447	26202
821.588	26168
821.728	25951
821.868	25826
822.008	25681
822.149	25708
822.289	25540
822.429	25434
822.569	25434
822.709	25403
822.849	25137
822.99	25217
823.13	25076
823.27	25168
823.41	25031
823.55	24886
823.69	25065
823.83	24981
823.97	24951
824.11	24829
824.25	24802
824.389	24798
824.529	24856
824.669	24935
824.809	24916
824.949	24840
825.089	24992
825.228	24814
825.368	24635
825.508	24692
825.648	24768
825.787	24631
825.927	24802
826.067	24601
826.206	24639
826.346	24753
826.485	24745
826.625	24776
826.765	24703
826.904	24715
827.044	24490
827.183	24521
827.323	24327
827.462	24330
827.601	24403
827.741	24437
827.88	24429
828.02	24289
828.159	24308
828.298	24494
828.437	24498
828.577	24319
828.716	24475
828.855	24254
828.994	24144
829.134	24216
829.273	24133
829.412	24129
829.551	24076
829.69	24068
829.829	24174
829.968	24247
830.107	24235
830.246	24083
830.385	24194
830.524	23980
830.663	23954
830.802	23904
830.941	23760
831.08	23710
831.219	23745
831.357	23752
831.496	23999
831.635	23733
831.774	23558
831.913	23642
832.051	23520
832.19	23299
832.329	23471
832.467	23482
832.606	23296
832.744	23398
832.883	23436
833.022	23448
833.16	23353
833.299	23440
833.437	23452
833.576	23414
833.714	23433
833.852	23535
833.991	23608
834.129	23611
834.267	23615
834.406	23497
834.544	23528
834.682	23463
834.821	23440
834.959	23611
835.097	23566
835.235	23535
835.373	23493
835.511	23539
835.65	23459
835.788	23345
835.926	23208
836.064	23151
836.202	23197
836.34	23315
836.478	23425
836.615	23398
836.753	23345
836.891	23368
837.029	23292
837.167	23463
837.305	23147
837.443	23265
837.58	23269
837.718	23292
837.856	23200
837.993	23220
838.131	23075
838.269	22984
838.406	23056
838.544	22961
838.681	22908
838.819	22698
838.956	22596
839.094	22706
839.231	22740
839.369	22908
839.506	23006
839.643	22927
839.781	22744
839.918	22580
840.055	22664
840.193	22519
840.33	22561
840.467	22615
840.604	22710
840.742	22904
840.879	22405
841.016	22462
841.153	22584
841.29	22725
841.427	22622
841.564	22733
841.701	22561
841.838	22481
841.975	22474
842.112	22542
842.249	22470
842.385	22466
842.522	22580
842.659	22462
842.796	22447
842.933	22352
843.069	22306
843.206	22314
843.343	22382
843.479	22276
843.616	22447
843.752	22067
843.889	22143
844.025	22158
844.162	22124
844.298	22238
844.435	22029
844.571	22051
844.708	22185
844.844	22242
844.98	22242
845.117	22223
845.253	22044
845.389	21892
845.525	22021
845.661	21994
845.798	21808
845.934	21899
846.07	21857
846.206	21892
846.342	21960
846.478	21842
846.614	21724
846.75	21618
846.886	21557
847.022	21633
847.158	21614
847.294	21682
847.429	21625
847.565	21603
847.701	21797
847.837	21317
847.972	21230
848.108	21412
848.244	21351
848.379	21161
848.515	21214
848.65	21074
848.786	21355
848.921	21146
849.057	21291
849.192	21393
849.328	21188
849.463	21157
849.598	21093
849.734	21165
849.869	21074
850.004	20971
850.14	21009
850.275	20975
850.41	20834
850.545	21028
850.68	20948
850.815	21020
850.95	20975
851.085	21058
851.22	21119
851.355	20986
851.49	20845
851.625	21043
851.76	20826
851.895	20861
852.03	20815
852.165	20941
852.299	21100
852.434	21055
852.569	20899
852.703	20906
852.838	21112
852.973	21123
853.107	21001
853.242	20921
853.376	20796
853.511	20613
853.645	20864
853.78	20918
853.914	20750
854.048	20823
854.183	20689
854.317	20674
854.451	21017
854.585	20807
854.72	20857
854.854	20880
854.988	20750
855.122	20765
855.256	20765
855.39	20796
855.524	20815
855.658	20826
855.792	20815
855.926	20788
856.06	20944
856.194	20842
856.327	20701
856.461	20689
856.595	20792
856.729	20785
856.862	20788
856.996	20906
857.13	20819
857.263	20830
857.397	20861
857.53	20739
857.664	20819
857.797	20891
857.931	20895
858.064	20815
858.197	20804
858.331	20785
858.464	20735
858.597	20689
858.731	20705
858.864	20781
858.997	20800
859.13	20876
859.263	20849
859.396	20788
859.529	20739
859.662	20807
859.795	20819
859.928	20807
860.061	20895
860.194	21009
860.327	20861
860.46	20731
860.592	20823
860.725	20914
860.858	20819
860.99	20830
861.123	20697
861.256	20705
861.388	20811
861.521	21701
861.653	20716
861.786	20537
861.918	20568
862.05	20762
862.183	20663
862.315	20769
862.447	20804
862.58	20746
862.712	20450
862.844	20533
862.976	20617
863.108	20526
863.24	20849
863.372	20396
863.504	20484
863.636	20545
863.768	20663
863.9	20499
864.032	20450
864.164	20442
864.296	20587
864.428	20644
864.559	20697
864.691	20556
864.823	20415
864.954	20526
865.086	20461
865.217	20427
865.349	20309
865.48	20355
865.612	20465
865.743	20575
865.875	20389
866.006	20362
866.137	20362
866.269	20385
866.4	20381
866.531	20370
866.662	20301
866.793	20480
866.924	20286
867.055	20305
867.186	20343
867.317	20362
867.448	20164
867.579	20328
867.71	20183
867.841	20324
867.972	20454
868.103	20320
868.233	20332
868.364	20377
868.495	20480
868.625	20552
868.756	20735
868.886	20518
869.017	20590
869.147	20716
869.278	20758
869.408	20587
869.539	20640
869.669	20644
869.799	20743
869.929	20613
870.06	20606
870.19	20781
870.32	20845
870.45	20906
870.58	20979
870.71	21100
870.84	21051
870.97	20941
871.1	20910
871.23	21066
871.36	21096
871.489	21039
871.619	21154
871.749	21252
871.879	21260
872.008	21344
872.138	21252
872.267	21135
872.397	21036
872.526	21093
872.656	21009
872.785	21039
872.915	21291
873.044	21275
873.173	21226
873.303	21355
873.432	21298
873.561	21370
873.69	21245
873.819	21154
873.948	21313
874.077	21165
874.206	21157
874.335	21127
874.464	21283
874.593	21450
874.722	21355
874.851	21473
874.979	21431
875.108	21454
875.237	21469
875.365	21302
875.494	21393
875.623	21553
875.751	21454
875.88	21447
876.008	21648
876.136	21587
876.265	21816
876.393	21975
876.521	21911
876.65	21975
876.778	21880
876.906	21720
877.034	21930
877.162	21808
877.29	21751
877.418	21808
877.546	21892
877.674	21812
877.802	21831
877.93	21857
878.058	21781
878.185	21564
878.313	21876
878.441	21823
878.568	21599
878.696	21785
878.824	21876
878.951	21960
879.079	22051
879.206	22158
879.333	22013
879.461	21793
879.588	21987
879.715	22055
879.842	21998
879.97	21899
880.097	21606
880.224	21564
880.351	21663
880.478	21633
880.605	21553
880.732	21728
880.859	21823
880.986	21705
881.112	21679
881.239	21625
881.366	21359
881.493	21226
881.619	21169
881.746	21359
881.872	21233
881.999	21161
882.125	21146
882.252	21302
882.378	21184
882.505	21336
882.631	20952
882.757	21058
882.883	20971
883.01	20921
883.136	20880
883.262	20861
883.388	20640
883.514	20960
883.64	20963
883.766	20769
883.892	20686
884.018	20678
884.143	20838
884.269	21017
884.395	20526
884.52	20602
884.646	20602
884.772	20484
884.897	20419
885.023	20507
885.148	20689
885.274	20727
885.399	20667
885.524	20454
885.65	20526
885.775	20602
885.9	20446
886.025	20705
886.15	20807
886.275	20454
886.4	20545
886.525	20571
886.65	20393
886.775	20503
886.9	20655
887.025	20773
887.149	20568
887.274	20454
887.399	20309
887.523	20317
887.648	20328
887.773	20290
887.897	20332
888.021	20355
888.146	20252
888.27	20484
888.395	20495
888.519	20389
888.643	20370
888.767	20374
888.891	20218
889.015	20130
889.139	20195
889.263	20180
889.387	20309
889.511	20362
889.635	20317
889.759	20218
889.883	20050
890.006	20103
890.13	20294
890.254	20107
890.377	20043
890.501	19944
890.624	19871
890.748	19951
890.871	19830
890.995	19807
891.118	19590
891.241	19780
891.364	19818
891.488	19932
891.611	19651
891.734	19689
891.857	19799
891.98	19833
892.103	19784
892.226	19776
892.349	19742
892.471	19601
892.594	19685
892.717	19658
892.839	19590
892.962	19674
893.085	19693
893.207	19662
893.33	19567
893.452	19552
893.575	19693
893.697	19689
893.819	19799
893.941	19814
894.064	19849
894.186	19643
894.308	19483
894.43	19826
894.552	19742
894.674	19822
894.796	19632
894.918	19788
895.04	19567
895.161	19685
895.283	19693
895.405	19651
895.526	19563
895.648	19586
895.769	19750
895.891	19666
896.012	19734
896.134	19750
896.255	19780
896.376	19518
896.498	19727
896.619	19666
896.74	19567
896.861	19689
896.982	20103
897.103	20134
897.224	20035
897.345	19906
897.466	19871
897.587	20001
897.708	20126
897.828	19970
897.949	19826
898.07	19746
898.19	19883
898.311	19963
898.431	19784
898.552	19982
898.672	19959
898.792	20119
898.913	19936
899.033	19860
899.153	19750
899.273	19491
899.393	19643
899.513	19681
899.633	19597
899.753	19719
899.873	19597
899.993	19601
900.113	19662
900.232	19620
900.352	19693
900.472	19460
900.591	19346
900.711	19392
900.83	19335
900.95	19529
901.069	19419
901.189	19148
901.308	19118
901.427	19137
901.546	19156
901.665	18962
901.784	19031
901.904	18932
902.023	18825
902.141	18555
902.26	18604
902.379	18684
902.498	18597
902.617	18650
902.735	18585
902.854	18555
902.973	18429
903.091	18190
903.21	18239
903.328	18201
903.446	18110
903.565	18057
903.683	18053
903.801	17813
903.919	18019
904.038	17988
904.156	17809
904.274	17866
904.392	17828
904.51	17703
904.627	17790
904.745	17874
904.863	17901
904.981	17570
905.098	17459
905.216	17463
905.334	17539
905.451	17512
905.569	17440
905.686	17524
905.803	17444
905.921	17250
906.038	17474
906.155	17246
906.272	17166
906.389	17147
906.506	17041
906.623	16968
906.74	17140
906.857	16923
906.974	16934
907.091	17083
907.208	17048
907.324	17086
907.441	16949
907.557	16873
907.674	16797
907.79	16729
907.907	16691
908.023	16736
908.139	16698
908.256	16637
908.372	16599
908.488	16592
908.604	16508
908.72	16558
908.836	16409
908.952	16405
909.068	16459
909.184	16512
909.3	16409
909.415	16470
909.531	16440
909.647	16169
909.762	16196
909.878	16188
909.993	16249
910.108	16196
910.224	16143
910.339	16166
910.454	15953
910.57	16006
910.685	15873
910.8	16124
910.915	16116
911.03	16021
911.145	15774
911.259	15778
911.374	15743
911.489	15682
911.604	15595
911.718	15485
911.833	15584
911.947	15443
912.062	15447
912.176	15447
912.291	15428
912.405	15458
912.519	15728
912.633	15641
912.748	15622
912.862	15507
912.976	15393
913.09	15291
913.204	15382
913.318	15450
913.431	15507
913.545	15416
913.659	15492
913.772	15268
913.886	15272
914	15055
914.113	15207
914.226	15310
914.34	15230
914.453	15055
914.566	15161
914.68	15028
914.793	14937
914.906	14967
915.019	14743
915.132	14670
915.245	14804
915.358	14845
915.47	14773
915.583	14815
915.696	14807
915.809	14876
915.921	14887
916.034	14670
916.146	14727
916.259	14674
916.371	14788
916.483	14689
916.595	14682
916.708	14617
916.82	14693
916.932	14488
917.044	14537
917.156	14533
917.268	14434
917.38	14507
917.491	14438
917.603	14431
917.715	14442
917.826	14522
917.938	14328
918.049	14256
918.161	14400
918.272	14541
918.384	14431
918.495	14423
918.606	14233
918.717	14115
918.828	14138
918.939	14275
919.05	14187
919.161	14176
919.272	14054
919.383	13993
919.494	14183
919.604	14423
919.715	14240
919.826	14077
919.936	14172
920.047	14210
920.157	14149
920.267	14412
920.378	14134
920.488	14103
920.598	14484
920.708	14526
920.818	14317
920.928	14355
921.038	14446
921.148	14431
921.258	14084
921.368	14107
921.477	13921
921.587	13898
921.697	13765
921.806	13955
921.916	13734
922.025	13597
922.134	13521
922.244	13563
922.353	13651
922.462	13590
922.571	13403
922.68	13251
922.789	13194
922.898	13247
923.007	13179
923.116	13263
923.224	13194
923.333	13122
923.442	13050
923.55	13091
923.659	13141
923.767	13190
923.876	12970
923.984	13088
924.092	12943
924.201	13008
924.309	12901
924.417	13031
924.525	12947
924.633	12935
924.741	13822
924.849	12669
924.956	12806
925.064	12673
925.172	12536
925.279	12578
925.387	12681
925.494	12730
925.602	12791
925.709	12684
925.816	12528
925.924	12593
926.031	12692
926.138	12642
926.245	12658
926.352	12456
926.459	12616
926.566	12688
926.673	12536
926.779	12452
926.886	12429
926.993	12258
927.099	12334
927.206	12205
927.312	12110
927.419	12266
927.525	12205
927.631	12232
927.737	12087
927.843	12129
927.95	11980
928.056	12041
928.162	12022
928.267	12155
928.373	12692
928.479	12129
928.585	11889
928.69	11980
928.796	12034
928.901	12007
929.007	11798
929.112	11901
929.218	11878
929.323	11840
929.428	11836
929.533	11980
929.638	11733
929.743	11764
929.848	11718
929.953	11741
930.058	11672
930.163	11425
930.267	11474
930.372	11570
930.477	11417
930.581	11638
930.685	11532
930.79	11368
930.894	11410
930.998	11395
931.103	11497
931.207	11098
931.311	11048
931.415	11037
931.519	10797
931.623	10729
