Data from test_V78500241_130.txt Node
Date: Fri Mar 25 15:10:46 CST 2022
User: usil
Spectrometer: V785-0024
Trigger mode: 0
Integration Time (sec): 4.000000E-1
Scans to average: 1
Nonlinearity correction enabled: false
Boxcar width: 0
Storing dark spectrum: false
XAxis mode: Wavelengths
Number of Pixels in Spectrum: 1024
>>>>>Begin Spectral Data<<<<<
801.071	28215
801.214	28177
801.356	27899
801.499	27835
801.641	27781
801.783	27846
801.926	27713
802.068	27812
802.211	27686
802.353	27583
802.496	27545
802.638	27336
802.78	27378
802.923	27291
803.065	27184
803.208	27340
803.35	27279
803.492	27492
803.635	27447
803.777	27245
803.919	27344
804.061	27873
804.204	27606
804.346	27351
804.488	27344
804.63	27382
804.773	27355
804.915	27401
805.057	27466
805.199	27264
805.341	27534
805.483	27549
805.626	27507
805.768	27382
805.91	27519
806.052	27561
806.194	27367
806.336	27774
806.478	27473
806.62	27568
806.762	27603
806.904	27667
807.046	27922
807.188	27930
807.33	28006
807.472	27895
807.614	27804
807.756	27914
807.898	27899
808.04	27568
808.182	27732
808.324	27633
808.465	27732
808.607	27819
808.749	27991
808.891	28090
809.033	28185
809.174	27983
809.316	27953
809.458	28131
809.6	27918
809.741	28086
809.883	28188
810.025	28257
810.166	28158
810.308	28379
810.45	28196
810.591	28017
810.733	28150
810.875	27937
811.016	27816
811.158	27949
811.299	27922
811.441	27972
811.582	28048
811.724	27911
811.865	27880
812.007	27873
812.148	28040
812.29	27956
812.431	28139
812.573	28295
812.714	28306
812.855	28527
812.997	28462
813.138	28687
813.279	28557
813.421	28466
813.562	28500
813.703	28291
813.845	28166
813.986	27846
814.127	27732
814.268	27629
814.41	27553
814.551	27625
814.692	27637
814.833	27618
814.974	27606
815.115	27572
815.256	27279
815.397	27549
815.539	27386
815.68	27226
815.821	27154
815.962	27272
816.103	27317
816.244	27146
816.385	27135
816.526	27150
816.666	26979
816.807	26800
816.948	26800
817.089	26861
817.23	26940
817.371	26731
817.512	26792
817.653	26804
817.793	26708
817.934	26682
818.075	26845
818.216	26804
818.356	26655
818.497	26785
818.638	26446
818.778	26507
818.919	26545
819.06	26545
819.2	26575
819.341	26769
819.481	26655
819.622	26823
819.762	27001
819.903	26819
820.043	26849
820.184	26834
820.324	26826
820.465	26811
820.605	26819
820.746	26724
820.886	26499
821.026	26788
821.167	26621
821.307	26807
821.447	26853
821.588	26571
821.728	26423
821.868	26320
822.008	26058
822.149	26161
822.289	26240
822.429	25856
822.569	25887
822.709	25780
822.849	25571
822.99	25518
823.13	25396
823.27	25597
823.41	25438
823.55	25316
823.69	25324
823.83	25499
823.97	25362
824.11	25160
824.25	25240
824.389	25061
824.529	25327
824.669	25099
824.809	25148
824.949	25099
825.089	25255
825.228	25183
825.368	24932
825.508	24924
825.648	24928
825.787	24992
825.927	25042
826.067	25145
826.206	24989
826.346	25114
826.485	25046
826.625	25065
826.765	25088
826.904	25114
827.044	24757
827.183	24715
827.323	24585
827.462	24772
827.601	24677
827.741	24612
827.88	24612
828.02	24464
828.159	24589
828.298	24563
828.437	24654
828.577	24673
828.716	24654
828.855	24650
828.994	24372
829.134	24296
829.273	24448
829.412	24357
829.551	24289
829.69	24353
829.829	24357
829.968	24285
830.107	24464
830.246	24289
830.385	24186
830.524	24213
830.663	24087
830.802	24095
830.941	23923
831.08	23931
831.219	23992
831.357	23836
831.496	24136
831.635	23992
831.774	23821
831.913	23794
832.051	23798
832.19	23642
832.329	23661
832.467	23699
832.606	23566
832.744	23615
832.883	23509
833.022	23474
833.16	23608
833.299	23440
833.437	23535
833.576	23596
833.714	23623
833.852	23707
833.991	23657
834.129	23684
834.267	23745
834.406	23547
834.544	23589
834.682	23524
834.821	23410
834.959	23798
835.097	23402
835.235	23649
835.373	23528
835.511	23600
835.65	23372
835.788	23353
835.926	23322
836.064	23197
836.202	23315
836.34	23311
836.478	23528
836.615	23235
836.753	23486
836.891	23379
837.029	23410
837.167	23455
837.305	23200
837.443	23315
837.58	23258
837.718	23372
837.856	23330
837.993	23299
838.131	23277
838.269	23220
838.406	23083
838.544	23014
838.681	22847
838.819	22733
838.956	22698
839.094	22630
839.231	22740
839.369	22889
839.506	23075
839.643	22946
839.781	22725
839.918	22523
840.055	22710
840.193	22656
840.33	22557
840.467	22596
840.604	22573
840.742	22774
840.879	22466
841.016	22497
841.153	22493
841.29	22713
841.427	22645
841.564	22569
841.701	22455
841.838	22538
841.975	22455
842.112	22394
842.249	22337
842.385	22242
842.522	22546
842.659	22329
842.796	22314
842.933	22310
843.069	22219
843.206	22215
843.343	22329
843.479	22284
843.616	22329
843.752	22124
843.889	22101
844.025	22143
844.162	21934
844.298	22162
844.435	22017
844.571	22013
844.708	22185
844.844	22177
844.98	22067
845.117	22124
845.253	21949
845.389	21861
845.525	21956
845.661	21800
845.798	21637
845.934	21789
846.07	21804
846.206	21785
846.342	21804
846.478	21751
846.614	21485
846.75	21447
846.886	21511
847.022	21572
847.158	21439
847.294	21473
847.429	21545
847.565	21447
847.701	21667
847.837	21287
847.972	21127
848.108	21294
848.244	21389
848.379	21116
848.515	21081
848.65	21116
848.786	21142
848.921	21020
849.057	21161
849.192	21203
849.328	21051
849.463	21173
849.598	21081
849.734	20952
849.869	20754
850.004	20758
850.14	20773
850.275	20819
850.41	20689
850.545	20659
850.68	20667
850.815	20864
850.95	20724
851.085	20902
851.22	20800
851.355	20819
851.49	20667
851.625	20788
851.76	20636
851.895	20697
852.03	20674
852.165	20727
852.299	20765
852.434	20785
852.569	20914
852.703	20777
852.838	20735
852.973	20963
853.107	20895
853.242	20678
853.376	20701
853.511	20404
853.645	20507
853.78	20693
853.914	20503
854.048	20495
854.183	20606
854.317	20632
854.451	20640
854.585	20495
854.72	20590
854.854	20621
854.988	20484
855.122	20598
855.256	20465
855.39	20507
855.524	20670
855.658	20587
855.792	20659
855.926	20651
856.06	20583
856.194	20720
856.327	20476
856.461	20473
856.595	20537
856.729	20450
856.862	20693
856.996	20613
857.13	20575
857.263	20670
857.397	20716
857.53	20655
857.664	20575
857.797	20549
857.931	20659
858.064	20537
858.197	20636
858.331	20507
858.464	20537
858.597	20381
858.731	20530
858.864	20438
858.997	20476
859.13	20415
859.263	20514
859.396	20560
859.529	20488
859.662	20450
859.795	20476
859.928	20480
860.061	20629
860.194	20655
860.327	20552
860.46	20473
860.592	20617
860.725	20560
860.858	20518
860.99	20427
861.123	20393
861.256	20427
861.388	20389
861.521	21222
861.653	20377
861.786	20324
861.918	20454
862.05	20484
862.183	20434
862.315	20454
862.447	20609
862.58	20556
862.712	20313
862.844	20309
862.976	20358
863.108	20237
863.24	20712
863.372	20119
863.504	20199
863.636	20267
863.768	20256
863.9	20088
864.032	20180
864.164	20199
864.296	20199
864.428	20263
864.559	20237
864.691	20240
864.823	20214
864.954	20225
865.086	20256
865.217	20058
865.349	20046
865.48	20134
865.612	20130
865.743	20214
865.875	20218
866.006	20149
866.137	20187
866.269	20062
866.4	20012
866.531	19921
866.662	20103
866.793	20084
866.924	19959
867.055	20043
867.186	20107
867.317	20016
867.448	19986
867.579	19974
867.71	19849
867.841	19986
867.972	20073
868.103	19989
868.233	20096
868.364	19997
868.495	20168
868.625	20248
868.756	20377
868.886	20103
869.017	20267
869.147	20290
869.278	20244
869.408	20454
869.539	20324
869.669	20358
869.799	20294
869.929	20320
870.06	20309
870.19	20568
870.32	20465
870.45	20545
870.58	20602
870.71	20842
870.84	20769
870.97	20724
871.1	20609
871.23	20800
871.36	20906
871.489	20693
871.619	20648
871.749	20902
871.879	20880
872.008	21062
872.138	20788
872.267	20735
872.397	20712
872.526	20739
872.656	20629
872.785	20625
872.915	20815
873.044	20929
873.173	20853
873.303	20925
873.432	20925
873.561	20952
873.69	20937
873.819	20804
873.948	20990
874.077	20887
874.206	20864
874.335	20853
874.464	20994
874.593	21135
874.722	21066
874.851	21222
874.979	21256
875.108	21165
875.237	21161
875.365	21051
875.494	21131
875.623	21264
875.751	20937
875.88	21154
876.008	21245
876.136	21329
876.265	21492
876.393	21717
876.521	21652
876.65	21614
876.778	21580
876.906	21447
877.034	21412
877.162	21530
877.29	21325
877.418	21420
877.546	21458
877.674	21496
877.802	21519
877.93	21458
878.058	21412
878.185	21355
878.313	21466
878.441	21370
878.568	21268
878.696	21420
878.824	21481
878.951	21583
879.079	21610
879.206	21690
879.333	21694
879.461	21473
879.588	21572
879.715	21603
879.842	21747
879.97	21572
880.097	21291
880.224	21241
880.351	21336
880.478	21268
880.605	21348
880.732	21443
880.859	21564
880.986	21389
881.112	21332
881.239	21272
881.366	21165
881.493	21096
881.619	20967
881.746	21013
881.872	20906
881.999	20826
882.125	20910
882.252	20906
882.378	20838
882.505	20963
882.631	20686
882.757	20564
882.883	20663
883.01	20678
883.136	20583
883.262	20545
883.388	20503
883.514	20701
883.64	20568
883.766	20617
883.892	20457
884.018	20393
884.143	20632
884.269	20644
884.395	20434
884.52	20206
884.646	20244
884.772	20221
884.897	20199
885.023	20278
885.148	20446
885.274	20305
885.399	20454
885.524	20267
885.65	20275
885.775	20221
885.9	20256
886.025	20248
886.15	20339
886.275	20157
886.4	20263
886.525	20161
886.65	20046
886.775	20187
886.9	20313
887.025	20499
887.149	20126
887.274	20054
887.399	20012
887.523	19989
887.648	20065
887.773	19868
887.897	19982
888.021	20027
888.146	19959
888.27	20058
888.395	20084
888.519	20046
888.643	20081
888.767	20024
888.891	19997
889.015	19875
889.139	19791
889.263	19780
889.387	19944
889.511	20039
889.635	19883
889.759	19753
889.883	19898
890.006	19811
890.13	19879
890.254	19696
890.377	19647
890.501	19556
890.624	19415
890.748	19651
890.871	19540
890.995	19403
891.118	19316
891.241	19400
891.364	19426
891.488	19544
891.611	19384
891.734	19422
891.857	19476
891.98	19365
892.103	19457
892.226	19369
892.349	19369
892.471	19175
892.594	19430
892.717	19392
892.839	19247
892.962	19388
893.085	19445
893.207	19320
893.33	19282
893.452	19255
893.575	19384
893.697	19278
893.819	19544
893.941	19502
894.064	19358
894.186	19198
894.308	19244
894.43	19464
894.552	19548
894.674	19411
894.796	19266
894.918	19304
895.04	19297
895.161	19331
895.283	19369
895.405	19217
895.526	19346
895.648	19251
895.769	19373
895.891	19457
896.012	19297
896.134	19499
896.255	19388
896.376	19422
896.498	19350
896.619	19343
896.74	19369
896.861	19384
896.982	19651
897.103	19696
897.224	19738
897.345	19624
897.466	19525
897.587	19575
897.708	19693
897.828	19556
897.949	19571
898.07	19464
898.19	19529
898.311	19677
898.431	19567
898.552	19594
898.672	19548
898.792	19567
898.913	19441
899.033	19419
899.153	19381
899.273	19251
899.393	19343
899.513	19278
899.633	19266
899.753	19244
899.873	19187
899.993	19304
900.113	19270
900.232	19381
900.352	19217
900.472	19232
900.591	19076
900.711	19088
900.83	19046
900.95	19251
901.069	19148
901.189	19008
901.308	18768
901.427	18745
901.546	18681
901.665	18734
901.784	18730
901.904	18525
902.023	18350
902.141	18414
902.26	18216
902.379	18315
902.498	18144
902.617	18129
902.735	18178
902.854	18133
902.973	18087
903.091	17847
903.21	17855
903.328	17954
903.446	17783
903.565	17691
903.683	17687
903.801	17661
903.919	17687
904.038	17608
904.156	17535
904.274	17619
904.392	17509
904.51	17463
904.627	17436
904.745	17532
904.863	17448
904.981	17235
905.098	17155
905.216	17128
905.334	17140
905.451	17090
905.569	17041
905.686	17162
905.803	17071
905.921	16889
906.038	16965
906.155	16873
906.272	16881
906.389	16797
906.506	16626
906.623	16668
906.74	16565
906.857	16596
906.974	16531
907.091	16672
907.208	16805
907.324	16721
907.441	16470
907.557	16417
907.674	16295
907.79	16242
907.907	16322
908.023	16443
908.139	16249
908.256	16211
908.372	16257
908.488	16207
908.604	16185
908.72	16074
908.836	16093
908.952	16086
909.068	15960
909.184	16086
909.3	16044
909.415	16063
909.531	16097
909.647	15770
909.762	15785
909.878	15644
909.993	15766
910.108	15679
910.224	15679
910.339	15637
910.454	15618
910.57	15576
910.685	15564
910.8	15759
910.915	15629
911.03	15485
911.145	15355
911.259	15325
911.374	15279
911.489	15252
911.604	15222
911.718	15211
911.833	15043
911.947	15062
912.062	14990
912.176	14937
912.291	15077
912.405	15036
912.519	15195
912.633	15207
912.748	15157
912.862	15058
912.976	14948
913.09	14777
913.204	14800
913.318	14834
913.431	15017
913.545	14971
913.659	15009
913.772	14906
913.886	14693
914	14689
914.113	14830
914.226	14750
914.34	14819
914.453	14625
914.566	14735
914.68	14594
914.793	14537
914.906	14434
915.019	14347
915.132	14366
915.245	14381
915.358	14442
915.47	14347
915.583	14431
915.696	14393
915.809	14404
915.921	14568
916.034	14355
916.146	14225
916.259	14240
916.371	14256
916.483	14336
916.595	14142
916.708	14214
916.82	14138
916.932	14210
917.044	14069
917.156	14077
917.268	13944
917.38	13974
917.491	13887
917.603	14039
917.715	14035
917.826	14107
917.938	13974
918.049	13852
918.161	14027
918.272	14145
918.384	14103
918.495	14054
918.606	13719
918.717	13689
918.828	13822
918.939	13814
919.05	13719
919.161	13753
919.272	13594
919.383	13556
919.494	13757
919.604	13967
919.715	13734
919.826	13582
919.936	13826
920.047	13772
920.157	13693
920.267	13906
920.378	13780
920.488	13734
920.598	13871
920.708	14119
920.818	13909
920.928	13890
921.038	14016
921.148	14043
921.258	13712
921.368	13605
921.477	13571
921.587	13510
921.697	13354
921.806	13502
921.916	13441
922.025	13194
922.134	13141
922.244	13091
922.353	13095
922.462	13046
922.571	12966
922.68	12814
922.789	12726
922.898	12753
923.007	12738
923.116	12829
923.224	12795
923.333	12787
923.442	12734
923.55	12574
923.659	12528
923.767	12665
923.876	12601
923.984	12749
924.092	12494
924.201	12506
924.309	12521
924.417	12471
924.525	12498
924.633	12506
924.741	13217
924.849	12247
924.956	12506
925.064	12361
925.172	12144
925.279	12159
925.387	12361
925.494	12235
925.602	12452
925.709	12285
925.816	12144
925.924	12163
926.031	12216
926.138	12182
926.245	12239
926.352	12026
926.459	12270
926.566	12292
926.673	12114
926.779	12003
926.886	12041
926.993	11882
927.099	11832
927.206	11794
927.312	11790
927.419	11805
927.525	11756
927.631	11764
927.737	11745
927.843	11554
927.95	11535
928.056	11608
928.162	11691
928.267	11699
928.373	12209
928.479	11737
928.585	11440
928.69	11547
928.796	11570
928.901	11539
929.007	11471
929.112	11535
929.218	11493
929.323	11353
929.428	11356
929.533	11512
929.638	11360
929.743	11368
929.848	11395
929.953	11395
930.058	11269
930.163	11060
930.267	11075
930.372	11231
930.477	11041
930.581	11235
930.685	11151
930.79	10961
930.894	11003
930.998	10942
931.103	11075
931.207	10752
931.311	10641
931.415	10485
931.519	10360
931.623	10344
