Data from test_V78500241_829.txt Node
Date: Fri Mar 25 15:15:37 CST 2022
User: usil
Spectrometer: V785-0024
Trigger mode: 0
Integration Time (sec): 4.000000E-1
Scans to average: 1
Nonlinearity correction enabled: false
Boxcar width: 0
Storing dark spectrum: false
XAxis mode: Wavelengths
Number of Pixels in Spectrum: 1024
>>>>>Begin Spectral Data<<<<<
801.071	28299
801.214	28177
801.356	28048
801.499	28025
801.641	27922
801.783	27724
801.926	27762
802.068	27720
802.211	27781
802.353	27690
802.496	27466
802.638	27644
802.78	27500
802.923	27641
803.065	27469
803.208	27572
803.35	27530
803.492	27557
803.635	27739
803.777	27622
803.919	27679
804.061	28185
804.204	27728
804.346	27641
804.488	27679
804.63	27675
804.773	27519
804.915	27701
805.057	27838
805.199	27618
805.341	27903
805.483	27907
805.626	27778
805.768	27781
805.91	27873
806.052	27785
806.194	27857
806.336	27953
806.478	27895
806.62	27975
806.762	27972
806.904	28238
807.046	28390
807.188	28238
807.33	28211
807.472	28265
807.614	28280
807.756	28310
807.898	28234
808.04	28078
808.182	28006
808.324	28287
808.465	28322
808.607	28386
808.749	28447
808.891	28557
809.033	28592
809.174	28645
809.316	28531
809.458	28523
809.6	28622
809.741	28752
809.883	28637
810.025	28900
810.166	28771
810.308	28820
810.45	28828
810.591	28847
810.733	28691
810.875	28569
811.016	28531
811.158	28607
811.299	28767
811.441	28603
811.582	28725
811.724	28432
811.865	28523
812.007	28493
812.148	28607
812.29	28588
812.431	28736
812.573	29014
812.714	29014
812.855	29208
812.997	29200
813.138	29280
813.279	29212
813.421	29284
813.562	29220
813.703	29010
813.845	28896
813.986	28706
814.127	28386
814.268	28394
814.41	28268
814.551	28371
814.692	28310
814.833	28322
814.974	28200
815.115	28268
815.256	28192
815.397	28150
815.539	28162
815.68	28139
815.821	27926
815.962	28135
816.103	28063
816.244	28013
816.385	27926
816.526	27816
816.666	27663
816.807	27599
816.948	27675
817.089	27587
817.23	27682
817.371	27549
817.512	27671
817.653	27713
817.793	27530
817.934	27736
818.075	27614
818.216	27717
818.356	27564
818.497	27595
818.638	27477
818.778	27283
818.919	27401
819.06	27294
819.2	27405
819.341	27583
819.481	27587
819.622	27907
819.762	27949
819.903	27953
820.043	27690
820.184	27595
820.324	27644
820.465	27808
820.605	27686
820.746	27720
820.886	27530
821.026	27652
821.167	27606
821.307	27762
821.447	27549
821.588	27504
821.728	27340
821.868	27249
822.008	27150
822.149	27055
822.289	27001
822.429	26811
822.569	26701
822.709	26914
822.849	26541
822.99	26541
823.13	26575
823.27	26495
823.41	26473
823.55	26233
823.69	26461
823.83	26370
823.97	26412
824.11	26229
824.25	26119
824.389	26210
824.529	26221
824.669	26381
824.809	26362
824.949	26286
825.089	26202
825.228	26286
825.368	26256
825.508	26176
825.648	26096
825.787	26149
825.927	26191
826.067	26046
826.206	26176
826.346	26088
826.485	26111
826.625	26077
826.765	26237
826.904	26077
827.044	25845
827.183	25772
827.323	25746
827.462	25803
827.601	25909
827.741	25784
827.88	25879
828.02	25750
828.159	25814
828.298	25799
828.437	25818
828.577	25681
828.716	25928
828.855	25609
828.994	25457
829.134	25438
829.273	25556
829.412	25540
829.551	25499
829.69	25483
829.829	25495
829.968	25597
830.107	25613
830.246	25548
830.385	25426
830.524	25445
830.663	25430
830.802	25190
830.941	25164
831.08	25091
831.219	25148
831.357	25160
831.496	25324
831.635	25080
831.774	25008
831.913	25034
832.051	24924
832.19	24882
832.329	24932
832.467	24871
832.606	24749
832.744	24749
832.883	24692
833.022	24795
833.16	24825
833.299	24852
833.437	24791
833.576	24856
833.714	24791
833.852	24924
833.991	25046
834.129	24985
834.267	24825
834.406	24817
834.544	24962
834.682	24932
834.821	24821
834.959	25046
835.097	24894
835.235	24890
835.373	24973
835.511	24753
835.65	24753
835.788	24665
835.926	24536
836.064	24623
836.202	24582
836.34	24597
836.478	24734
836.615	24741
836.753	24715
836.891	24753
837.029	24791
837.167	24646
837.305	24551
837.443	24601
837.58	24391
837.718	24608
837.856	24445
837.993	24513
838.131	24490
838.269	24277
838.406	24369
838.544	24270
838.681	24038
838.819	24167
838.956	23973
839.094	23946
839.231	24087
839.369	24209
839.506	24452
839.643	24285
839.781	24038
839.918	23935
840.055	24003
840.193	23977
840.33	23866
840.467	23916
840.604	24034
840.742	24186
840.879	23733
841.016	23977
841.153	23775
841.29	23984
841.427	23828
841.564	24045
841.701	23874
841.838	23893
841.975	23726
842.112	23878
842.249	23691
842.385	23585
842.522	23741
842.659	23619
842.796	23653
842.933	23680
843.069	23642
843.206	23547
843.343	23562
843.479	23691
843.616	23619
843.752	23376
843.889	23440
844.025	23497
844.162	23471
844.298	23531
844.435	23463
844.571	23395
844.708	23406
844.844	23604
844.98	23512
845.117	23562
845.253	23463
845.389	23178
845.525	23296
845.661	23284
845.798	23280
845.934	23318
846.07	23117
846.206	23223
846.342	23288
846.478	23193
846.614	23083
846.75	22736
846.886	22957
847.022	23075
847.158	22961
847.294	22862
847.429	22984
847.565	22767
847.701	23056
847.837	22630
847.972	22489
848.108	22668
848.244	22729
848.379	22409
848.515	22531
848.65	22466
848.786	22424
848.921	22470
849.057	22550
849.192	22653
849.328	22584
849.463	22535
849.598	22413
849.734	22325
849.869	22310
850.004	22295
850.14	22306
850.275	22310
850.41	22086
850.545	22219
850.68	22280
850.815	22265
850.95	22211
851.085	22451
851.22	22322
851.355	22238
851.49	22238
851.625	22234
851.76	22284
851.895	22150
852.03	22150
852.165	22257
852.299	22390
852.434	22310
852.569	22253
852.703	22211
852.838	22249
852.973	22386
853.107	22261
853.242	22181
853.376	22082
853.511	21907
853.645	21964
853.78	22150
853.914	21918
854.048	22025
854.183	22070
854.317	22021
854.451	22234
854.585	21998
854.72	22200
854.854	22105
854.988	21991
855.122	22029
855.256	21926
855.39	22013
855.524	22082
855.658	21979
855.792	21975
855.926	22032
856.06	22135
856.194	22158
856.327	22002
856.461	22032
856.595	22048
856.729	22059
856.862	22101
856.996	22093
857.13	22044
857.263	22265
857.397	22143
857.53	22002
857.664	22010
857.797	22109
857.931	22318
858.064	22086
858.197	22059
858.331	22154
858.464	21907
858.597	21884
858.731	21998
858.864	22150
858.997	22109
859.13	21972
859.263	22143
859.396	22082
859.529	22067
859.662	22090
859.795	22032
859.928	22200
860.061	22166
860.194	22257
860.327	22040
860.46	22044
860.592	22131
860.725	22192
860.858	22162
860.99	22074
861.123	21979
861.256	22128
861.388	21991
861.521	22889
861.653	21911
861.786	21850
861.918	21884
862.05	21918
862.183	22006
862.315	21975
862.447	22025
862.58	22013
862.712	21774
862.844	21717
862.976	21789
863.108	21808
863.24	22101
863.372	21698
863.504	21854
863.636	21732
863.768	21762
863.9	21732
864.032	21728
864.164	21690
864.296	21713
864.428	21835
864.559	21865
864.691	21774
864.823	21770
864.954	21713
865.086	21751
865.217	21709
865.349	21511
865.48	21701
865.612	21622
865.743	21728
865.875	21709
866.006	21557
866.137	21618
866.269	21568
866.4	21595
866.531	21488
866.662	21542
866.793	21412
866.924	21500
867.055	21682
867.186	21572
867.317	21587
867.448	21469
867.579	21549
867.71	21564
867.841	21454
867.972	21561
868.103	21538
868.233	21496
868.364	21538
868.495	21572
868.625	21797
868.756	21812
868.886	21728
869.017	21797
869.147	22078
869.278	21949
869.408	21831
869.539	21660
869.669	22021
869.799	21838
869.929	21998
870.06	21899
870.19	22139
870.32	22177
870.45	22040
870.58	22185
870.71	22303
870.84	22246
870.97	22261
871.1	22219
871.23	22356
871.36	22295
871.489	22371
871.619	22337
871.749	22371
871.879	22375
872.008	22535
872.138	22523
872.267	22306
872.397	22246
872.526	22188
872.656	22284
872.785	22196
872.915	22223
873.044	22474
873.173	22413
873.303	22440
873.432	22451
873.561	22504
873.69	22440
873.819	22337
873.948	22504
874.077	22474
874.206	22417
874.335	22360
874.464	22489
874.593	22672
874.722	22512
874.851	22683
874.979	22538
875.108	22584
875.237	22580
875.365	22413
875.494	22592
875.623	22683
875.751	22615
875.88	22618
876.008	22744
876.136	22869
876.265	23132
876.393	23105
876.521	23041
876.65	23083
876.778	23014
876.906	22991
877.034	22991
877.162	22908
877.29	22942
877.418	22915
877.546	23060
877.674	22919
877.802	23006
877.93	22927
878.058	22984
878.185	22759
878.313	22915
878.441	22987
878.568	22797
878.696	22934
878.824	22968
878.951	23003
879.079	23102
879.206	23277
879.333	23079
879.461	23003
879.588	23033
879.715	23052
879.842	23250
879.97	23109
880.097	22713
880.224	22725
880.351	22858
880.478	22767
880.605	22763
880.732	22744
880.859	22987
880.986	22812
881.112	22748
881.239	22675
881.366	22561
881.493	22322
881.619	22440
881.746	22455
881.872	22455
881.999	22466
882.125	22215
882.252	22322
882.378	22329
882.505	22276
882.631	22166
882.757	22029
882.883	22093
883.01	22166
883.136	22017
883.262	21953
883.388	21823
883.514	21968
883.64	22067
883.766	22048
883.892	21941
884.018	21781
884.143	21945
884.269	22002
884.395	21682
884.52	21656
884.646	21663
884.772	21542
884.897	21477
885.023	21644
885.148	21751
885.274	21660
885.399	21751
885.524	21587
885.65	21648
885.775	21652
885.9	21667
886.025	21622
886.15	21835
886.275	21641
886.4	21644
886.525	21633
886.65	21603
886.775	21572
886.9	21705
887.025	21808
887.149	21679
887.274	21473
887.399	21481
887.523	21420
887.648	21469
887.773	21332
887.897	21572
888.021	21557
888.146	21340
888.27	21492
888.395	21370
888.519	21454
888.643	21466
888.767	21496
888.891	21306
889.015	21146
889.139	21355
889.263	21252
889.387	21272
889.511	21355
889.635	21488
889.759	21199
889.883	21150
890.006	21279
890.13	21291
890.254	21146
890.377	21230
890.501	21146
890.624	20921
890.748	21108
890.871	20933
890.995	20792
891.118	20727
891.241	20842
891.364	20716
891.488	20914
891.611	20781
891.734	20785
891.857	20857
891.98	20921
892.103	20963
892.226	20861
892.349	20804
892.471	20712
892.594	20754
892.717	20705
892.839	20743
892.962	20750
893.085	20750
893.207	20625
893.33	20659
893.452	20583
893.575	20769
893.697	20655
893.819	20910
893.941	20769
894.064	20842
894.186	20613
894.308	20587
894.43	20804
894.552	20826
894.674	20788
894.796	20564
894.918	20678
895.04	20579
895.161	20804
895.283	20693
895.405	20651
895.526	20705
895.648	20663
895.769	20583
895.891	20663
896.012	20849
896.134	20724
896.255	20758
896.376	20636
896.498	20769
896.619	20708
896.74	20777
896.861	20804
896.982	20975
897.103	21074
897.224	20895
897.345	20956
897.466	20880
897.587	21039
897.708	20998
897.828	20838
897.949	20849
898.07	20750
898.19	20845
898.311	20937
898.431	20807
898.552	20998
898.672	20998
898.792	20960
898.913	20933
899.033	20872
899.153	20724
899.273	20606
899.393	20609
899.513	20560
899.633	20648
899.753	20743
899.873	20590
899.993	20617
900.113	20625
900.232	20564
900.352	20434
900.472	20427
900.591	20282
900.711	20412
900.83	20431
900.95	20503
901.069	20503
901.189	20324
901.308	20191
901.427	20016
901.546	20005
901.665	19997
901.784	19982
901.904	19936
902.023	19814
902.141	19609
902.26	19609
902.379	19525
902.498	19533
902.617	19449
902.735	19529
902.854	19487
902.973	19407
903.091	19164
903.21	19171
903.328	19088
903.446	19099
903.565	19042
903.683	19008
903.801	18776
903.919	18783
904.038	18859
904.156	18700
904.274	18821
904.392	18745
904.51	18715
904.627	18677
904.745	18734
904.863	18875
904.981	18452
905.098	18330
905.216	18350
905.334	18536
905.451	18464
905.569	18407
905.686	18414
905.803	18395
905.921	18125
906.038	18296
906.155	18220
906.272	18186
906.389	18034
906.506	18007
906.623	17901
906.74	17916
906.857	17786
906.974	17847
907.091	17946
907.208	18057
907.324	17916
907.441	17767
907.557	17649
907.674	17748
907.79	17573
907.907	17562
908.023	17726
908.139	17539
908.256	17535
908.372	17516
908.488	17497
908.604	17417
908.72	17353
908.836	17379
908.952	17284
909.068	17334
909.184	17376
909.3	17258
909.415	17235
909.531	17356
909.647	17083
909.762	17109
909.878	16972
909.993	17098
910.108	16995
910.224	16980
910.339	16995
910.454	16892
910.57	16847
910.685	16755
910.8	17048
910.915	16938
911.03	16881
911.145	16687
911.259	16710
911.374	16672
911.489	16599
911.604	16527
911.718	16382
911.833	16413
911.947	16371
912.062	16150
912.176	16405
912.291	16322
912.405	16234
912.519	16599
912.633	16535
912.748	16375
912.862	16402
912.976	16204
913.09	16086
913.204	16059
913.318	16276
913.431	16249
913.545	16272
913.659	16299
913.772	16196
913.886	15991
914	16051
914.113	16074
914.226	16166
914.34	15918
914.453	15918
914.566	15979
914.68	15994
914.793	15835
914.906	15587
915.019	15530
915.132	15595
915.245	15610
915.358	15549
915.47	15610
915.583	15614
915.696	15606
915.809	15797
915.921	15713
916.034	15629
916.146	15488
916.259	15416
916.371	15534
916.483	15431
916.595	15408
916.708	15450
916.82	15378
916.932	15439
917.044	15355
917.156	15348
917.268	15154
917.38	15161
917.491	15135
917.603	15169
917.715	15351
917.826	15310
917.938	15173
918.049	15051
918.161	15245
918.272	15268
918.384	15249
918.495	15218
918.606	15081
918.717	14910
918.828	14933
918.939	15024
919.05	14872
919.161	14944
919.272	14743
919.383	14750
919.494	14967
919.604	15154
919.715	14925
919.826	14910
919.936	14830
920.047	15009
920.157	15017
920.267	15066
920.378	14819
920.488	14944
920.598	15081
920.708	15272
920.818	14937
920.928	15184
921.038	15184
921.148	15097
921.258	14830
921.368	14781
921.477	14583
921.587	14686
921.697	14404
921.806	14697
921.916	14480
922.025	14286
922.134	14309
922.244	14355
922.353	14328
922.462	14145
922.571	14062
922.68	13932
922.789	13925
922.898	13997
923.007	13784
923.116	13887
923.224	13936
923.333	13940
923.442	13757
923.55	13780
923.659	13780
923.767	13795
923.876	13791
923.984	13772
924.092	13670
924.201	13723
924.309	13662
924.417	13677
924.525	13613
924.633	13544
924.741	14381
924.849	13327
924.956	13506
925.064	13297
925.172	13202
925.279	13293
925.387	13335
925.494	13331
925.602	13377
925.709	13339
925.816	13190
925.924	13285
926.031	13396
926.138	13304
926.245	13244
926.352	13152
926.459	13301
926.566	13346
926.673	13103
926.779	13076
926.886	13038
926.993	12939
927.099	12916
927.206	12768
927.312	12779
927.419	12928
927.525	12932
927.631	12897
927.737	12757
927.843	12623
927.95	12631
928.056	12665
928.162	12654
928.267	12639
928.373	13308
928.479	12722
928.585	12528
928.69	12669
928.796	12623
928.901	12627
929.007	12410
929.112	12456
929.218	12418
929.323	12452
929.428	12433
929.533	12574
929.638	12251
929.743	12372
929.848	12353
929.953	12289
930.058	12228
930.163	11999
930.267	12148
930.372	12163
930.477	12011
930.581	12281
930.685	12133
930.79	11946
930.894	12011
930.998	11961
931.103	12045
931.207	11695
931.311	11714
931.415	11566
931.519	11383
931.623	11273
