Data from test_V78500241_1721.txt Node
Date: Fri Mar 25 15:21:50 CST 2022
User: usil
Spectrometer: V785-0024
Trigger mode: 0
Integration Time (sec): 4.000000E-1
Scans to average: 1
Nonlinearity correction enabled: false
Boxcar width: 0
Storing dark spectrum: false
XAxis mode: Wavelengths
Number of Pixels in Spectrum: 1024
>>>>>Begin Spectral Data<<<<<
801.071	27747
801.214	27747
801.356	27481
801.499	27344
801.641	27313
801.783	27321
801.926	27336
802.068	27306
802.211	27093
802.353	27230
802.496	27051
802.638	27009
802.78	26982
802.923	26902
803.065	26872
803.208	26887
803.35	26975
803.492	27089
803.635	27165
803.777	27055
803.919	27218
804.061	27492
804.204	27275
804.346	27058
804.488	27074
804.63	27161
804.773	27112
804.915	27233
805.057	27401
805.199	27058
805.341	27237
805.483	27279
805.626	27298
805.768	27116
805.91	27249
806.052	27317
806.194	27317
806.336	27397
806.478	27291
806.62	27245
806.762	27427
806.904	27644
807.046	27778
807.188	27876
807.33	27736
807.472	27842
807.614	27736
807.756	27622
807.898	27580
808.04	27500
808.182	27530
808.324	27561
808.465	27762
808.607	27842
808.749	27956
808.891	27918
809.033	28029
809.174	28002
809.316	27930
809.458	27937
809.6	27762
809.741	28048
809.883	27972
810.025	28074
810.166	28074
810.308	28120
810.45	28112
810.591	28200
810.733	27873
810.875	27922
811.016	27816
811.158	27713
811.299	28082
811.441	27960
811.582	27960
811.724	27903
811.865	27895
812.007	27854
812.148	27892
812.29	27953
812.431	28093
812.573	28166
812.714	28150
812.855	28436
812.997	28443
813.138	28626
813.279	28626
813.421	28421
813.562	28249
813.703	28257
813.845	28169
813.986	27846
814.127	27755
814.268	27629
814.41	27690
814.551	27526
814.692	27698
814.833	27648
814.974	27500
815.115	27667
815.256	27351
815.397	27488
815.539	27439
815.68	27313
815.821	27317
815.962	27477
816.103	27485
816.244	27203
816.385	27180
816.526	27096
816.666	26963
816.807	26842
816.948	26918
817.089	27055
817.23	26921
817.371	26632
817.512	26807
817.653	26861
817.793	26914
817.934	26937
818.075	26849
818.216	26891
818.356	26823
818.497	26720
818.638	26731
818.778	26568
818.919	26724
819.06	26758
819.2	26834
819.341	26785
819.481	26819
819.622	26998
819.762	27268
819.903	27146
820.043	27058
820.184	26975
820.324	27058
820.465	27184
820.605	27039
820.746	27074
820.886	26720
821.026	27009
821.167	26743
821.307	27032
821.447	26773
821.588	26906
821.728	26590
821.868	26526
822.008	26537
822.149	26347
822.289	26366
822.429	26122
822.569	26069
822.709	26107
822.849	26020
822.99	25765
823.13	25894
823.27	25738
823.41	25719
823.55	25552
823.69	25799
823.83	25742
823.97	25776
824.11	25537
824.25	25377
824.389	25575
824.529	25681
824.669	25537
824.809	25647
824.949	25655
825.089	25514
825.228	25651
825.368	25327
825.508	25354
825.648	25441
825.787	25396
825.927	25411
826.067	25400
826.206	25457
826.346	25343
826.485	25426
826.625	25369
826.765	25419
826.904	25411
827.044	25148
827.183	25266
827.323	25171
827.462	25148
827.601	25183
827.741	25148
827.88	25137
828.02	25004
828.159	25031
828.298	25206
828.437	25084
828.577	24973
828.716	25065
828.855	24863
828.994	24897
829.134	24852
829.273	24806
829.412	24806
829.551	24703
829.69	24745
829.829	24734
829.968	24863
830.107	24859
830.246	24749
830.385	24711
830.524	24730
830.663	24642
830.802	24597
830.941	24475
831.08	24346
831.219	24494
831.357	24441
831.496	24635
831.635	24441
831.774	24315
831.913	24323
832.051	24357
832.19	24163
832.329	24247
832.467	24022
832.606	24102
832.744	24060
832.883	24190
833.022	24095
833.16	24026
833.299	24159
833.437	24311
833.576	24254
833.714	24091
833.852	24220
833.991	24232
834.129	24277
834.267	24155
834.406	24201
834.544	24140
834.682	24125
834.821	24049
834.959	24429
835.097	24083
835.235	24216
835.373	24182
835.511	24072
835.65	23980
835.788	24041
835.926	23961
836.064	23866
836.202	23802
836.34	24011
836.478	24060
836.615	23980
836.753	23958
836.891	23939
837.029	23874
837.167	23942
837.305	23946
837.443	23828
837.58	23752
837.718	23961
837.856	23847
837.993	23786
838.131	23897
838.269	23729
838.406	23828
838.544	23760
838.681	23471
838.819	23543
838.956	23299
839.094	23425
839.231	23372
839.369	23543
839.506	23821
839.643	23493
839.781	23254
839.918	23208
840.055	23170
840.193	23212
840.33	23166
840.467	23204
840.604	23402
840.742	23482
840.879	23022
841.016	23208
841.153	23048
841.29	23307
841.427	23315
841.564	23212
841.701	23299
841.838	23151
841.975	23132
842.112	23223
842.249	23041
842.385	23025
842.522	23193
842.659	23048
842.796	22866
842.933	22812
843.069	22919
843.206	22896
843.343	23029
843.479	22968
843.616	22984
843.752	22755
843.889	22797
844.025	23014
844.162	22869
844.298	22976
844.435	22736
844.571	22763
844.708	22854
844.844	22892
844.98	22873
845.117	22915
845.253	22599
845.389	22664
845.525	22580
845.661	22634
845.798	22500
845.934	22561
846.07	22379
846.206	22618
846.342	22641
846.478	22455
846.614	22341
846.75	22135
846.886	22341
847.022	22390
847.158	22375
847.294	22329
847.429	22226
847.565	22139
847.701	22481
847.837	21960
847.972	21865
848.108	22040
848.244	21987
848.379	21869
848.515	21667
848.65	21770
848.786	21842
848.921	21857
849.057	21907
849.192	21949
849.328	21838
849.463	21713
849.598	21800
849.734	21800
849.869	21667
850.004	21610
850.14	21580
850.275	21667
850.41	21545
850.545	21496
850.68	21469
850.815	21614
850.95	21610
851.085	21804
851.22	21766
851.355	21618
851.49	21504
851.625	21519
851.76	21538
851.895	21549
852.03	21561
852.165	21682
852.299	21701
852.434	21694
852.569	21576
852.703	21519
852.838	21709
852.973	21724
853.107	21675
853.242	21458
853.376	21306
853.511	21397
853.645	21420
853.78	21431
853.914	21458
854.048	21256
854.183	21340
854.317	21329
854.451	21610
854.585	21538
854.72	21389
854.854	21545
854.988	21203
855.122	21340
855.256	21256
855.39	21568
855.524	21450
855.658	21435
855.792	21382
855.926	21481
856.06	21397
856.194	21447
856.327	21374
856.461	21329
856.595	21393
856.729	21507
856.862	21481
856.996	21488
857.13	21473
857.263	21549
857.397	21447
857.53	21424
857.664	21397
857.797	21485
857.931	21557
858.064	21564
858.197	21435
858.331	21359
858.464	21321
858.597	21332
858.731	21351
858.864	21351
858.997	21344
859.13	21462
859.263	21378
859.396	21538
859.529	21222
859.662	21443
859.795	21454
859.928	21454
860.061	21538
860.194	21603
860.327	21435
860.46	21485
860.592	21519
860.725	21538
860.858	21641
860.99	21443
861.123	21386
861.256	21279
861.388	21283
861.521	22112
861.653	21340
861.786	21180
861.918	21192
862.05	21332
862.183	21169
862.315	21405
862.447	21420
862.58	21203
862.712	21180
862.844	21199
862.976	21230
863.108	21100
863.24	21443
863.372	21116
863.504	21199
863.636	21020
863.768	21157
863.9	21173
864.032	21116
864.164	21036
864.296	21058
864.428	21264
864.559	21089
864.691	21203
864.823	21119
864.954	21058
865.086	21119
865.217	21066
865.349	20899
865.48	20929
865.612	21043
865.743	21112
865.875	21146
866.006	21017
866.137	20925
866.269	21066
866.4	20979
866.531	20925
866.662	20986
866.793	21028
866.924	20925
867.055	20998
867.186	20937
867.317	20914
867.448	20921
867.579	20872
867.71	20811
867.841	20891
867.972	21032
868.103	20899
868.233	20952
868.364	20834
868.495	20998
868.625	21203
868.756	21310
868.886	21051
869.017	21222
869.147	21218
869.278	21230
869.408	21203
869.539	21203
869.669	21226
869.799	21260
869.929	21348
870.06	21256
870.19	21481
870.32	21367
870.45	21458
870.58	21496
870.71	21652
870.84	21709
870.97	21557
871.1	21603
871.23	21812
871.36	21873
871.489	21698
871.619	21694
871.749	21747
871.879	21865
872.008	21968
872.138	21785
872.267	21762
872.397	21709
872.526	21564
872.656	21553
872.785	21644
872.915	21869
873.044	22017
873.173	21831
873.303	21857
873.432	21918
873.561	21926
873.69	21808
873.819	21800
873.948	21979
874.077	21804
874.206	21800
874.335	21895
874.464	21869
874.593	22029
874.722	22093
874.851	21979
874.979	22051
875.108	22169
875.237	21937
875.365	21903
875.494	21922
875.623	22059
875.751	21934
875.88	22006
876.008	22173
876.136	22070
876.265	22462
876.393	22466
876.521	22455
876.65	22519
876.778	22451
876.906	22348
877.034	22363
877.162	22455
877.29	22226
877.418	22386
877.546	22402
877.674	22341
877.802	22405
877.93	22371
878.058	22310
878.185	22287
878.313	22287
878.441	22306
878.568	22265
878.696	22386
878.824	22432
878.951	22481
879.079	22588
879.206	22675
879.333	22493
879.461	22356
879.588	22485
879.715	22493
879.842	22622
879.97	22409
880.097	22120
880.224	22211
880.351	22204
880.478	22265
880.605	22173
880.732	22280
880.859	22588
880.986	22207
881.112	22093
881.239	22063
881.366	21994
881.493	22044
881.619	21812
881.746	21766
881.872	21838
881.999	21717
882.125	21690
882.252	21945
882.378	21781
882.505	21781
882.631	21618
882.757	21595
882.883	21424
883.01	21424
883.136	21450
883.262	21348
883.388	21268
883.514	21622
883.64	21538
883.766	21351
883.892	21260
884.018	21283
884.143	21428
884.269	21530
884.395	21077
884.52	21051
884.646	21146
884.772	21188
884.897	20986
885.023	21184
885.148	21237
885.274	21287
885.399	21173
885.524	21074
885.65	21123
885.775	21131
885.9	21039
886.025	21233
886.15	21112
886.275	20952
886.4	20902
886.525	21127
886.65	21096
886.775	20956
886.9	21245
887.025	21393
887.149	20975
887.274	20902
887.399	20963
887.523	20925
887.648	20758
887.773	20708
887.897	20910
888.021	20979
888.146	20800
888.27	20895
888.395	20910
888.519	20895
888.643	20895
888.767	20861
888.891	20834
889.015	20648
889.139	20678
889.263	20731
889.387	20727
889.511	20811
889.635	20720
889.759	20861
889.883	20549
890.006	20667
890.13	20689
890.254	20594
890.377	20594
890.501	20396
890.624	20423
890.748	20480
890.871	20256
890.995	20126
891.118	20176
891.241	20233
891.364	20301
891.488	20469
891.611	20240
891.734	20195
891.857	20313
891.98	20298
892.103	20305
892.226	20275
892.349	20164
892.471	20001
892.594	20134
892.717	20161
892.839	20115
892.962	20107
893.085	20157
893.207	20134
893.33	20081
893.452	20183
893.575	20275
893.697	20122
893.819	20286
893.941	20313
894.064	20248
894.186	20088
894.308	20050
894.43	20275
894.552	20328
894.674	20157
894.796	20024
894.918	20145
895.04	20111
895.161	20218
895.283	20153
895.405	20084
895.526	20054
895.648	20157
895.769	20240
895.891	20172
896.012	20202
896.134	20191
896.255	20092
896.376	20046
896.498	20187
896.619	20088
896.74	20073
896.861	20065
896.982	20503
897.103	20507
897.224	20423
897.345	20267
897.466	20233
897.587	20256
897.708	20473
897.828	20393
897.949	20210
898.07	20210
898.19	20282
898.311	20514
898.431	20240
898.552	20423
898.672	20457
898.792	20366
898.913	20393
899.033	20221
899.153	20183
899.273	20111
899.393	20062
899.513	20145
899.633	20096
899.753	20176
899.873	19989
899.993	20161
900.113	20062
900.232	20103
900.352	19978
900.472	19951
900.591	19795
900.711	19769
900.83	19887
900.95	19917
901.069	19852
901.189	19761
901.308	19506
901.427	19464
901.546	19403
901.665	19396
901.784	19392
901.904	19350
902.023	19358
902.141	19065
902.26	19023
902.379	19004
902.498	18985
902.617	18905
902.735	18996
902.854	18989
902.973	18867
903.091	18555
903.21	18589
903.328	18506
903.446	18395
903.565	18448
903.683	18414
903.801	18357
903.919	18372
904.038	18365
904.156	18266
904.274	18388
904.392	18232
904.51	18205
904.627	18262
904.745	18216
904.863	18171
904.981	18041
905.098	17939
905.216	17863
905.334	17843
905.451	17908
905.569	17817
905.686	17885
905.803	17836
905.921	17668
906.038	17817
906.155	17691
906.272	17547
906.389	17509
906.506	17402
906.623	17341
906.74	17402
906.857	17364
906.974	17360
907.091	17524
907.208	17471
907.324	17486
907.441	17315
907.557	17178
907.674	17060
907.79	17102
907.907	17109
908.023	17178
908.139	17159
908.256	17083
908.372	17048
908.488	16999
908.604	16961
908.72	16976
908.836	16858
908.952	16896
909.068	16854
909.184	16961
909.3	16896
909.415	16873
909.531	16934
909.647	16565
909.762	16580
909.878	16626
909.993	16565
910.108	16527
910.224	16459
910.339	16580
910.454	16352
910.57	16306
910.685	16325
910.8	16580
910.915	16500
911.03	16329
911.145	16238
911.259	16158
911.374	16188
911.489	16048
911.604	15994
911.718	15941
911.833	15869
911.947	15819
912.062	15755
912.176	15960
912.291	15823
912.405	15918
912.519	15987
912.633	16006
912.748	15907
912.862	15899
912.976	15785
913.09	15686
913.204	15682
913.318	15770
913.431	15816
913.545	15846
913.659	15732
913.772	15682
913.886	15584
914	15469
914.113	15561
914.226	15701
914.34	15576
914.453	15488
914.566	15557
914.68	15447
914.793	15329
914.906	15157
915.019	15138
915.132	15093
915.245	15085
915.358	15222
915.47	15097
915.583	15169
915.696	15188
915.809	15192
915.921	15272
916.034	15051
916.146	15013
916.259	14986
916.371	15077
916.483	15089
916.595	14982
916.708	15024
916.82	15005
916.932	14933
917.044	14918
917.156	14777
917.268	14754
917.38	14773
917.491	14735
917.603	14807
917.715	14792
917.826	14876
917.938	14697
918.049	14541
918.161	14830
918.272	14762
918.384	14853
918.495	14781
918.606	14499
918.717	14511
918.828	14636
918.939	14526
919.05	14465
919.161	14511
919.272	14412
919.383	14412
919.494	14522
919.604	14667
919.715	14446
919.826	14396
919.936	14549
920.047	14636
920.157	14492
920.267	14617
920.378	14488
920.488	14427
920.598	14682
920.708	14815
920.818	14571
920.928	14613
921.038	14777
921.148	14701
921.258	14469
921.368	14351
921.477	14290
921.587	14301
921.697	14081
921.806	14275
921.916	14206
922.025	13989
922.134	13921
922.244	13799
922.353	13944
922.462	13795
922.571	13658
922.68	13480
922.789	13514
922.898	13544
923.007	13384
923.116	13605
923.224	13586
923.333	13392
923.442	13407
923.55	13339
923.659	13388
923.767	13430
923.876	13263
923.984	13407
924.092	13206
924.201	13282
924.309	13225
924.417	13240
924.525	13149
924.633	13217
924.741	13967
924.849	13053
924.956	13137
925.064	12954
925.172	12859
925.279	12943
925.387	12935
925.494	13019
925.602	13114
925.709	12970
925.816	12798
925.924	12935
926.031	12935
926.138	12901
926.245	12859
926.352	12810
926.459	12951
926.566	12890
926.673	12760
926.779	12642
926.886	12703
926.993	12528
927.099	12502
927.206	12547
927.312	12399
927.419	12540
927.525	12486
927.631	12456
927.737	12330
927.843	12315
927.95	12171
928.056	12285
928.162	12319
928.267	12445
928.373	12966
928.479	12460
928.585	12083
928.69	12289
928.796	12330
928.901	12178
929.007	12019
929.112	12205
929.218	12079
929.323	12076
929.428	12026
929.533	12194
929.638	11954
929.743	11973
929.848	12072
929.953	12011
930.058	11885
930.163	11665
930.267	11745
930.372	11961
930.477	11726
930.581	11923
930.685	11794
930.79	11634
930.894	11611
930.998	11638
931.103	11756
931.207	11334
931.311	11296
931.415	11185
931.519	11025
931.623	11060
