Data from test_V78500241_2535.txt Node
Date: Fri Mar 25 15:27:30 CST 2022
User: usil
Spectrometer: V785-0024
Trigger mode: 0
Integration Time (sec): 4.000000E-1
Scans to average: 1
Nonlinearity correction enabled: false
Boxcar width: 0
Storing dark spectrum: false
XAxis mode: Wavelengths
Number of Pixels in Spectrum: 1024
>>>>>Begin Spectral Data<<<<<
801.071	27131
801.214	27081
801.356	27055
801.499	26849
801.641	26811
801.783	26826
801.926	26819
802.068	26712
802.211	26659
802.353	26651
802.496	26438
802.638	26408
802.78	26362
802.923	26267
803.065	26218
803.208	26256
803.35	26446
803.492	26602
803.635	26480
803.777	26480
803.919	26465
804.061	26849
804.204	26644
804.346	26415
804.488	26537
804.63	26568
804.773	26465
804.915	26564
805.057	26556
805.199	26533
805.341	26541
805.483	26617
805.626	26545
805.768	26404
805.91	26625
806.052	26663
806.194	26609
806.336	26880
806.478	26663
806.62	26602
806.762	26670
806.904	26940
807.046	27150
807.188	27127
807.33	27142
807.472	26963
807.614	27066
807.756	26940
807.898	26933
808.04	26731
808.182	26887
808.324	26899
808.465	26883
808.607	27157
808.749	27226
808.891	27226
809.033	27450
809.174	27226
809.316	27226
809.458	27272
809.6	27272
809.741	27401
809.883	27344
810.025	27526
810.166	27576
810.308	27492
810.45	27367
810.591	27443
810.733	27211
810.875	27241
811.016	27142
811.158	27192
811.299	27462
811.441	27496
811.582	27469
811.724	27131
811.865	27093
812.007	27039
812.148	27039
812.29	27180
812.431	27192
812.573	27526
812.714	27587
812.855	27736
812.997	27671
813.138	27895
813.279	27884
813.421	27800
813.562	27736
813.703	27553
813.845	27382
813.986	27081
814.127	26838
814.268	26739
814.41	26861
814.551	26826
814.692	26975
814.833	26739
814.974	26739
815.115	26750
815.256	26708
815.397	26826
815.539	26636
815.68	26530
815.821	26579
815.962	26682
816.103	26663
816.244	26484
816.385	26370
816.526	26469
816.666	26168
816.807	26084
816.948	26229
817.089	26298
817.23	26126
817.371	25986
817.512	26142
817.653	26016
817.793	25925
817.934	26046
818.075	26138
818.216	26084
818.356	26077
818.497	26183
818.638	25860
818.778	25822
818.919	25757
819.06	25826
819.2	25963
819.341	26031
819.481	26214
819.622	26275
819.762	26385
819.903	26252
820.043	26244
820.184	26187
820.324	26259
820.465	26290
820.605	26256
820.746	26244
820.886	26054
821.026	26180
821.167	26221
821.307	26233
821.447	26183
821.588	26130
821.728	25814
821.868	25670
822.008	25628
822.149	25548
822.289	25594
822.429	25316
822.569	25263
822.709	25362
822.849	25069
822.99	25137
823.13	25053
823.27	25232
823.41	24791
823.55	24787
823.69	24795
823.83	24840
823.97	24814
824.11	24578
824.25	24760
824.389	24658
824.529	24749
824.669	24673
824.809	24764
824.949	24760
825.089	24772
825.228	24734
825.368	24475
825.508	24722
825.648	24597
825.787	24673
825.927	24730
826.067	24528
826.206	24722
826.346	24627
826.485	24597
826.625	24719
826.765	24719
826.904	24661
827.044	24460
827.183	24357
827.323	24308
827.462	24448
827.601	24410
827.741	24224
827.88	24323
828.02	24224
828.159	24399
828.298	24388
828.437	24391
828.577	24209
828.716	24437
828.855	24159
828.994	23996
829.134	23958
829.273	23935
829.412	23889
829.551	24038
829.69	24049
829.829	24087
829.968	24102
830.107	24018
830.246	23977
830.385	23980
830.524	24011
830.663	23866
830.802	23726
830.941	23604
831.08	23600
831.219	23745
831.357	23699
831.496	23821
831.635	23573
831.774	23676
831.913	23531
832.051	23364
832.19	23497
832.329	23383
832.467	23254
832.606	23235
832.744	23231
832.883	23315
833.022	23318
833.16	23356
833.299	23368
833.437	23337
833.576	23322
833.714	23410
833.852	23345
833.991	23421
834.129	23520
834.267	23520
834.406	23429
834.544	23402
834.682	23448
834.821	23516
834.959	23391
835.097	23303
835.235	23406
835.373	23376
835.511	23315
835.65	23288
835.788	23398
835.926	23136
836.064	23071
836.202	23102
836.34	23231
836.478	23345
836.615	23261
836.753	23303
836.891	23231
837.029	23258
837.167	23052
837.305	23147
837.443	23227
837.58	23121
837.718	23113
837.856	23140
837.993	22927
838.131	23041
838.269	23067
838.406	23048
838.544	23037
838.681	22748
838.819	22816
838.956	22443
839.094	22618
839.231	22630
839.369	22706
839.506	22949
839.643	22793
839.781	22637
839.918	22550
840.055	22630
840.193	22569
840.33	22531
840.467	22538
840.604	22542
840.742	22805
840.879	22356
841.016	22398
841.153	22531
841.29	22478
841.427	22443
841.564	22527
841.701	22596
841.838	22493
841.975	22382
842.112	22424
842.249	22436
842.385	22329
842.522	22557
842.659	22462
842.796	22223
842.933	22234
843.069	22284
843.206	22173
843.343	22299
843.479	22215
843.616	22329
843.752	21983
843.889	22063
844.025	22063
844.162	22078
844.298	22120
844.435	21926
844.571	21956
844.708	22131
844.844	22314
844.98	22154
845.117	22135
845.253	21949
845.389	21812
845.525	22029
845.661	21941
845.798	21709
845.934	21770
846.07	21770
846.206	21751
846.342	21865
846.478	21770
846.614	21686
846.75	21511
846.886	21561
847.022	21576
847.158	21580
847.294	21614
847.429	21511
847.565	21439
847.701	21759
847.837	21359
847.972	21329
848.108	21439
848.244	21348
848.379	21203
848.515	21138
848.65	21218
848.786	21100
848.921	21203
849.057	21230
849.192	21119
849.328	21154
849.463	21112
849.598	21112
849.734	21131
849.869	20910
850.004	20777
850.14	20849
850.275	20815
850.41	20674
850.545	20792
850.68	20762
850.815	20963
850.95	20880
851.085	21039
851.22	21036
851.355	20861
851.49	20792
851.625	20785
851.76	20868
851.895	20785
852.03	20792
852.165	20914
852.299	20910
852.434	20941
852.569	20975
852.703	20834
852.838	20948
852.973	21077
853.107	20960
853.242	20925
853.376	20693
853.511	20579
853.645	20651
853.78	20845
853.914	20705
854.048	20670
854.183	20693
854.317	20807
854.451	20963
854.585	20636
854.72	20750
854.854	20693
854.988	20613
855.122	20613
855.256	20495
855.39	20659
855.524	20823
855.658	20644
855.792	20629
855.926	20727
856.06	20731
856.194	20708
856.327	20678
856.461	20568
856.595	20670
856.729	20720
856.862	20788
856.996	20693
857.13	20609
857.263	20998
857.397	20781
857.53	20644
857.664	20807
857.797	20762
857.931	20819
858.064	20781
858.197	20834
858.331	20625
858.464	20670
858.597	20632
858.731	20838
858.864	20720
858.997	20705
859.13	20602
859.263	20777
859.396	20746
859.529	20590
859.662	20769
859.795	20598
859.928	20682
860.061	20925
860.194	20834
860.327	20769
860.46	20663
860.592	20834
860.725	20895
860.858	20769
860.99	20819
861.123	20587
861.256	20705
861.388	20667
861.521	21462
861.653	20678
861.786	20465
861.918	20503
862.05	20617
862.183	20708
862.315	20598
862.447	20804
862.58	20598
862.712	20465
862.844	20434
862.976	20431
863.108	20473
863.24	20872
863.372	20476
863.504	20431
863.636	20377
863.768	20393
863.9	20473
864.032	20389
864.164	20484
864.296	20301
864.428	20583
864.559	20560
864.691	20450
864.823	20438
864.954	20366
865.086	20427
865.217	20450
865.349	20225
865.48	20370
865.612	20324
865.743	20450
865.875	20396
866.006	20206
866.137	20362
866.269	20309
866.4	20339
866.531	20298
866.662	20233
866.793	20248
866.924	20278
867.055	20408
867.186	20275
867.317	20275
867.448	20161
867.579	20229
867.71	20237
867.841	20298
867.972	20355
868.103	20275
868.233	20240
868.364	20267
868.495	20366
868.625	20541
868.756	20606
868.886	20457
869.017	20454
869.147	20731
869.278	20659
869.408	20530
869.539	20400
869.669	20533
869.799	20602
869.929	20693
870.06	20530
870.19	20781
870.32	20796
870.45	20849
870.58	20910
870.71	20979
870.84	20956
870.97	20906
871.1	20868
871.23	21074
871.36	21184
871.489	21036
871.619	20941
871.749	21104
871.879	21138
872.008	21119
872.138	21108
872.267	21058
872.397	20990
872.526	20998
872.656	20929
872.785	20979
872.915	21119
873.044	21214
873.173	21157
873.303	21188
873.432	21165
873.561	21306
873.69	21104
873.819	21077
873.948	21199
874.077	21207
874.206	21074
874.335	21188
874.464	21207
874.593	21466
874.722	21180
874.851	21431
874.979	21515
875.108	21477
875.237	21332
875.365	21332
875.494	21268
875.623	21511
875.751	21355
875.88	21313
876.008	21641
876.136	21648
876.265	21823
876.393	21895
876.521	21926
876.65	21876
876.778	21865
876.906	21705
877.034	21633
877.162	21686
877.29	21660
877.418	21732
877.546	21888
877.674	21823
877.802	21705
877.93	21743
878.058	21717
878.185	21667
878.313	21774
878.441	21751
878.568	21481
878.696	21603
878.824	21743
878.951	21846
879.079	21918
879.206	21991
879.333	21827
879.461	21854
879.588	21865
879.715	21789
879.842	22029
879.97	21762
880.097	21542
880.224	21580
880.351	21561
880.478	21610
880.605	21507
880.732	21511
880.859	21698
880.986	21572
881.112	21572
881.239	21458
881.366	21233
881.493	21249
881.619	21241
881.746	21226
881.872	21150
881.999	21028
882.125	21039
882.252	21157
882.378	21146
882.505	21211
882.631	20937
882.757	20883
882.883	20872
883.01	20876
883.136	20902
883.262	20712
883.388	20724
883.514	20876
883.64	20819
883.766	20826
883.892	20587
884.018	20617
884.143	20792
884.269	20777
884.395	20549
884.52	20514
884.646	20609
884.772	20438
884.897	20423
885.023	20389
885.148	20568
885.274	20621
885.399	20537
885.524	20358
885.65	20480
885.775	20484
885.9	20381
886.025	20568
886.15	20587
886.275	20476
886.4	20370
886.525	20396
886.65	20415
886.775	20370
886.9	20602
887.025	20708
887.149	20571
887.274	20301
887.399	20336
887.523	20256
887.648	20259
887.773	20092
887.897	20389
888.021	20298
888.146	20161
888.27	20461
888.395	20393
888.519	20381
888.643	20377
888.767	20358
888.891	20240
889.015	20145
889.139	20107
889.263	20001
889.387	20275
889.511	20278
889.635	20180
889.759	20100
889.883	20138
890.006	20157
890.13	20161
890.254	20073
890.377	20084
890.501	19849
890.624	19765
890.748	19879
890.871	19715
890.995	19609
891.118	19556
891.241	19651
891.364	19712
891.488	19712
891.611	19681
891.734	19616
891.857	19693
891.98	19575
892.103	19742
892.226	19601
892.349	19670
892.471	19392
892.594	19639
892.717	19662
892.839	19495
892.962	19563
893.085	19613
893.207	19616
893.33	19460
893.452	19487
893.575	19643
893.697	19609
893.819	19685
893.941	19750
894.064	19670
894.186	19460
894.308	19521
894.43	19639
894.552	19715
894.674	19689
894.796	19487
894.918	19552
895.04	19525
895.161	19620
895.283	19601
895.405	19578
895.526	19616
895.648	19495
895.769	19567
895.891	19544
896.012	19647
896.134	19651
896.255	19624
896.376	19480
896.498	19529
896.619	19647
896.74	19514
896.861	19677
896.982	19936
897.103	20111
897.224	19849
897.345	19734
897.466	19738
897.587	19723
897.708	19921
897.828	19727
897.949	19765
898.07	19651
898.19	19731
898.311	19830
898.431	19811
898.552	19772
898.672	19917
898.792	19982
898.913	19803
899.033	19639
899.153	19632
899.273	19533
899.393	19514
899.513	19624
899.633	19533
899.753	19563
899.873	19601
899.993	19624
900.113	19502
900.232	19529
900.352	19518
900.472	19415
900.591	19312
900.711	19362
900.83	19304
900.95	19354
901.069	19415
901.189	19206
901.308	18989
901.427	18943
901.546	18901
901.665	18935
901.784	18981
901.904	18787
902.023	18673
902.141	18403
902.26	18532
902.379	18528
902.498	18437
902.617	18376
902.735	18464
902.854	18338
902.973	18353
903.091	18140
903.21	18159
903.328	18106
903.446	17999
903.565	17961
903.683	17999
903.801	17802
903.919	17973
904.038	17885
904.156	17703
904.274	17821
904.392	17726
904.51	17756
904.627	17604
904.745	17703
904.863	17794
904.981	17486
905.098	17315
905.216	17391
905.334	17387
905.451	17455
905.569	17322
905.686	17433
905.803	17349
905.921	17075
906.038	17288
906.155	17220
906.272	17037
906.389	17132
906.506	16949
906.623	17048
906.74	16904
906.857	16927
906.974	16805
907.091	16968
907.208	17006
907.324	17014
907.441	16744
907.557	16565
907.674	16573
907.79	16550
907.907	16561
908.023	16656
908.139	16618
908.256	16630
908.372	16531
908.488	16569
908.604	16424
908.72	16272
908.836	16398
908.952	16341
909.068	16443
909.184	16470
909.3	16428
909.415	16432
909.531	16356
909.647	16143
909.762	16105
909.878	16013
909.993	16120
910.108	16025
910.224	16025
910.339	16063
910.454	16063
910.57	15884
910.685	15850
910.8	16131
910.915	15979
911.03	15907
911.145	15766
911.259	15637
911.374	15713
911.489	15698
911.604	15637
911.718	15469
911.833	15439
911.947	15454
912.062	15317
912.176	15473
912.291	15507
912.405	15492
912.519	15675
912.633	15747
912.748	15515
912.862	15424
912.976	15283
913.09	15169
913.204	15249
913.318	15294
913.431	15256
913.545	15450
913.659	15447
913.772	15294
913.886	15104
914	15024
914.113	15066
914.226	15104
914.34	15146
914.453	14990
914.566	15062
914.68	14864
914.793	14960
914.906	14781
915.019	14648
915.132	14625
915.245	14739
915.358	14731
915.47	14720
915.583	14674
915.696	14743
915.809	14804
915.921	14883
916.034	14621
916.146	14648
916.259	14594
916.371	14621
916.483	14583
916.595	14533
916.708	14526
916.82	14571
916.932	14423
917.044	14511
917.156	14434
917.268	14336
917.38	14358
917.491	14294
917.603	14366
917.715	14442
917.826	14412
917.938	14358
918.049	14153
918.161	14389
918.272	14465
918.384	14446
918.495	14309
918.606	14111
918.717	14138
918.828	14164
918.939	14183
919.05	14054
919.161	14134
919.272	13947
919.383	13986
919.494	14134
919.604	14320
919.715	14100
919.826	14058
919.936	14031
920.047	14157
920.157	14027
920.267	14294
920.378	14161
920.488	14088
920.598	14278
920.708	14301
920.818	14119
920.928	14199
921.038	14366
921.148	14351
921.258	14084
921.368	13967
921.477	13928
921.587	13887
921.697	13700
921.806	13811
921.916	13639
922.025	13464
922.134	13529
922.244	13453
922.353	13575
922.462	13472
922.571	13316
922.68	13270
922.789	13149
922.898	13175
923.007	13110
923.116	13209
923.224	13103
923.333	13145
923.442	13000
923.55	13008
923.659	12977
923.767	12996
923.876	12897
923.984	13133
924.092	12932
924.201	12901
924.309	12962
924.417	12905
924.525	12772
924.633	12844
924.741	13807
924.849	12589
924.956	12730
925.064	12559
925.172	12509
925.279	12544
925.387	12585
925.494	12479
925.602	12570
925.709	12722
925.816	12452
925.924	12521
926.031	12612
926.138	12498
926.245	12612
926.352	12464
926.459	12604
926.566	12639
926.673	12407
926.779	12289
926.886	12262
926.993	12270
927.099	12083
927.206	12194
927.312	12068
927.419	12148
927.525	12125
927.631	12167
927.737	12060
927.843	11996
927.95	11874
928.056	11954
928.162	12022
928.267	12030
928.373	12658
928.479	12110
928.585	11832
928.69	11916
928.796	11992
928.901	11859
929.007	11684
929.112	11817
929.218	11794
929.323	11691
929.428	11809
929.533	11821
929.638	11794
929.743	11672
929.848	11699
929.953	11657
930.058	11577
930.163	11402
930.267	11448
930.372	11512
930.477	11318
930.581	11661
930.685	11356
930.79	11258
930.894	11368
930.998	11197
931.103	11425
931.207	10976
931.311	11033
931.415	10896
931.519	10698
931.623	10710
