Data from test_V78500241_2605.txt Node
Date: Fri Mar 25 15:27:59 CST 2022
User: usil
Spectrometer: V785-0024
Trigger mode: 0
Integration Time (sec): 4.000000E-1
Scans to average: 1
Nonlinearity correction enabled: false
Boxcar width: 0
Storing dark spectrum: false
XAxis mode: Wavelengths
Number of Pixels in Spectrum: 1024
>>>>>Begin Spectral Data<<<<<
801.071	27127
801.214	27173
801.356	26887
801.499	26857
801.641	26781
801.783	26678
801.926	26724
802.068	26708
802.211	26514
802.353	26545
802.496	26408
802.638	26385
802.78	26317
802.923	26336
803.065	26168
803.208	26408
803.35	26351
803.492	26381
803.635	26552
803.777	26347
803.919	26453
804.061	26765
804.204	26499
804.346	26457
804.488	26374
804.63	26556
804.773	26336
804.915	26522
805.057	26617
805.199	26533
805.341	26644
805.483	26750
805.626	26716
805.768	26404
805.91	26552
806.052	26781
806.194	26727
806.336	26701
806.478	26659
806.62	26579
806.762	26686
806.904	26804
807.046	27093
807.188	27032
807.33	27112
807.472	27112
807.614	27013
807.756	27051
807.898	26788
808.04	26849
808.182	26910
808.324	26868
808.465	26937
808.607	27062
808.749	27131
808.891	27249
809.033	27260
809.174	27272
809.316	27310
809.458	27207
809.6	27279
809.741	27405
809.883	27344
810.025	27473
810.166	27401
810.308	27500
810.45	27477
810.591	27561
810.733	27211
810.875	27142
811.016	27051
811.158	27192
811.299	27287
811.441	27435
811.582	27211
811.724	27291
811.865	27260
812.007	27116
812.148	27085
812.29	27104
812.431	27294
812.573	27393
812.714	27736
812.855	27781
812.997	27804
813.138	27884
813.279	27797
813.421	27717
813.562	27606
813.703	27519
813.845	27287
813.986	27036
814.127	26982
814.268	26883
814.41	26845
814.551	26792
814.692	26845
814.833	26765
814.974	26712
815.115	26758
815.256	26583
815.397	26678
815.539	26537
815.68	26533
815.821	26575
815.962	26644
816.103	26560
816.244	26438
816.385	26385
816.526	26210
816.666	26210
816.807	26043
816.948	26069
817.089	26050
817.23	26157
817.371	26039
817.512	26031
817.653	26024
817.793	26073
817.934	26081
818.075	26065
818.216	26122
818.356	25993
818.497	25894
818.638	25757
818.778	25818
818.919	25841
819.06	25871
819.2	26084
819.341	26088
819.481	25875
819.622	26259
819.762	26427
819.903	26381
820.043	26286
820.184	26073
820.324	26252
820.465	26263
820.605	26259
820.746	26069
820.886	25947
821.026	26176
821.167	26233
821.307	26161
821.447	26096
821.588	26035
821.728	25868
821.868	25731
822.008	25499
822.149	25529
822.289	25396
822.429	25266
822.569	25259
822.709	25308
822.849	25141
822.99	25137
823.13	25084
823.27	25118
823.41	24905
823.55	24749
823.69	24798
823.83	24863
823.97	24707
824.11	24673
824.25	24544
824.389	24730
824.529	24817
824.669	24692
824.809	24760
824.949	24814
825.089	24715
825.228	24753
825.368	24384
825.508	24601
825.648	24486
825.787	24498
825.927	24555
826.067	24490
826.206	24525
826.346	24582
826.485	24654
826.625	24578
826.765	24661
826.904	24677
827.044	24433
827.183	24308
827.323	24277
827.462	24391
827.601	24315
827.741	24220
827.88	24308
828.02	24114
828.159	24152
828.298	24247
828.437	24350
828.577	24243
828.716	24311
828.855	24209
828.994	24053
829.134	23946
829.273	24045
829.412	24034
829.551	24011
829.69	24030
829.829	24076
829.968	24136
830.107	24083
830.246	24034
830.385	24003
830.524	23893
830.663	23912
830.802	23714
830.941	23577
831.08	23638
831.219	23779
831.357	23783
831.496	23878
831.635	23699
831.774	23535
831.913	23448
832.051	23509
832.19	23307
832.329	23345
832.467	23387
832.606	23292
832.744	23334
832.883	23341
833.022	23155
833.16	23246
833.299	23440
833.437	23322
833.576	23296
833.714	23391
833.852	23364
833.991	23444
834.129	23353
834.267	23341
834.406	23341
834.544	23482
834.682	23395
834.821	23288
834.959	23551
835.097	23246
835.235	23402
835.373	23383
835.511	23269
835.65	23151
835.788	23174
835.926	23067
836.064	22991
836.202	23033
836.34	23170
836.478	23288
836.615	23204
836.753	23212
836.891	23349
837.029	23181
837.167	23170
837.305	23029
837.443	22980
837.58	23025
837.718	23029
837.856	23006
837.993	22987
838.131	23071
838.269	22991
838.406	22942
838.544	22957
838.681	22649
838.819	22729
838.956	22443
839.094	22607
839.231	22634
839.369	22908
839.506	23018
839.643	22710
839.781	22569
839.918	22622
840.055	22531
840.193	22561
840.33	22360
840.467	22470
840.604	22584
840.742	22748
840.879	22504
841.016	22447
841.153	22306
841.29	22519
841.427	22356
841.564	22417
841.701	22268
841.838	22375
841.975	22443
842.112	22379
842.249	22337
842.385	22310
842.522	22497
842.659	22215
842.796	22280
842.933	22249
843.069	22177
843.206	22223
843.343	22306
843.479	22242
843.616	22310
843.752	22002
843.889	21991
844.025	22162
844.162	22055
844.298	22051
844.435	22036
844.571	22059
844.708	22032
844.844	22120
844.98	22150
845.117	21941
845.253	21937
845.389	21842
845.525	21861
845.661	21895
845.798	21804
845.934	21800
846.07	21667
846.206	21705
846.342	21812
846.478	21728
846.614	21549
846.75	21477
846.886	21378
847.022	21523
847.158	21606
847.294	21504
847.429	21545
847.565	21359
847.701	21701
847.837	21249
847.972	21195
848.108	21321
848.244	21416
848.379	21211
848.515	21116
848.65	21085
848.786	21184
848.921	21108
849.057	21176
849.192	21127
849.328	21047
849.463	21104
849.598	21085
849.734	20948
849.869	20979
850.004	20826
850.14	20857
850.275	20834
850.41	20762
850.545	20800
850.68	20796
850.815	20819
850.95	20807
851.085	20864
851.22	20899
851.355	20826
851.49	20838
851.625	20667
851.76	20731
851.895	20804
852.03	20750
852.165	20849
852.299	20857
852.434	20948
852.569	20887
852.703	20682
852.838	20853
852.973	20948
853.107	20925
853.242	20750
853.376	20663
853.511	20583
853.645	20590
853.78	20689
853.914	20667
854.048	20606
854.183	20632
854.317	20556
854.451	20937
854.585	20743
854.72	20701
854.854	20727
854.988	20552
855.122	20682
855.256	20541
855.39	20564
855.524	20689
855.658	20655
855.792	20640
855.926	20739
856.06	20674
856.194	20887
856.327	20655
856.461	20587
856.595	20594
856.729	20533
856.862	20750
856.996	20754
857.13	20716
857.263	20804
857.397	20712
857.53	20651
857.664	20739
857.797	20644
857.931	20781
858.064	20564
858.197	20819
858.331	20556
858.464	20511
858.597	20545
858.731	20617
858.864	20686
858.997	20621
859.13	20712
859.263	20678
859.396	20712
859.529	20670
859.662	20693
859.795	20693
859.928	20590
860.061	20883
860.194	20853
860.327	20697
860.46	20758
860.592	20758
860.725	20876
860.858	20819
860.99	20705
861.123	20594
861.256	20629
861.388	20648
861.521	21378
861.653	20533
861.786	20488
861.918	20590
862.05	20537
862.183	20568
862.315	20575
862.447	20659
862.58	20640
862.712	20457
862.844	20427
862.976	20522
863.108	20480
863.24	20910
863.372	20351
863.504	20404
863.636	20339
863.768	20393
863.9	20434
864.032	20370
864.164	20381
864.296	20362
864.428	20469
864.559	20450
864.691	20495
864.823	20404
864.954	20431
865.086	20408
865.217	20248
865.349	20271
865.48	20248
865.612	20347
865.743	20370
865.875	20199
866.006	20244
866.137	20221
866.269	20214
866.4	20278
866.531	20248
866.662	20065
866.793	20202
866.924	20320
867.055	20248
867.186	20252
867.317	20191
867.448	20240
867.579	20180
867.71	20153
867.841	20206
867.972	20115
868.103	20244
868.233	20225
868.364	20256
868.495	20210
868.625	20377
868.756	20438
868.886	20423
869.017	20514
869.147	20549
869.278	20648
869.408	20606
869.539	20511
869.669	20530
869.799	20522
869.929	20651
870.06	20629
870.19	20845
870.32	20807
870.45	20811
870.58	20902
870.71	21108
870.84	20895
870.97	20826
871.1	20781
871.23	20910
871.36	21001
871.489	21013
871.619	21039
871.749	21020
871.879	21116
872.008	21230
872.138	21089
872.267	21108
872.397	21013
872.526	20891
872.656	20948
872.785	20956
872.915	21138
873.044	21142
873.173	21154
873.303	21218
873.432	21127
873.561	21211
873.69	21116
873.819	21176
873.948	21070
874.077	21123
874.206	21005
874.335	21039
874.464	21100
874.593	21310
874.722	21138
874.851	21306
874.979	21317
875.108	21302
875.237	21291
875.365	21146
875.494	21325
875.623	21450
875.751	21237
875.88	21382
876.008	21420
876.136	21671
876.265	21682
876.393	21968
876.521	21873
876.65	21895
876.778	21675
876.906	21603
877.034	21671
877.162	21720
877.29	21572
877.418	21660
877.546	21736
877.674	21804
877.802	21656
877.93	21800
878.058	21572
878.185	21641
878.313	21629
878.441	21629
878.568	21378
878.696	21690
878.824	21724
878.951	21759
879.079	21884
879.206	21941
879.333	21838
879.461	21724
879.588	21759
879.715	21960
879.842	21915
879.97	21778
880.097	21545
880.224	21568
880.351	21511
880.478	21481
880.605	21412
880.732	21492
880.859	21720
880.986	21416
881.112	21447
881.239	21260
881.366	21203
881.493	21203
881.619	20998
881.746	21100
881.872	21104
881.999	21173
882.125	20998
882.252	21089
882.378	21070
882.505	21157
882.631	21013
882.757	20868
882.883	20979
883.01	20716
883.136	20925
883.262	20632
883.388	20667
883.514	20823
883.64	20811
883.766	20811
883.892	20674
884.018	20613
884.143	20648
884.269	20800
884.395	20499
884.52	20389
884.646	20545
884.772	20412
884.897	20240
885.023	20450
885.148	20469
885.274	20545
885.399	20644
885.524	20473
885.65	20408
885.775	20415
885.9	20446
886.025	20564
886.15	20537
886.275	20339
886.4	20355
886.525	20404
886.65	20271
886.775	20434
886.9	20495
887.025	20545
887.149	20381
887.274	20339
887.399	20214
887.523	20328
887.648	20267
887.773	20252
887.897	20366
888.021	20313
888.146	20164
888.27	20355
888.395	20374
888.519	20290
888.643	20317
888.767	20191
888.891	20073
889.015	20024
889.139	20084
889.263	20039
889.387	20043
889.511	20172
889.635	20142
889.759	20062
889.883	19974
890.006	20138
890.13	20077
890.254	19856
890.377	19849
890.501	19772
890.624	19791
890.748	19902
890.871	19738
890.995	19578
891.118	19506
891.241	19655
891.364	19647
891.488	19757
891.611	19582
891.734	19658
891.857	19685
891.98	19594
892.103	19704
892.226	19552
892.349	19571
892.471	19403
892.594	19434
892.717	19651
892.839	19582
892.962	19529
893.085	19605
893.207	19590
893.33	19327
893.452	19449
893.575	19590
893.697	19518
893.819	19643
893.941	19655
894.064	19677
894.186	19480
894.308	19449
894.43	19548
894.552	19635
894.674	19605
894.796	19392
894.918	19575
895.04	19434
895.161	19571
895.283	19567
895.405	19483
895.526	19571
895.648	19434
895.769	19403
895.891	19616
896.012	19628
896.134	19582
896.255	19457
896.376	19556
896.498	19533
896.619	19457
896.74	19533
896.861	19582
896.982	19784
897.103	19909
897.224	19693
897.345	19723
897.466	19731
897.587	19727
897.708	19871
897.828	19822
897.949	19693
898.07	19575
898.19	19700
898.311	19799
898.431	19700
898.552	19795
898.672	19860
898.792	19852
898.913	19655
899.033	19605
899.153	19491
899.273	19343
899.393	19681
899.513	19731
899.633	19578
899.753	19506
899.873	19521
899.993	19616
900.113	19502
900.232	19521
900.352	19324
900.472	19308
900.591	19362
900.711	19411
900.83	19179
900.95	19339
901.069	19320
901.189	19137
901.308	18989
901.427	18753
901.546	18875
901.665	18863
901.784	18890
901.904	18806
902.023	18658
902.141	18604
902.26	18494
902.379	18620
902.498	18403
902.617	18395
902.735	18391
902.854	18308
902.973	18292
903.091	18155
903.21	18106
903.328	18091
903.446	18045
903.565	17935
903.683	17969
903.801	17699
903.919	17950
904.038	17961
904.156	17657
904.274	17684
904.392	17585
904.51	17634
904.627	17748
904.745	17649
904.863	17707
904.981	17554
905.098	17360
905.216	17345
905.334	17406
905.451	17334
905.569	17296
905.686	17239
905.803	17296
905.921	17041
906.038	17341
906.155	17083
906.272	16984
906.389	17010
906.506	16953
906.623	16957
906.74	16881
906.857	16733
906.974	16809
907.091	16946
907.208	16999
907.324	16809
907.441	16759
907.557	16611
907.674	16702
907.79	16607
907.907	16478
908.023	16634
908.139	16611
908.256	16470
908.372	16493
908.488	16478
908.604	16428
908.72	16230
908.836	16474
908.952	16284
909.068	16371
909.184	16375
909.3	16291
909.415	16432
909.531	16348
909.647	16036
909.762	16093
909.878	16013
909.993	16082
910.108	16010
910.224	16063
910.339	15911
910.454	15873
910.57	15861
910.685	15747
910.8	16097
910.915	16093
911.03	15915
911.145	15679
911.259	15652
911.374	15713
911.489	15648
911.604	15496
911.718	15313
911.833	15454
911.947	15412
912.062	15252
912.176	15553
912.291	15401
912.405	15435
912.519	15625
912.633	15606
912.748	15405
912.862	15401
912.976	15310
913.09	15051
913.204	15104
913.318	15260
913.431	15252
913.545	15340
913.659	15348
913.772	15146
913.886	15070
914	14975
914.113	15089
914.226	15195
914.34	15116
914.453	14948
914.566	15108
914.68	14998
914.793	14899
914.906	14792
915.019	14598
915.132	14590
915.245	14705
915.358	14556
915.47	14663
915.583	14651
915.696	14781
915.809	14743
915.921	14765
916.034	14590
916.146	14530
916.259	14518
916.371	14571
916.483	14644
916.595	14518
916.708	14617
916.82	14571
916.932	14423
917.044	14351
917.156	14480
917.268	14290
917.38	14298
917.491	14309
917.603	14221
917.715	14389
917.826	14408
917.938	14282
918.049	14210
918.161	14328
918.272	14336
918.384	14438
918.495	14286
918.606	14123
918.717	14073
918.828	14031
918.939	14088
919.05	14107
919.161	13967
919.272	13925
919.383	13940
919.494	14054
919.604	14218
919.715	14039
919.826	14031
919.936	14016
920.047	14107
920.157	14039
920.267	14290
920.378	14073
920.488	14077
920.598	14130
920.708	14298
920.818	14214
920.928	14107
921.038	14339
921.148	14343
921.258	14123
921.368	13974
921.477	13841
921.587	13780
921.697	13601
921.806	13799
921.916	13670
922.025	13495
922.134	13525
922.244	13362
922.353	13388
922.462	13396
922.571	13285
922.68	13164
922.789	13126
922.898	13076
923.007	13050
923.116	13126
923.224	13038
923.333	13038
923.442	12989
923.55	12909
923.659	13023
923.767	12913
923.876	12886
923.984	13042
924.092	12791
924.201	12951
924.309	12867
924.417	12833
924.525	12757
924.633	12757
924.741	13788
924.849	12597
924.956	12650
925.064	12555
925.172	12418
925.279	12555
925.387	12582
925.494	12525
925.602	12669
925.709	12589
925.816	12410
925.924	12475
926.031	12547
926.138	12486
926.245	12426
926.352	12441
926.459	12544
926.566	12631
926.673	12403
926.779	12319
926.886	12304
926.993	12110
927.099	12136
927.206	12083
927.312	12019
927.419	12152
927.525	12190
927.631	12178
927.737	12045
927.843	12038
927.95	11866
928.056	11980
928.162	11961
928.267	11996
928.373	12528
928.479	12087
928.585	11779
928.69	11904
928.796	11920
928.901	11901
929.007	11786
929.112	11821
929.218	11817
929.323	11672
929.428	11688
929.533	11802
929.638	11592
929.743	11608
929.848	11745
929.953	11691
930.058	11615
930.163	11376
930.267	11387
930.372	11554
930.477	11322
930.581	11558
930.685	11383
930.79	11318
930.894	11326
930.998	11254
931.103	11376
931.207	11010
931.311	10957
931.415	10938
931.519	10645
931.623	10637
