Data from test_V78500241_2306.txt Node
Date: Fri Mar 25 15:25:54 CST 2022
User: usil
Spectrometer: V785-0024
Trigger mode: 0
Integration Time (sec): 4.000000E-1
Scans to average: 1
Nonlinearity correction enabled: false
Boxcar width: 0
Storing dark spectrum: false
XAxis mode: Wavelengths
Number of Pixels in Spectrum: 1024
>>>>>Begin Spectral Data<<<<<
801.071	27310
801.214	27192
801.356	26975
801.499	26971
801.641	26754
801.783	26807
801.926	26861
802.068	26720
802.211	26678
802.353	26663
802.496	26488
802.638	26480
802.78	26199
802.923	26374
803.065	26233
803.208	26221
803.35	26484
803.492	26545
803.635	26526
803.777	26233
803.919	26492
804.061	26811
804.204	26511
804.346	26408
804.488	26438
804.63	26446
804.773	26552
804.915	26579
805.057	26663
805.199	26446
805.341	26609
805.483	26632
805.626	26705
805.768	26507
805.91	26727
806.052	26697
806.194	26594
806.336	26868
806.478	26648
806.62	26670
806.762	26754
806.904	26956
807.046	27146
807.188	27093
807.33	27146
807.472	27028
807.614	26952
807.756	27142
807.898	26963
808.04	26864
808.182	26906
808.324	26891
808.465	27070
808.607	27157
808.749	27203
808.891	27310
809.033	27382
809.174	27241
809.316	27214
809.458	27154
809.6	27214
809.741	27405
809.883	27211
810.025	27637
810.166	27302
810.308	27568
810.45	27416
810.591	27363
810.733	27310
810.875	27165
811.016	27119
811.158	27051
811.299	27313
811.441	27405
811.582	27317
811.724	27252
811.865	27180
812.007	27294
812.148	27116
812.29	27214
812.431	27416
812.573	27534
812.714	27576
812.855	27762
812.997	27793
813.138	28063
813.279	27770
813.421	27892
813.562	27530
813.703	27447
813.845	27485
813.986	27024
814.127	27043
814.268	26834
814.41	26910
814.551	26849
814.692	26891
814.833	26701
814.974	26906
815.115	27013
815.256	26952
815.397	26857
815.539	26754
815.68	26629
815.821	26632
815.962	26659
816.103	26674
816.244	26514
816.385	26613
816.526	26469
816.666	26294
816.807	26176
816.948	26077
817.089	26259
817.23	26176
817.371	26103
817.512	26122
817.653	26153
817.793	26157
817.934	26084
818.075	26183
818.216	26172
818.356	26039
818.497	26016
818.638	25883
818.778	25879
818.919	25902
819.06	26031
819.2	26039
819.341	26164
819.481	26145
819.622	26438
819.762	26408
819.903	26377
820.043	26351
820.184	26339
820.324	26248
820.465	26309
820.605	26290
820.746	26210
820.886	26183
821.026	26202
821.167	26313
821.307	26229
821.447	26119
821.588	26142
821.728	26077
821.868	25909
822.008	25681
822.149	25723
822.289	25620
822.429	25381
822.569	25236
822.709	25335
822.849	25190
822.99	25088
823.13	25053
823.27	25103
823.41	25004
823.55	24817
823.69	24901
823.83	24954
823.97	24916
824.11	24665
824.25	24654
824.389	24726
824.529	24798
824.669	24757
824.809	24821
824.949	24844
825.089	24745
825.228	24654
825.368	24642
825.508	24445
825.648	24745
825.787	24612
825.927	24642
826.067	24540
826.206	24532
826.346	24631
826.485	24578
826.625	24608
826.765	24677
826.904	24616
827.044	24296
827.183	24357
827.323	24289
827.462	24452
827.601	24426
827.741	24251
827.88	24338
828.02	24247
828.159	24209
828.298	24433
828.437	24422
828.577	24289
828.716	24407
828.855	24224
828.994	24057
829.134	23916
829.273	23973
829.412	23988
829.551	23931
829.69	23897
829.829	23980
829.968	24057
830.107	24095
830.246	24034
830.385	23920
830.524	23912
830.663	23863
830.802	23703
830.941	23653
831.08	23596
831.219	23752
831.357	23668
831.496	23836
831.635	23649
831.774	23539
831.913	23486
832.051	23554
832.19	23406
832.329	23318
832.467	23383
832.606	23231
832.744	23242
832.883	23356
833.022	23174
833.16	23261
833.299	23277
833.437	23364
833.576	23315
833.714	23326
833.852	23417
833.991	23467
834.129	23528
834.267	23398
834.406	23425
834.544	23360
834.682	23330
834.821	23288
834.959	23402
835.097	23406
835.235	23368
835.373	23322
835.511	23364
835.65	23197
835.788	23174
835.926	23212
836.064	23003
836.202	23041
836.34	23258
836.478	23250
836.615	23124
836.753	23185
836.891	23261
837.029	23235
837.167	23105
837.305	23014
837.443	23022
837.58	22995
837.718	23079
837.856	22976
837.993	22942
838.131	23037
838.269	22877
838.406	22968
838.544	22987
838.681	22683
838.819	22759
838.956	22550
839.094	22512
839.231	22672
839.369	22816
839.506	22938
839.643	22774
839.781	22436
839.918	22398
840.055	22481
840.193	22565
840.33	22428
840.467	22516
840.604	22470
840.742	22687
840.879	22341
841.016	22356
841.153	22424
841.29	22584
841.427	22436
841.564	22481
841.701	22459
841.838	22428
841.975	22421
842.112	22310
842.249	22219
842.385	22230
842.522	22402
842.659	22360
842.796	22207
842.933	22166
843.069	22257
843.206	22169
843.343	22265
843.479	22177
843.616	22204
843.752	21922
843.889	22048
844.025	22051
844.162	21994
844.298	22006
844.435	21979
844.571	21926
844.708	21968
844.844	22063
844.98	22185
845.117	22059
845.253	21755
845.389	21934
845.525	21903
845.661	21808
845.798	21736
845.934	21698
846.07	21663
846.206	21751
846.342	21812
846.478	21641
846.614	21530
846.75	21321
846.886	21511
847.022	21606
847.158	21534
847.294	21572
847.429	21504
847.565	21458
847.701	21629
847.837	21199
847.972	21233
848.108	21245
848.244	21199
848.379	21055
848.515	20944
848.65	20948
848.786	21036
848.921	21081
849.057	21089
849.192	21146
849.328	21051
849.463	21089
849.598	21001
849.734	20956
849.869	20891
850.004	20800
850.14	20842
850.275	20842
850.41	20735
850.545	20739
850.68	20697
850.815	20830
850.95	20724
851.085	20956
851.22	20933
851.355	20864
851.49	20773
851.625	20842
851.76	20651
851.895	20587
852.03	20716
852.165	20682
852.299	20845
852.434	20880
852.569	20986
852.703	20819
852.838	20845
852.973	20941
853.107	20902
853.242	20777
853.376	20712
853.511	20434
853.645	20484
853.78	20781
853.914	20689
854.048	20492
854.183	20556
854.317	20636
854.451	20895
854.585	20697
854.72	20644
854.854	20720
854.988	20526
855.122	20560
855.256	20579
855.39	20590
855.524	20686
855.658	20678
855.792	20503
855.926	20621
856.06	20746
856.194	20533
856.327	20549
856.461	20682
856.595	20484
856.729	20549
856.862	20571
856.996	20579
857.13	20552
857.263	20826
857.397	20720
857.53	20575
857.664	20636
857.797	20674
857.931	20735
858.064	20674
858.197	20758
858.331	20621
858.464	20571
858.597	20457
858.731	20568
858.864	20579
858.997	20587
859.13	20682
859.263	20571
859.396	20731
859.529	20602
859.662	20564
859.795	20636
859.928	20682
860.061	20689
860.194	20807
860.327	20651
860.46	20651
860.592	20689
860.725	20807
860.858	20842
860.99	20568
861.123	20503
861.256	20499
861.388	20640
861.521	21344
861.653	20545
861.786	20370
861.918	20404
862.05	20533
862.183	20514
862.315	20495
862.447	20579
862.58	20492
862.712	20339
862.844	20263
862.976	20522
863.108	20381
863.24	20773
863.372	20244
863.504	20404
863.636	20233
863.768	20332
863.9	20309
864.032	20351
864.164	20332
864.296	20336
864.428	20396
864.559	20469
864.691	20381
864.823	20393
864.954	20332
865.086	20336
865.217	20210
865.349	20138
865.48	20301
865.612	20358
865.743	20358
865.875	20256
866.006	20233
866.137	20267
866.269	20229
866.4	20237
866.531	20351
866.662	20298
866.793	20130
866.924	20168
867.055	20248
867.186	20164
867.317	20138
867.448	19986
867.579	20195
867.71	20069
867.841	20157
867.972	20168
868.103	20233
868.233	20191
868.364	20237
868.495	20225
868.625	20301
868.756	20476
868.886	20332
869.017	20362
869.147	20484
869.278	20476
869.408	20324
869.539	20465
869.669	20492
869.799	20450
869.929	20530
870.06	20476
870.19	20785
870.32	20644
870.45	20735
870.58	20781
870.71	20929
870.84	20921
870.97	20769
871.1	20880
871.23	20948
871.36	21081
871.489	20823
871.619	20925
871.749	20952
871.879	21051
872.008	21089
872.138	20937
872.267	21085
872.397	20887
872.526	20815
872.656	20933
872.785	20857
872.915	21070
873.044	21161
873.173	21017
873.303	20990
873.432	21013
873.561	21211
873.69	21039
873.819	20925
873.948	21161
874.077	21005
874.206	20998
874.335	21127
874.464	21142
874.593	21294
874.722	21233
874.851	21332
874.979	21302
875.108	21374
875.237	21287
875.365	21154
875.494	21180
875.623	21336
875.751	21344
875.88	21332
876.008	21420
876.136	21477
876.265	21724
876.393	21797
876.521	21759
876.65	21789
876.778	21747
876.906	21557
877.034	21713
877.162	21614
877.29	21637
877.418	21728
877.546	21694
877.674	21698
877.802	21603
877.93	21488
878.058	21462
878.185	21564
878.313	21641
878.441	21762
878.568	21477
878.696	21523
878.824	21694
878.951	21667
879.079	21857
879.206	21903
879.333	21778
879.461	21682
879.588	21713
879.715	21732
879.842	21865
879.97	21614
880.097	21420
880.224	21363
880.351	21496
880.478	21424
880.605	21416
880.732	21450
880.859	21656
880.986	21439
881.112	21534
881.239	21268
881.366	21233
881.493	21108
881.619	21165
881.746	21036
881.872	21066
881.999	20998
882.125	20960
882.252	21150
882.378	21058
882.505	21119
882.631	20914
882.757	20785
882.883	20807
883.01	20743
883.136	20785
883.262	20552
883.388	20602
883.514	20655
883.64	20735
883.766	20598
883.892	20587
884.018	20644
884.143	20724
884.269	20754
884.395	20492
884.52	20278
884.646	20480
884.772	20324
884.897	20229
885.023	20404
885.148	20598
885.274	20568
885.399	20465
885.524	20358
885.65	20313
885.775	20450
885.9	20317
886.025	20355
886.15	20385
886.275	20381
886.4	20267
886.525	20362
886.65	20343
886.775	20237
886.9	20442
887.025	20602
887.149	20332
887.274	20240
887.399	20161
887.523	20142
887.648	19978
887.773	20164
887.897	20176
888.021	20153
888.146	20058
888.27	20309
888.395	20218
888.519	20343
888.643	20164
888.767	20256
888.891	20180
889.015	19860
889.139	20161
889.263	19936
889.387	19997
889.511	20195
889.635	20168
889.759	19978
889.883	19913
890.006	19997
890.13	20065
890.254	19818
890.377	19936
890.501	19849
890.624	19818
890.748	19860
890.871	19643
890.995	19457
891.118	19613
891.241	19620
891.364	19495
891.488	19662
891.611	19544
891.734	19567
891.857	19571
891.98	19586
892.103	19540
892.226	19575
892.349	19464
892.471	19339
892.594	19502
892.717	19537
892.839	19483
892.962	19438
893.085	19468
893.207	19426
893.33	19464
893.452	19438
893.575	19651
893.697	19472
893.819	19594
893.941	19605
894.064	19601
894.186	19430
894.308	19430
894.43	19567
894.552	19643
894.674	19556
894.796	19324
894.918	19422
895.04	19350
895.161	19620
895.283	19533
895.405	19369
895.526	19590
895.648	19514
895.769	19480
895.891	19563
896.012	19552
896.134	19586
896.255	19518
896.376	19480
896.498	19499
896.619	19453
896.74	19472
896.861	19464
896.982	19811
897.103	19993
897.224	19841
897.345	19803
897.466	19742
897.587	19719
897.708	19902
897.828	19674
897.949	19696
898.07	19537
898.19	19624
898.311	19750
898.431	19582
898.552	19651
898.672	19826
898.792	19750
898.913	19769
899.033	19609
899.153	19354
899.273	19499
899.393	19533
899.513	19582
899.633	19453
899.753	19544
899.873	19460
899.993	19559
900.113	19415
900.232	19438
900.352	19449
900.472	19324
900.591	19179
900.711	19228
900.83	19179
900.95	19339
901.069	19388
901.189	19129
901.308	18970
901.427	18821
901.546	18840
901.665	18894
901.784	18871
901.904	18658
902.023	18707
902.141	18612
902.26	18566
902.379	18437
902.498	18369
902.617	18357
902.735	18369
902.854	18399
902.973	18319
903.091	18049
903.21	18057
903.328	17954
903.446	17897
903.565	17927
903.683	17931
903.801	17779
903.919	17786
904.038	17817
904.156	17687
904.274	17699
904.392	17665
904.51	17619
904.627	17687
904.745	17668
904.863	17718
904.981	17398
905.098	17440
905.216	17322
905.334	17356
905.451	17307
905.569	17265
905.686	17330
905.803	17417
905.921	16980
906.038	17208
906.155	17121
906.272	16927
906.389	17029
906.506	16850
906.623	16748
906.74	16824
906.857	16729
906.974	16733
907.091	16892
907.208	16930
907.324	16877
907.441	16721
907.557	16675
907.674	16519
907.79	16672
907.907	16424
908.023	16489
908.139	16649
908.256	16622
908.372	16512
908.488	16462
908.604	16303
908.72	16234
908.836	16325
908.952	16223
909.068	16375
909.184	16440
909.3	16386
909.415	16287
909.531	16291
909.647	16036
909.762	16067
909.878	15983
909.993	16006
910.108	15987
910.224	15899
910.339	16074
910.454	15895
910.57	15819
910.685	15819
910.8	15953
910.915	15918
911.03	15835
911.145	15675
911.259	15679
911.374	15644
911.489	15526
911.604	15568
911.718	15298
911.833	15374
911.947	15249
912.062	15195
912.176	15298
912.291	15329
912.405	15256
912.519	15561
912.633	15458
912.748	15370
912.862	15348
912.976	15203
913.09	15085
913.204	15074
913.318	15192
913.431	15329
913.545	15233
913.659	15275
913.772	15089
913.886	14948
914	14952
914.113	15138
914.226	15097
914.34	15039
914.453	14876
914.566	14979
914.68	14792
914.793	14781
914.906	14670
915.019	14659
915.132	14575
915.245	14587
915.358	14648
915.47	14613
915.583	14644
915.696	14625
915.809	14678
915.921	14663
916.034	14590
916.146	14526
916.259	14613
916.371	14617
916.483	14598
916.595	14473
916.708	14461
916.82	14507
916.932	14499
917.044	14298
917.156	14442
917.268	14286
917.38	14328
917.491	14153
917.603	14275
917.715	14309
917.826	14290
917.938	14202
918.049	14172
918.161	14271
918.272	14389
918.384	14408
918.495	14317
918.606	14088
918.717	14065
918.828	13978
918.939	14020
919.05	14046
919.161	14043
919.272	13837
919.383	13932
919.494	14065
919.604	14317
919.715	13944
919.826	14031
919.936	14020
920.047	14069
920.157	14031
920.267	14191
920.378	14111
920.488	13856
920.598	14256
920.708	14309
920.818	14214
920.928	14180
921.038	14214
921.148	14240
921.258	13940
921.368	13890
921.477	13746
921.587	13715
921.697	13689
921.806	13757
921.916	13647
922.025	13460
922.134	13453
922.244	13270
922.353	13415
922.462	13236
922.571	13247
922.68	13027
922.789	13095
922.898	13042
923.007	12989
923.116	13129
923.224	13046
923.333	13069
923.442	12947
923.55	12905
923.659	12894
923.767	12886
923.876	12886
923.984	12886
924.092	12772
924.201	12757
924.309	12821
924.417	12776
924.525	12741
924.633	12802
924.741	13719
924.849	12631
924.956	12635
925.064	12479
925.172	12471
925.279	12483
925.387	12551
925.494	12517
925.602	12677
925.709	12566
925.816	12426
925.924	12452
926.031	12559
926.138	12418
926.245	12433
926.352	12369
926.459	12517
926.566	12551
926.673	12410
926.779	12304
926.886	12304
926.993	12102
927.099	12003
927.206	12022
927.312	12072
927.419	12095
927.525	12057
927.631	12095
927.737	12003
927.843	11950
927.95	11809
928.056	11939
928.162	11984
928.267	11897
928.373	12407
928.479	11893
928.585	11767
928.69	11866
928.796	11866
928.901	11779
929.007	11638
929.112	11855
929.218	11760
929.323	11684
929.428	11562
929.533	11756
929.638	11589
929.743	11649
929.848	11608
929.953	11615
930.058	11501
930.163	11349
930.267	11440
930.372	11436
930.477	11227
930.581	11505
930.685	11406
930.79	11296
930.894	11231
930.998	11159
931.103	11436
931.207	11014
931.311	10923
931.415	10904
931.519	10740
931.623	10588
