Data from test_V78500241_2721.txt Node
Date: Fri Mar 25 15:28:48 CST 2022
User: usil
Spectrometer: V785-0024
Trigger mode: 0
Integration Time (sec): 4.000000E-1
Scans to average: 1
Nonlinearity correction enabled: false
Boxcar width: 0
Storing dark spectrum: false
XAxis mode: Wavelengths
Number of Pixels in Spectrum: 1024
>>>>>Begin Spectral Data<<<<<
801.071	27291
801.214	27184
801.356	26910
801.499	26880
801.641	26921
801.783	26705
801.926	26758
802.068	26769
802.211	26613
802.353	26636
802.496	26446
802.638	26408
802.78	26343
802.923	26168
803.065	26237
803.208	26267
803.35	26556
803.492	26415
803.635	26541
803.777	26484
803.919	26480
804.061	26811
804.204	26526
804.346	26575
804.488	26427
804.63	26511
804.773	26358
804.915	26537
805.057	26606
805.199	26545
805.341	26568
805.483	26609
805.626	26556
805.768	26423
805.91	26598
806.052	26655
806.194	26526
806.336	26830
806.478	26667
806.62	26682
806.762	26655
806.904	26792
807.046	26940
807.188	27036
807.33	27047
807.472	27127
807.614	26982
807.756	27017
807.898	26914
808.04	26804
808.182	26724
808.324	26918
808.465	26857
808.607	27108
808.749	27382
808.891	27317
809.033	27310
809.174	27192
809.316	27119
809.458	27245
809.6	27165
809.741	27340
809.883	27321
810.025	27523
810.166	27496
810.308	27466
810.45	27447
810.591	27348
810.733	27184
810.875	27233
811.016	27047
811.158	27173
811.299	27340
811.441	27329
811.582	27408
811.724	27180
811.865	27131
812.007	27013
812.148	27123
812.29	27306
812.431	27344
812.573	27564
812.714	27713
812.855	27663
812.997	27956
813.138	27956
813.279	27770
813.421	27660
813.562	27629
813.703	27443
813.845	27545
813.986	27093
814.127	26899
814.268	26895
814.41	26834
814.551	26845
814.692	26963
814.833	26807
814.974	26880
815.115	26899
815.256	26739
815.397	26625
815.539	26705
815.68	26621
815.821	26552
815.962	26678
816.103	26667
816.244	26457
816.385	26339
816.526	26434
816.666	26252
816.807	26172
816.948	26149
817.089	26187
817.23	26126
817.371	26111
817.512	26100
817.653	26100
817.793	26065
817.934	26073
818.075	26153
818.216	26031
818.356	26035
818.497	26020
818.638	25868
818.778	25966
818.919	25765
819.06	25837
819.2	26005
819.341	26164
819.481	26073
819.622	26298
819.762	26385
819.903	26298
820.043	26244
820.184	26339
820.324	26278
820.465	26119
820.605	26214
820.746	26218
820.886	26035
821.026	26290
821.167	26183
821.307	26183
821.447	26084
821.588	26027
821.728	25940
821.868	25734
822.008	25556
822.149	25681
822.289	25510
822.429	25339
822.569	25217
822.709	25251
822.849	25228
822.99	25080
823.13	25057
823.27	24981
823.41	24867
823.55	24825
823.69	24859
823.83	24867
823.97	24749
824.11	24604
824.25	24658
824.389	24642
824.529	24642
824.669	24848
824.809	24875
824.949	24863
825.089	24776
825.228	24749
825.368	24544
825.508	24517
825.648	24566
825.787	24544
825.927	24646
826.067	24540
826.206	24582
826.346	24688
826.485	24555
826.625	24464
826.765	24757
826.904	24665
827.044	24384
827.183	24380
827.323	24319
827.462	24391
827.601	24323
827.741	24308
827.88	24308
828.02	24224
828.159	24117
828.298	24380
828.437	24197
828.577	24174
828.716	24365
828.855	24163
828.994	23996
829.134	24022
829.273	24068
829.412	24030
829.551	23908
829.69	23984
829.829	23950
829.968	23980
830.107	23931
830.246	23939
830.385	23965
830.524	23805
830.663	23859
830.802	23718
830.941	23577
831.08	23589
831.219	23604
831.357	23691
831.496	23847
831.635	23649
831.774	23482
831.913	23436
832.051	23406
832.19	23254
832.329	23436
832.467	23395
832.606	23128
832.744	23330
832.883	23280
833.022	23216
833.16	23341
833.299	23193
833.437	23292
833.576	23356
833.714	23337
833.852	23356
833.991	23356
834.129	23417
834.267	23376
834.406	23288
834.544	23246
834.682	23277
834.821	23326
834.959	23520
835.097	23242
835.235	23322
835.373	23353
835.511	23349
835.65	23261
835.788	23250
835.926	23044
836.064	23029
836.202	23159
836.34	22984
836.478	23242
836.615	23159
836.753	23193
836.891	23341
837.029	23246
837.167	23147
837.305	23178
837.443	22980
837.58	23029
837.718	23025
837.856	23117
837.993	23071
838.131	23056
838.269	22889
838.406	22812
838.544	22915
838.681	22733
838.819	22656
838.956	22626
839.094	22622
839.231	22550
839.369	22675
839.506	22869
839.643	22740
839.781	22508
839.918	22390
840.055	22405
840.193	22565
840.33	22493
840.467	22424
840.604	22584
840.742	22778
840.879	22462
841.016	22306
841.153	22173
841.29	22561
841.427	22394
841.564	22504
841.701	22398
841.838	22295
841.975	22246
842.112	22337
842.249	22280
842.385	22257
842.522	22363
842.659	22337
842.796	22131
842.933	22185
843.069	22173
843.206	22135
843.343	22284
843.479	22219
843.616	22097
843.752	22006
843.889	22006
844.025	22158
844.162	22013
844.298	21953
844.435	21983
844.571	21956
844.708	21960
844.844	22169
844.98	22021
845.117	21983
845.253	21892
845.389	21838
845.525	21724
845.661	21838
845.798	21816
845.934	21644
846.07	21762
846.206	21785
846.342	21918
846.478	21648
846.614	21473
846.75	21386
846.886	21389
847.022	21511
847.158	21435
847.294	21401
847.429	21496
847.565	21439
847.701	21686
847.837	21165
847.972	21169
848.108	21329
848.244	21245
848.379	21081
848.515	20967
848.65	21066
848.786	21020
848.921	21066
849.057	21062
849.192	21146
849.328	21138
849.463	21131
849.598	21127
849.734	20941
849.869	20941
850.004	20727
850.14	20861
850.275	20815
850.41	20670
850.545	20765
850.68	20819
850.815	20853
850.95	20804
851.085	20971
851.22	20899
851.355	20845
851.49	20777
851.625	20724
851.76	20720
851.895	20785
852.03	20773
852.165	20762
852.299	20857
852.434	20910
852.569	20880
852.703	20857
852.838	20819
852.973	20948
853.107	20929
853.242	20651
853.376	20750
853.511	20511
853.645	20598
853.78	20689
853.914	20708
854.048	20629
854.183	20560
854.317	20636
854.451	20754
854.585	20640
854.72	20587
854.854	20617
854.988	20625
855.122	20739
855.256	20507
855.39	20602
855.524	20689
855.658	20701
855.792	20560
855.926	20655
856.06	20564
856.194	20735
856.327	20579
856.461	20621
856.595	20598
856.729	20568
856.862	20792
856.996	20606
857.13	20781
857.263	20712
857.397	20762
857.53	20590
857.664	20769
857.797	20682
857.931	20834
858.064	20720
858.197	20750
858.331	20644
858.464	20609
858.597	20537
858.731	20640
858.864	20708
858.997	20613
859.13	20686
859.263	20674
859.396	20701
859.529	20533
859.662	20564
859.795	20667
859.928	20670
860.061	20834
860.194	20819
860.327	20731
860.46	20716
860.592	20750
860.725	20701
860.858	20777
860.99	20598
861.123	20587
861.256	20571
861.388	20686
861.521	21135
861.653	20629
861.786	20434
861.918	20450
862.05	20549
862.183	20469
862.315	20663
862.447	20796
862.58	20609
862.712	20511
862.844	20412
862.976	20503
863.108	20533
863.24	20864
863.372	20431
863.504	20415
863.636	20370
863.768	20412
863.9	20278
864.032	20278
864.164	20381
864.296	20442
864.428	20423
864.559	20438
864.691	20507
864.823	20389
864.954	20355
865.086	20298
865.217	20339
865.349	20138
865.48	20271
865.612	20305
865.743	20377
865.875	20313
866.006	20237
866.137	20374
866.269	20229
866.4	20282
866.531	20107
866.662	20134
866.793	20172
866.924	20237
867.055	20229
867.186	20237
867.317	20149
867.448	20161
867.579	20210
867.71	20233
867.841	20092
867.972	20183
868.103	20168
868.233	20191
868.364	20206
868.495	20221
868.625	20511
868.756	20522
868.886	20313
869.017	20511
869.147	20526
869.278	20587
869.408	20385
869.539	20412
869.669	20434
869.799	20415
869.929	20617
870.06	20533
870.19	20746
870.32	20754
870.45	20864
870.58	20933
870.71	20857
870.84	20941
870.97	20864
871.1	20785
871.23	21131
871.36	21119
871.489	20979
871.619	21074
871.749	21062
871.879	21093
872.008	21131
872.138	21127
872.267	21116
872.397	20975
872.526	20921
872.656	20823
872.785	21036
872.915	21001
873.044	21195
873.173	21066
873.303	21112
873.432	21176
873.561	21104
873.69	21154
873.819	21123
873.948	21199
874.077	21104
874.206	21009
874.335	21051
874.464	21173
874.593	21329
874.722	21283
874.851	21382
874.979	21466
875.108	21401
875.237	21226
875.365	21112
875.494	21123
875.623	21374
875.751	21332
875.88	21386
876.008	21515
876.136	21496
876.265	21808
876.393	21949
876.521	21793
876.65	21762
876.778	21610
876.906	21637
877.034	21743
877.162	21663
877.29	21652
877.418	21633
877.546	21671
877.674	21595
877.802	21793
877.93	21637
878.058	21724
878.185	21568
878.313	21652
878.441	21816
878.568	21515
878.696	21523
878.824	21800
878.951	21751
879.079	21865
879.206	22013
879.333	21766
879.461	21618
879.588	21759
879.715	21785
879.842	21926
879.97	21778
880.097	21401
880.224	21481
880.351	21538
880.478	21405
880.605	21538
880.732	21473
880.859	21804
880.986	21477
881.112	21526
881.239	21466
881.366	21192
881.493	21192
881.619	21017
881.746	21184
881.872	21104
881.999	21112
882.125	21039
882.252	21081
882.378	21230
882.505	21302
882.631	20914
882.757	20891
882.883	20876
883.01	20792
883.136	20781
883.262	20602
883.388	20629
883.514	20762
883.64	20716
883.766	20697
883.892	20598
884.018	20670
884.143	20830
884.269	20838
884.395	20625
884.52	20442
884.646	20503
884.772	20339
884.897	20336
885.023	20476
885.148	20575
885.274	20503
885.399	20526
885.524	20461
885.65	20457
885.775	20404
885.9	20442
886.025	20461
886.15	20503
886.275	20457
886.4	20355
886.525	20362
886.65	20351
886.775	20400
886.9	20400
887.025	20594
887.149	20476
887.274	20339
887.399	20210
887.523	20126
887.648	20145
887.773	20157
887.897	20320
888.021	20355
888.146	20301
888.27	20225
888.395	20393
888.519	20252
888.643	20362
888.767	20240
888.891	20107
889.015	19909
889.139	20180
889.263	19978
889.387	20145
889.511	20142
889.635	20081
889.759	20043
889.883	20020
890.006	20103
890.13	20145
890.254	19902
890.377	19807
890.501	19807
890.624	19635
890.748	19830
890.871	19715
890.995	19540
891.118	19445
891.241	19495
891.364	19556
891.488	19651
891.611	19651
891.734	19601
891.857	19852
891.98	19632
892.103	19639
892.226	19628
892.349	19578
892.471	19411
892.594	19422
892.717	19518
892.839	19483
892.962	19525
893.085	19605
893.207	19426
893.33	19400
893.452	19502
893.575	19628
893.697	19426
893.819	19559
893.941	19693
894.064	19605
894.186	19350
894.308	19514
894.43	19571
894.552	19639
894.674	19575
894.796	19373
894.918	19419
895.04	19597
895.161	19559
895.283	19525
895.405	19491
895.526	19518
895.648	19491
895.769	19365
895.891	19445
896.012	19548
896.134	19544
896.255	19400
896.376	19544
896.498	19556
896.619	19567
896.74	19502
896.861	19624
896.982	19746
897.103	19917
897.224	19727
897.345	19811
897.466	19712
897.587	19746
897.708	19860
897.828	19795
897.949	19761
898.07	19575
898.19	19685
898.311	19772
898.431	19723
898.552	19837
898.672	19841
898.792	19727
898.913	19772
899.033	19559
899.153	19597
899.273	19430
899.393	19430
899.513	19518
899.633	19525
899.753	19514
899.873	19407
899.993	19521
900.113	19365
900.232	19495
900.352	19392
900.472	19377
900.591	19289
900.711	19339
900.83	19225
900.95	19308
901.069	19339
901.189	19198
901.308	18932
901.427	18802
901.546	18905
901.665	19000
901.784	18920
901.904	18886
902.023	18646
902.141	18585
902.26	18403
902.379	18460
902.498	18445
902.617	18483
902.735	18506
902.854	18403
902.973	18357
903.091	18190
903.21	18076
903.328	18087
903.446	17996
903.565	17920
903.683	17950
903.801	17783
903.919	17863
904.038	17764
904.156	17653
904.274	17767
904.392	17691
904.51	17726
904.627	17634
904.745	17695
904.863	17752
904.981	17581
905.098	17387
905.216	17379
905.334	17326
905.451	17360
905.569	17337
905.686	17379
905.803	17280
905.921	17193
906.038	17284
906.155	17174
906.272	16961
906.389	16976
906.506	16881
906.623	16995
906.74	16839
906.857	16759
906.974	16744
907.091	16980
907.208	16908
907.324	16930
907.441	16744
907.557	16622
907.674	16691
907.79	16485
907.907	16713
908.023	16577
908.139	16641
908.256	16565
908.372	16447
908.488	16470
908.604	16314
908.72	16234
908.836	16242
908.952	16329
909.068	16318
909.184	16443
909.3	16299
909.415	16390
909.531	16268
909.647	16139
909.762	16036
909.878	16002
909.993	16078
910.108	16010
910.224	15937
910.339	16040
910.454	15850
910.57	15960
910.685	15797
910.8	16048
910.915	15865
911.03	15907
911.145	15736
911.259	15561
911.374	15652
911.489	15553
911.604	15606
911.718	15336
911.833	15329
911.947	15386
912.062	15313
912.176	15355
912.291	15428
912.405	15462
912.519	15580
912.633	15644
912.748	15344
912.862	15264
912.976	15157
913.09	15108
913.204	15313
913.318	15104
913.431	15184
913.545	15256
913.659	15348
913.772	15237
913.886	14998
914	15047
914.113	15077
914.226	15135
914.34	15085
914.453	14948
914.566	15032
914.68	14952
914.793	14868
914.906	14845
915.019	14632
915.132	14545
915.245	14670
915.358	14674
915.47	14636
915.583	14697
915.696	14720
915.809	14769
915.921	14651
916.034	14629
916.146	14560
916.259	14579
916.371	14556
916.483	14556
916.595	14492
916.708	14431
916.82	14499
916.932	14450
917.044	14476
917.156	14415
917.268	14267
917.38	14374
917.491	14271
917.603	14347
917.715	14381
917.826	14415
917.938	14278
918.049	14138
918.161	14275
918.272	14419
918.384	14366
918.495	14282
918.606	14157
918.717	14027
918.828	14031
918.939	14103
919.05	14027
919.161	14001
919.272	13860
919.383	13921
919.494	14130
919.604	14221
919.715	14115
919.826	13944
919.936	14016
920.047	14134
920.157	14031
920.267	14301
920.378	14073
920.488	14187
920.598	14267
920.708	14415
920.818	14084
920.928	14199
921.038	14324
921.148	14339
921.258	14043
921.368	13890
921.477	13784
921.587	13852
921.697	13708
921.806	13841
921.916	13662
922.025	13487
922.134	13441
922.244	13438
922.353	13518
922.462	13339
922.571	13244
922.68	13194
922.789	12996
922.898	13122
923.007	13050
923.116	13129
923.224	13034
923.333	13072
923.442	12989
923.55	12951
923.659	12951
923.767	13042
923.876	12825
923.984	12924
924.092	12882
924.201	12916
924.309	12814
924.417	12916
924.525	12734
924.633	12875
924.741	13761
924.849	12597
924.956	12779
925.064	12521
925.172	12498
925.279	12414
925.387	12582
925.494	12566
925.602	12696
925.709	12639
925.816	12376
925.924	12471
926.031	12662
926.138	12486
926.245	12521
926.352	12426
926.459	12460
926.566	12574
926.673	12422
926.779	12205
926.886	12323
926.993	12167
927.099	12038
927.206	12106
927.312	12095
927.419	12175
927.525	12163
927.631	12167
927.737	11992
927.843	11931
927.95	11840
928.056	11923
928.162	12019
928.267	11931
928.373	12525
928.479	11965
928.585	11840
928.69	11866
928.796	11927
928.901	11809
929.007	11619
929.112	11813
929.218	11809
929.323	11790
929.428	11592
929.533	11821
929.638	11611
929.743	11623
929.848	11729
929.953	11547
930.058	11516
930.163	11326
930.267	11311
930.372	11570
930.477	11356
930.581	11611
930.685	11387
930.79	11284
930.894	11288
930.998	11254
931.103	11387
931.207	10980
931.311	10987
931.415	10900
931.519	10660
931.623	10725
