Data from test_V78500241_2494.txt Node
Date: Fri Mar 25 15:27:13 CST 2022
User: usil
Spectrometer: V785-0024
Trigger mode: 0
Integration Time (sec): 4.000000E-1
Scans to average: 1
Nonlinearity correction enabled: false
Boxcar width: 0
Storing dark spectrum: false
XAxis mode: Wavelengths
Number of Pixels in Spectrum: 1024
>>>>>Begin Spectral Data<<<<<
801.071	27077
801.214	27142
801.356	26891
801.499	26849
801.641	26636
801.783	26663
801.926	26750
802.068	26762
802.211	26720
802.353	26530
802.496	26324
802.638	26522
802.78	26313
802.923	26336
803.065	26240
803.208	26358
803.35	26305
803.492	26453
803.635	26511
803.777	26347
803.919	26507
804.061	26819
804.204	26617
804.346	26423
804.488	26419
804.63	26465
804.773	26385
804.915	26461
805.057	26655
805.199	26495
805.341	26442
805.483	26590
805.626	26526
805.768	26362
805.91	26598
806.052	26625
806.194	26427
806.336	26735
806.478	26545
806.62	26484
806.762	26609
806.904	26826
807.046	27028
807.188	26921
807.33	26971
807.472	27161
807.614	26975
807.756	26891
807.898	26952
808.04	26849
808.182	26693
808.324	26876
808.465	26845
808.607	27032
808.749	27218
808.891	27310
809.033	27321
809.174	27047
809.316	27192
809.458	27169
809.6	27207
809.741	27370
809.883	27370
810.025	27424
810.166	27568
810.308	27511
810.45	27313
810.591	27264
810.733	27176
810.875	27077
811.016	27138
811.158	27192
811.299	27329
811.441	27241
811.582	27431
811.724	27207
811.865	26971
812.007	27131
812.148	27192
812.29	27119
812.431	27374
812.573	27401
812.714	27545
812.855	27694
812.997	27827
813.138	27682
813.279	27857
813.421	27713
813.562	27523
813.703	27439
813.845	27382
813.986	27096
814.127	26914
814.268	26834
814.41	26937
814.551	26853
814.692	26773
814.833	26754
814.974	26788
815.115	26872
815.256	26731
815.397	26674
815.539	26800
815.68	26670
815.821	26587
815.962	26686
816.103	26488
816.244	26385
816.385	26370
816.526	26313
816.666	26111
816.807	25947
816.948	26077
817.089	26122
817.23	26088
817.371	26046
817.512	26046
817.653	26050
817.793	26077
817.934	26039
818.075	26027
818.216	26050
818.356	26024
818.497	25917
818.638	25803
818.778	25879
818.919	25738
819.06	25982
819.2	25936
819.341	26062
819.481	25997
819.622	26286
819.762	26271
819.903	26347
820.043	26313
820.184	26138
820.324	26096
820.465	26195
820.605	26130
820.746	26164
820.886	25997
821.026	26077
821.167	26077
821.307	26240
821.447	26202
821.588	26035
821.728	25898
821.868	25693
822.008	25677
822.149	25521
822.289	25590
822.429	25308
822.569	25072
822.709	25255
822.849	25015
822.99	25095
823.13	25031
823.27	25008
823.41	24783
823.55	24875
823.69	24981
823.83	24867
823.97	24768
824.11	24654
824.25	24715
824.389	24673
824.529	24692
824.669	24711
824.809	24760
824.949	24844
825.089	24783
825.228	24802
825.368	24604
825.508	24395
825.648	24620
825.787	24604
825.927	24669
826.067	24604
826.206	24582
826.346	24673
826.485	24677
826.625	24608
826.765	24661
826.904	24635
827.044	24429
827.183	24407
827.323	24254
827.462	24433
827.601	24258
827.741	24121
827.88	24319
828.02	24262
828.159	24334
828.298	24327
828.437	24422
828.577	24273
828.716	24384
828.855	24152
828.994	23946
829.134	23980
829.273	24057
829.412	23908
829.551	23965
829.69	23942
829.829	23988
829.968	24144
830.107	24057
830.246	24049
830.385	23939
830.524	23942
830.663	23832
830.802	23676
830.941	23733
831.08	23482
831.219	23627
831.357	23714
831.496	23726
831.635	23573
831.774	23547
831.913	23478
832.051	23486
832.19	23391
832.329	23440
832.467	23269
832.606	23345
832.744	23292
832.883	23258
833.022	23318
833.16	23330
833.299	23334
833.437	23292
833.576	23322
833.714	23292
833.852	23406
833.991	23398
834.129	23433
834.267	23448
834.406	23421
834.544	23353
834.682	23299
834.821	23273
834.959	23493
835.097	23364
835.235	23387
835.373	23315
835.511	23433
835.65	23098
835.788	23185
835.926	23189
836.064	22984
836.202	22980
836.34	23090
836.478	23280
836.615	23220
836.753	23147
836.891	23178
837.029	23155
837.167	23200
837.305	23033
837.443	22957
837.58	23060
837.718	23128
837.856	23162
837.993	22942
838.131	23079
838.269	22839
838.406	22904
838.544	22942
838.681	22706
838.819	22774
838.956	22497
839.094	22462
839.231	22679
839.369	22691
839.506	22949
839.643	22778
839.781	22470
839.918	22557
840.055	22615
840.193	22421
840.33	22432
840.467	22588
840.604	22527
840.742	22809
840.879	22341
841.016	22421
841.153	22333
841.29	22462
841.427	22306
841.564	22481
841.701	22314
841.838	22299
841.975	22402
842.112	22489
842.249	22325
842.385	22356
842.522	22470
842.659	22402
842.796	22276
842.933	22242
843.069	22211
843.206	22109
843.343	22325
843.479	22257
843.616	22109
843.752	22116
843.889	21983
844.025	22128
844.162	22002
844.298	22101
844.435	21937
844.571	21918
844.708	22101
844.844	22192
844.98	22192
845.117	22090
845.253	21953
845.389	21838
845.525	21816
845.661	21857
845.798	21827
845.934	21876
846.07	21751
846.206	21831
846.342	21911
846.478	21797
846.614	21587
846.75	21412
846.886	21344
847.022	21473
847.158	21587
847.294	21519
847.429	21435
847.565	21332
847.701	21682
847.837	21256
847.972	21119
848.108	21363
848.244	21325
848.379	21119
848.515	21017
848.65	21058
848.786	21070
848.921	21009
849.057	21252
849.192	21161
849.328	21165
849.463	21138
849.598	21074
849.734	20979
849.869	20990
850.004	20830
850.14	20906
850.275	20811
850.41	20629
850.545	20674
850.68	20720
850.815	20785
850.95	20792
851.085	21032
851.22	20929
851.355	20849
851.49	20625
851.625	20838
851.76	20834
851.895	20750
852.03	20815
852.165	20895
852.299	20883
852.434	20910
852.569	20937
852.703	20826
852.838	20895
852.973	20986
853.107	20918
853.242	20785
853.376	20750
853.511	20602
853.645	20644
853.78	20746
853.914	20693
854.048	20670
854.183	20739
854.317	20712
854.451	20807
854.585	20724
854.72	20625
854.854	20754
854.988	20522
855.122	20701
855.256	20495
855.39	20689
855.524	20716
855.658	20762
855.792	20701
855.926	20663
856.06	20674
856.194	20720
856.327	20670
856.461	20625
856.595	20625
856.729	20606
856.862	20792
856.996	20773
857.13	20758
857.263	20769
857.397	20663
857.53	20712
857.664	20727
857.797	20689
857.931	20526
858.064	20598
858.197	20872
858.331	20648
858.464	20492
858.597	20571
858.731	20678
858.864	20541
858.997	20659
859.13	20750
859.263	20807
859.396	20788
859.529	20560
859.662	20617
859.795	20625
859.928	20667
860.061	20701
860.194	20906
860.327	20587
860.46	20571
860.592	20724
860.725	20807
860.858	20739
860.99	20629
861.123	20530
861.256	20552
861.388	20682
861.521	21252
861.653	20530
861.786	20495
861.918	20412
862.05	20663
862.183	20617
862.315	20644
862.447	20663
862.58	20564
862.712	20404
862.844	20278
862.976	20389
863.108	20385
863.24	20849
863.372	20282
863.504	20294
863.636	20366
863.768	20381
863.9	20313
864.032	20313
864.164	20385
864.296	20404
864.428	20507
864.559	20438
864.691	20423
864.823	20377
864.954	20328
865.086	20366
865.217	20339
865.349	20263
865.48	20298
865.612	20237
865.743	20377
865.875	20210
866.006	20290
866.137	20290
866.269	20355
866.4	20225
866.531	20275
866.662	20084
866.793	20248
866.924	20286
867.055	20187
867.186	20305
867.317	20119
867.448	20153
867.579	20202
867.71	20134
867.841	20172
867.972	20069
868.103	20145
868.233	20298
868.364	20298
868.495	20339
868.625	20465
868.756	20552
868.886	20343
869.017	20507
869.147	20587
869.278	20587
869.408	20415
869.539	20419
869.669	20636
869.799	20461
869.929	20587
870.06	20541
870.19	20731
870.32	20716
870.45	20944
870.58	20777
870.71	21055
870.84	20990
870.97	20777
871.1	20956
871.23	21077
871.36	21062
871.489	20994
871.619	21043
871.749	21005
871.879	20998
872.008	21176
872.138	21173
872.267	21154
872.397	20891
872.526	20944
872.656	20880
872.785	20921
872.915	21058
873.044	21070
873.173	21176
873.303	21176
873.432	21093
873.561	21180
873.69	21135
873.819	21108
873.948	21135
874.077	21211
874.206	21146
874.335	21017
874.464	21252
874.593	21405
874.722	21214
874.851	21370
874.979	21161
875.108	21344
875.237	21287
875.365	21203
875.494	21336
875.623	21393
875.751	21237
875.88	21256
876.008	21485
876.136	21477
876.265	21797
876.393	21823
876.521	21819
876.65	21774
876.778	21736
876.906	21599
877.034	21701
877.162	21698
877.29	21641
877.418	21595
877.546	21778
877.674	21629
877.802	21819
877.93	21667
878.058	21652
878.185	21481
878.313	21629
878.441	21728
878.568	21568
878.696	21637
878.824	21732
878.951	21770
879.079	21819
879.206	21892
879.333	21907
879.461	21778
879.588	21865
879.715	21884
879.842	22021
879.97	21690
880.097	21519
880.224	21462
880.351	21667
880.478	21644
880.605	21473
880.732	21561
880.859	21785
880.986	21481
881.112	21485
881.239	21462
881.366	21161
881.493	21039
881.619	21165
881.746	21169
881.872	21173
881.999	21100
882.125	21093
882.252	21146
882.378	21058
882.505	21180
882.631	20910
882.757	20906
882.883	20902
883.01	20819
883.136	20777
883.262	20720
883.388	20682
883.514	20811
883.64	20849
883.766	20693
883.892	20689
884.018	20560
884.143	20819
884.269	20830
884.395	20602
884.52	20347
884.646	20514
884.772	20374
884.897	20347
885.023	20537
885.148	20598
885.274	20541
885.399	20678
885.524	20347
885.65	20427
885.775	20480
885.9	20313
886.025	20454
886.15	20503
886.275	20404
886.4	20412
886.525	20389
886.65	20408
886.775	20366
886.9	20522
887.025	20526
887.149	20438
887.274	20256
887.399	20221
887.523	20164
887.648	20126
887.773	20256
887.897	20267
888.021	20172
888.146	20168
888.27	20286
888.395	20320
888.519	20252
888.643	20298
888.767	20206
888.891	20077
889.015	20111
889.139	20050
889.263	19970
889.387	20001
889.511	20229
889.635	20180
889.759	20096
889.883	20020
890.006	20035
890.13	20088
890.254	19932
890.377	19955
890.501	19765
890.624	19811
890.748	19784
890.871	19727
890.995	19639
891.118	19491
891.241	19719
891.364	19674
891.488	19693
891.611	19765
891.734	19681
891.857	19597
891.98	19643
892.103	19685
892.226	19567
892.349	19540
892.471	19396
892.594	19597
892.717	19571
892.839	19502
892.962	19670
893.085	19495
893.207	19472
893.33	19400
893.452	19464
893.575	19388
893.697	19453
893.819	19795
893.941	19769
894.064	19647
894.186	19567
894.308	19335
894.43	19662
894.552	19753
894.674	19719
894.796	19445
894.918	19563
895.04	19464
895.161	19571
895.283	19533
895.405	19525
895.526	19487
895.648	19434
895.769	19552
895.891	19586
896.012	19491
896.134	19620
896.255	19635
896.376	19430
896.498	19476
896.619	19597
896.74	19544
896.861	19590
896.982	19951
897.103	20024
897.224	19860
897.345	19822
897.466	19635
897.587	19708
897.708	19982
897.828	19769
897.949	19586
898.07	19613
898.19	19666
898.311	19852
898.431	19727
898.552	19696
898.672	19795
898.792	19856
898.913	19723
899.033	19712
899.153	19525
899.273	19597
899.393	19502
899.513	19563
899.633	19518
899.753	19540
899.873	19567
899.993	19552
900.113	19407
900.232	19441
900.352	19373
900.472	19320
900.591	19221
900.711	19400
900.83	19145
900.95	19430
901.069	19411
901.189	19198
901.308	18878
901.427	18840
901.546	18856
901.665	18943
901.784	18966
901.904	18810
902.023	18719
902.141	18593
902.26	18547
902.379	18536
902.498	18380
902.617	18338
902.735	18506
902.854	18384
902.973	18380
903.091	18102
903.21	17999
903.328	18026
903.446	17984
903.565	17920
903.683	17954
903.801	17646
903.919	17870
904.038	17851
904.156	17695
904.274	17764
904.392	17699
904.51	17558
904.627	17646
904.745	17764
904.863	17726
904.981	17425
905.098	17330
905.216	17356
905.334	17391
905.451	17395
905.569	17356
905.686	17436
905.803	17299
905.921	17086
906.038	17250
906.155	17155
906.272	17056
906.389	17086
906.506	16961
906.623	17003
906.74	16831
906.857	16767
906.974	16831
907.091	17003
907.208	16915
907.324	16934
907.441	16793
907.557	16611
907.674	16634
907.79	16637
907.907	16573
908.023	16675
908.139	16634
908.256	16546
908.372	16546
908.488	16512
908.604	16421
908.72	16394
908.836	16348
908.952	16348
909.068	16344
909.184	16436
909.3	16348
909.415	16379
909.531	16246
909.647	16139
909.762	16017
909.878	16010
909.993	16032
910.108	15926
910.224	16017
910.339	16017
910.454	15998
910.57	15907
910.685	15846
910.8	16086
910.915	16044
911.03	15823
911.145	15671
911.259	15682
911.374	15553
911.489	15572
911.604	15572
911.718	15420
911.833	15473
911.947	15386
912.062	15313
912.176	15485
912.291	15458
912.405	15572
912.519	15633
912.633	15641
912.748	15443
912.862	15355
912.976	15214
913.09	15142
913.204	15207
913.318	15142
913.431	15218
913.545	15283
913.659	15249
913.772	15203
913.886	15116
914	15009
914.113	15074
914.226	15207
914.34	15028
914.453	14891
914.566	14941
914.68	14853
914.793	14914
914.906	14625
915.019	14640
915.132	14560
915.245	14598
915.358	14769
915.47	14648
915.583	14659
915.696	14621
915.809	14792
915.921	14823
916.034	14655
916.146	14549
916.259	14526
916.371	14583
916.483	14530
916.595	14530
916.708	14537
916.82	14556
916.932	14492
917.044	14438
917.156	14377
917.268	14347
917.38	14267
917.491	14351
917.603	14362
917.715	14374
917.826	14408
917.938	14218
918.049	14183
918.161	14339
918.272	14431
918.384	14336
918.495	14233
918.606	14168
918.717	14100
918.828	14126
918.939	14103
919.05	14024
919.161	14081
919.272	13814
919.383	14012
919.494	14027
919.604	14229
919.715	14065
919.826	14046
919.936	14012
920.047	14123
920.157	13970
920.267	14221
920.378	14027
920.488	13947
920.598	14225
920.708	14385
920.818	14271
920.928	14180
921.038	14400
921.148	14339
921.258	13940
921.368	13917
921.477	13761
921.587	13772
921.697	13620
921.806	13868
921.916	13655
922.025	13468
922.134	13457
922.244	13468
922.353	13438
922.462	13392
922.571	13266
922.68	13137
922.789	13038
922.898	13091
923.007	13046
923.116	13160
923.224	13095
923.333	13080
923.442	12909
923.55	12928
923.659	12962
923.767	13084
923.876	12814
923.984	12947
924.092	12844
924.201	12859
924.309	12890
924.417	12837
924.525	12829
924.633	12867
924.741	13681
924.849	12574
924.956	12787
925.064	12589
925.172	12483
925.279	12467
925.387	12597
925.494	12498
925.602	12776
925.709	12582
925.816	12456
925.924	12479
926.031	12525
926.138	12486
926.245	12551
926.352	12376
926.459	12506
926.566	12494
926.673	12388
926.779	12433
926.886	12315
926.993	12129
927.099	12178
927.206	12083
927.312	12060
927.419	12125
927.525	12110
927.631	12159
927.737	11992
927.843	11961
927.95	11908
928.056	11885
928.162	11950
928.267	12026
928.373	12681
928.479	12034
928.585	11786
928.69	11965
928.796	11939
928.901	11786
929.007	11741
929.112	11798
929.218	11802
929.323	11684
929.428	11710
929.533	11813
929.638	11642
929.743	11668
929.848	11688
929.953	11592
930.058	11630
930.163	11414
930.267	11493
930.372	11524
930.477	11330
930.581	11573
930.685	11478
930.79	11201
930.894	11303
930.998	11216
931.103	11391
931.207	11052
931.311	10980
931.415	10915
931.519	10675
931.623	10691
