Data from test_V78500241_1437.txt Node
Date: Fri Mar 25 15:19:51 CST 2022
User: usil
Spectrometer: V785-0024
Trigger mode: 0
Integration Time (sec): 4.000000E-1
Scans to average: 1
Nonlinearity correction enabled: false
Boxcar width: 0
Storing dark spectrum: false
XAxis mode: Wavelengths
Number of Pixels in Spectrum: 1024
>>>>>Begin Spectral Data<<<<<
801.071	28147
801.214	27907
801.356	27720
801.499	27736
801.641	27720
801.783	27622
801.926	27675
802.068	27614
802.211	27557
802.353	27496
802.496	27359
802.638	27439
802.78	27104
802.923	27279
803.065	27127
803.208	27199
803.35	27214
803.492	27450
803.635	27389
803.777	27298
803.919	27599
804.061	27728
804.204	27401
804.346	27557
804.488	27382
804.63	27526
804.773	27370
804.915	27557
805.057	27667
805.199	27450
805.341	27568
805.483	27629
805.626	27599
805.768	27530
805.91	27447
806.052	27515
806.194	27572
806.336	27827
806.478	27720
806.62	27682
806.762	27812
806.904	27930
807.046	28017
807.188	28036
807.33	28025
807.472	28105
807.614	28029
807.756	28040
807.898	27838
808.04	27854
808.182	27876
808.324	27964
808.465	27987
808.607	28017
808.749	28238
808.891	28257
809.033	28455
809.174	28371
809.316	28303
809.458	28162
809.6	28284
809.741	28451
809.883	28413
810.025	28687
810.166	28584
810.308	28622
810.45	28592
810.591	28485
810.733	28287
810.875	28234
811.016	28337
811.158	28246
811.299	28363
811.441	28451
811.582	28500
811.724	28333
811.865	28223
812.007	28166
812.148	28253
812.29	28413
812.431	28447
812.573	28546
812.714	28672
812.855	28740
812.997	28892
813.138	28957
813.279	28839
813.421	28869
813.562	28801
813.703	28649
813.845	28603
813.986	28234
814.127	28013
814.268	28101
814.41	27968
814.551	27953
814.692	27960
814.833	27994
814.974	27930
815.115	28051
815.256	27861
815.397	27941
815.539	27899
815.68	27804
815.821	27747
815.962	27857
816.103	27770
816.244	27641
816.385	27690
816.526	27530
816.666	27393
816.807	27116
816.948	27317
817.089	27272
817.23	27332
817.371	27256
817.512	27211
817.653	27272
817.793	27203
817.934	27146
818.075	27367
818.216	27363
818.356	27165
818.497	27112
818.638	27070
818.778	27028
818.919	26975
819.06	27104
819.2	27188
819.341	27359
819.481	27264
819.622	27504
819.762	27500
819.903	27603
820.043	27397
820.184	27481
820.324	27454
820.465	27424
820.605	27370
820.746	27313
820.886	27249
821.026	27313
821.167	27226
821.307	27386
821.447	27211
821.588	27146
821.728	27062
821.868	26830
822.008	26785
822.149	26838
822.289	26629
822.429	26495
822.569	26336
822.709	26423
822.849	26320
822.99	26233
823.13	26229
823.27	26142
823.41	25932
823.55	25974
823.69	26062
823.83	26149
823.97	25978
824.11	26005
824.25	25875
824.389	25936
824.529	25978
824.669	25997
824.809	26043
824.949	25993
825.089	25951
825.228	25856
825.368	25685
825.508	25845
825.648	25723
825.787	25791
825.927	25921
826.067	25693
826.206	25753
826.346	25818
826.485	25689
826.625	25769
826.765	25753
826.904	25871
827.044	25552
827.183	25655
827.323	25544
827.462	25483
827.601	25464
827.741	25529
827.88	25567
828.02	25415
828.159	25521
828.298	25422
828.437	25502
828.577	25464
828.716	25491
828.855	25491
828.994	25179
829.134	25168
829.273	25137
829.412	25095
829.551	25107
829.69	25244
829.829	25244
829.968	25274
830.107	25228
830.246	25156
830.385	25133
830.524	25133
830.663	24951
830.802	24985
830.941	24760
831.08	24787
831.219	24859
831.357	24871
831.496	24996
831.635	24814
831.774	24772
831.913	24593
832.051	24544
832.19	24547
832.329	24490
832.467	24479
832.606	24486
832.744	24559
832.883	24601
833.022	24372
833.16	24483
833.299	24528
833.437	24502
833.576	24559
833.714	24437
833.852	24585
833.991	24445
834.129	24593
834.267	24597
834.406	24441
834.544	24612
834.682	24517
834.821	24498
834.959	24726
835.097	24407
835.235	24578
835.373	24574
835.511	24532
835.65	24353
835.788	24334
835.926	24334
836.064	24133
836.202	24167
836.34	24391
836.478	24437
836.615	24300
836.753	24342
836.891	24388
837.029	24361
837.167	24228
837.305	24281
837.443	24330
837.58	24216
837.718	24270
837.856	24235
837.993	24163
838.131	24167
838.269	24125
838.406	24057
838.544	24106
838.681	23992
838.819	23824
838.956	23699
839.094	23619
839.231	23691
839.369	23874
839.506	24106
839.643	23783
839.781	23687
839.918	23623
840.055	23634
840.193	23551
840.33	23661
840.467	23596
840.604	23653
840.742	23836
840.879	23383
841.016	23638
841.153	23512
841.29	23649
841.427	23570
841.564	23554
841.701	23512
841.838	23535
841.975	23414
842.112	23376
842.249	23315
842.385	23376
842.522	23589
842.659	23356
842.796	23402
842.933	23288
843.069	23269
843.206	23353
843.343	23318
843.479	23387
843.616	23208
843.752	23102
843.889	23064
844.025	23235
844.162	23064
844.298	23102
844.435	23048
844.571	22972
844.708	23208
844.844	23193
844.98	23296
845.117	23140
845.253	22995
845.389	22877
845.525	22991
845.661	22786
845.798	22782
845.934	22828
846.07	22858
846.206	22908
846.342	22968
846.478	22637
846.614	22691
846.75	22508
846.886	22478
847.022	22535
847.158	22580
847.294	22493
847.429	22508
847.565	22485
847.701	22687
847.837	22325
847.972	22192
848.108	22390
848.244	22367
848.379	22204
848.515	22234
848.65	22188
848.786	22101
848.921	22070
849.057	22116
849.192	22238
849.328	22139
849.463	22059
849.598	22029
849.734	21979
849.869	21926
850.004	21804
850.14	22059
850.275	21979
850.41	21823
850.545	21831
850.68	21899
850.815	21918
850.95	21941
851.085	22044
851.22	21941
851.355	21850
851.49	21819
851.625	21823
851.76	21781
851.895	21736
852.03	21698
852.165	21888
852.299	21907
852.434	21850
852.569	21884
852.703	21903
852.838	21968
852.973	22032
853.107	22074
853.242	21770
853.376	21724
853.511	21587
853.645	21648
853.78	21766
853.914	21755
854.048	21667
854.183	21736
854.317	21793
854.451	21907
854.585	21701
854.72	21610
854.854	21717
854.988	21762
855.122	21743
855.256	21564
855.39	21606
855.524	21781
855.658	21671
855.792	21873
855.926	21705
856.06	21804
856.194	21686
856.327	21709
856.461	21568
856.595	21644
856.729	21720
856.862	21846
856.996	21724
857.13	21736
857.263	21949
857.397	21854
857.53	21739
857.664	21694
857.797	21736
857.931	21869
858.064	21854
858.197	21884
858.331	21808
858.464	21679
858.597	21656
858.731	21641
858.864	21610
858.997	21694
859.13	21660
859.263	21766
859.396	21736
859.529	21720
859.662	21720
859.795	21610
859.928	21663
860.061	21934
860.194	21869
860.327	21675
860.46	21701
860.592	21759
860.725	21842
860.858	21930
860.99	21610
861.123	21701
861.256	21724
861.388	21675
861.521	22181
861.653	21622
861.786	21549
861.918	21587
862.05	21534
862.183	21652
862.315	21724
862.447	21785
862.58	21603
862.712	21386
862.844	21370
862.976	21553
863.108	21538
863.24	21751
863.372	21306
863.504	21389
863.636	21245
863.768	21564
863.9	21424
864.032	21291
864.164	21370
864.296	21313
864.428	21466
864.559	21405
864.691	21485
864.823	21439
864.954	21466
865.086	21443
865.217	21313
865.349	21329
865.48	21306
865.612	21359
865.743	21443
865.875	21386
866.006	21329
866.137	21306
866.269	21226
866.4	21302
866.531	21119
866.662	21154
866.793	21222
866.924	21214
867.055	21279
867.186	21272
867.317	21336
867.448	21275
867.579	21226
867.71	21112
867.841	21142
867.972	21192
868.103	21287
868.233	21283
868.364	21241
868.495	21325
868.625	21412
868.756	21583
868.886	21447
869.017	21431
869.147	21523
869.278	21622
869.408	21370
869.539	21447
869.669	21576
869.799	21545
869.929	21648
870.06	21530
870.19	21785
870.32	21709
870.45	21812
870.58	21861
870.71	21949
870.84	22032
870.97	21812
871.1	21781
871.23	21941
871.36	21991
871.489	22029
871.619	22002
871.749	22025
871.879	22029
872.008	22181
872.138	22074
872.267	22010
872.397	21812
872.526	21895
872.656	21861
872.785	21861
872.915	21998
873.044	22169
873.173	22082
873.303	22131
873.432	22105
873.561	22238
873.69	22078
873.819	22086
873.948	22162
874.077	22177
874.206	22017
874.335	22112
874.464	22067
874.593	22325
874.722	22150
874.851	22329
874.979	22295
875.108	22443
875.237	22310
875.365	22177
875.494	22291
875.623	22265
875.751	22287
875.88	22390
876.008	22341
876.136	22436
876.265	22637
876.393	22729
876.521	22736
876.65	22790
876.778	22744
876.906	22592
877.034	22641
877.162	22588
877.29	22645
877.418	22634
877.546	22634
877.674	22710
877.802	22740
877.93	22660
878.058	22592
878.185	22462
878.313	22577
878.441	22569
878.568	22546
878.696	22557
878.824	22596
878.951	22596
879.079	22850
879.206	22908
879.333	22805
879.461	22637
879.588	22713
879.715	22858
879.842	22904
879.97	22721
880.097	22421
880.224	22493
880.351	22489
880.478	22531
880.605	22398
880.732	22470
880.859	22668
880.986	22481
881.112	22402
881.239	22523
881.366	22188
881.493	22112
881.619	22070
881.746	22192
881.872	22029
881.999	22010
882.125	22082
882.252	21964
882.378	21968
882.505	22082
882.631	21793
882.757	21694
882.883	21827
883.01	21690
883.136	21667
883.262	21561
883.388	21553
883.514	21797
883.64	21709
883.766	21614
883.892	21519
884.018	21618
884.143	21576
884.269	21785
884.395	21416
884.52	21294
884.646	21363
884.772	21351
884.897	21226
885.023	21214
885.148	21473
885.274	21504
885.399	21454
885.524	21439
885.65	21416
885.775	21348
885.9	21325
886.025	21340
886.15	21416
886.275	21306
886.4	21302
886.525	21329
886.65	21226
886.775	21264
886.9	21485
887.025	21538
887.149	21431
887.274	21226
887.399	21009
887.523	21195
887.648	21119
887.773	21017
887.897	21188
888.021	21169
888.146	20986
888.27	21256
888.395	21233
888.519	21279
888.643	21112
888.767	21142
888.891	20986
889.015	20975
889.139	20914
889.263	21001
889.387	21036
889.511	21070
889.635	21013
889.759	20929
889.883	20853
890.006	20921
890.13	20944
890.254	20697
890.377	20899
890.501	20754
890.624	20522
890.748	20655
890.871	20583
890.995	20431
891.118	20419
891.241	20473
891.364	20522
891.488	20705
891.611	20522
891.734	20450
891.857	20461
891.98	20461
892.103	20454
892.226	20579
892.349	20400
892.471	20237
892.594	20347
892.717	20324
892.839	20332
892.962	20442
893.085	20537
893.207	20450
893.33	20385
893.452	20294
893.575	20267
893.697	20233
893.819	20636
893.941	20587
894.064	20575
894.186	20412
894.308	20317
894.43	20427
894.552	20495
894.674	20450
894.796	20324
894.918	20415
895.04	20434
895.161	20442
895.283	20358
895.405	20313
895.526	20355
895.648	20278
895.769	20385
895.891	20446
896.012	20461
896.134	20438
896.255	20336
896.376	20248
896.498	20423
896.619	20393
896.74	20393
896.861	20434
896.982	20708
897.103	20785
897.224	20556
897.345	20575
897.466	20503
897.587	20613
897.708	20678
897.828	20621
897.949	20640
898.07	20476
898.19	20568
898.311	20598
898.431	20556
898.552	20587
898.672	20777
898.792	20670
898.913	20499
899.033	20336
899.153	20347
899.273	20263
899.393	20324
899.513	20286
899.633	20271
899.753	20366
899.873	20210
899.993	20248
900.113	20206
900.232	20195
900.352	20164
900.472	20142
900.591	20016
900.711	20164
900.83	20043
900.95	20126
901.069	20054
901.189	19902
901.308	19784
901.427	19605
901.546	19639
901.665	19833
901.784	19757
901.904	19624
902.023	19438
902.141	19324
902.26	19221
902.379	19316
902.498	19164
902.617	19141
902.735	19209
902.854	19141
902.973	19027
903.091	18920
903.21	18806
903.328	18958
903.446	18840
903.565	18776
903.683	18654
903.801	18578
903.919	18627
904.038	18650
904.156	18384
904.274	18460
904.392	18369
904.51	18475
904.627	18414
904.745	18471
904.863	18517
904.981	18095
905.098	18060
905.216	18133
905.334	18011
905.451	18098
905.569	18057
905.686	17977
905.803	18087
905.921	17908
906.038	18079
906.155	17866
906.272	17661
906.389	17920
906.506	17771
906.623	17642
906.74	17596
906.857	17528
906.974	17539
907.091	17718
907.208	17634
907.324	17737
907.441	17596
907.557	17410
907.674	17395
907.79	17372
907.907	17311
908.023	17421
908.139	17311
908.256	17292
908.372	17242
908.488	17280
908.604	17140
908.72	17060
908.836	17102
908.952	17025
909.068	17128
909.184	17109
909.3	17041
909.415	17132
909.531	17052
909.647	16835
909.762	16843
909.878	16759
909.993	16755
910.108	16683
910.224	16755
910.339	16828
910.454	16675
910.57	16637
910.685	16478
910.8	16744
910.915	16752
911.03	16523
911.145	16440
911.259	16314
911.374	16352
911.489	16310
911.604	16131
911.718	16032
911.833	16154
911.947	15991
912.062	16078
912.176	16158
912.291	16078
912.405	16090
912.519	16257
912.633	16253
912.748	16177
912.862	16120
912.976	15937
913.09	15873
913.204	16044
913.318	16017
913.431	16044
913.545	16006
913.659	16101
913.772	15899
913.886	15842
914	15682
914.113	15732
914.226	15835
914.34	15842
914.453	15629
914.566	15743
914.68	15686
914.793	15606
914.906	15405
915.019	15351
915.132	15279
915.245	15272
915.358	15332
915.47	15351
915.583	15340
915.696	15412
915.809	15458
915.921	15393
916.034	15294
916.146	15237
916.259	15313
916.371	15329
916.483	15298
916.595	15222
916.708	15184
916.82	15138
916.932	15116
917.044	15131
917.156	15070
917.268	15036
917.38	15055
917.491	14861
917.603	15032
917.715	15097
917.826	15165
917.938	14941
918.049	14845
918.161	14994
918.272	15093
918.384	15028
918.495	14899
918.606	14701
918.717	14735
918.828	14731
918.939	14682
919.05	14663
919.161	14708
919.272	14495
919.383	14537
919.494	14800
919.604	14952
919.715	14705
919.826	14705
919.936	14648
920.047	14826
920.157	14758
920.267	14929
920.378	14705
920.488	14731
920.598	14788
920.708	14998
920.818	14727
920.928	14777
921.038	15074
921.148	14838
921.258	14773
921.368	14484
921.477	14355
921.587	14389
921.697	14343
921.806	14366
921.916	14294
922.025	14084
922.134	14103
922.244	14100
922.353	14142
922.462	13978
922.571	13898
922.68	13704
922.789	13704
922.898	13791
923.007	13712
923.116	13738
923.224	13677
923.333	13586
923.442	13605
923.55	13525
923.659	13556
923.767	13624
923.876	13491
923.984	13544
924.092	13499
924.201	13422
924.309	13453
924.417	13422
924.525	13396
924.633	13312
924.741	14069
924.849	13183
924.956	13270
925.064	13168
925.172	13099
925.279	13034
925.387	13187
925.494	13133
925.602	13304
925.709	13160
925.816	12954
925.924	13023
926.031	13072
926.138	13023
926.245	13126
926.352	12947
926.459	13091
926.566	13107
926.673	12989
926.779	12856
926.886	12795
926.993	12684
927.099	12601
927.206	12589
927.312	12639
927.419	12722
927.525	12719
927.631	12696
927.737	12544
927.843	12582
927.95	12376
928.056	12498
928.162	12464
928.267	12540
928.373	13027
928.479	12494
928.585	12304
928.69	12422
928.796	12483
928.901	12376
929.007	12159
929.112	12350
929.218	12338
929.323	12285
929.428	12117
929.533	12254
929.638	12190
929.743	12197
929.848	12254
929.953	12106
930.058	12098
930.163	11878
930.267	11927
930.372	12022
930.477	11897
930.581	12102
930.685	12026
930.79	11821
930.894	11843
930.998	11733
931.103	11904
931.207	11512
931.311	11493
931.415	11368
931.519	11223
931.623	11132
