Data from test_V78500241_1979.txt Node
Date: Fri Mar 25 15:23:38 CST 2022
User: usil
Spectrometer: V785-0024
Trigger mode: 0
Integration Time (sec): 4.000000E-1
Scans to average: 1
Nonlinearity correction enabled: false
Boxcar width: 0
Storing dark spectrum: false
XAxis mode: Wavelengths
Number of Pixels in Spectrum: 1024
>>>>>Begin Spectral Data<<<<<
801.071	27701
801.214	27610
801.356	27447
801.499	27519
801.641	27283
801.783	27310
801.926	27382
802.068	27317
802.211	27127
802.353	27169
802.496	27146
802.638	27013
802.78	26963
802.923	26887
803.065	26921
803.208	26990
803.35	27055
803.492	27093
803.635	27180
803.777	27013
803.919	27188
804.061	27523
804.204	27264
804.346	27260
804.488	27116
804.63	27279
804.773	27085
804.915	27169
805.057	27306
805.199	27176
805.341	27260
805.483	27397
805.626	27252
805.768	27188
805.91	27336
806.052	27359
806.194	27195
806.336	27473
806.478	27245
806.62	27359
806.762	27424
806.904	27473
807.046	27679
807.188	27713
807.33	27663
807.472	27751
807.614	27660
807.756	27591
807.898	27595
808.04	27660
808.182	27477
808.324	27679
808.465	27625
808.607	27884
808.749	27724
808.891	28017
809.033	28128
809.174	28013
809.316	27895
809.458	27876
809.6	27819
809.741	28192
809.883	28002
810.025	28360
810.166	28223
810.308	28242
810.45	28158
810.591	28166
810.733	27945
810.875	27865
811.016	27797
811.158	27785
811.299	27983
811.441	27914
811.582	28048
811.724	27918
811.865	27846
812.007	27884
812.148	27876
812.29	27945
812.431	28063
812.573	28139
812.714	28226
812.855	28356
812.997	28405
813.138	28634
813.279	28596
813.421	28440
813.562	28443
813.703	28295
813.845	28147
813.986	27850
814.127	27717
814.268	27625
814.41	27625
814.551	27545
814.692	27622
814.833	27568
814.974	27614
815.115	27690
815.256	27553
815.397	27542
815.539	27599
815.68	27424
815.821	27340
815.962	27317
816.103	27408
816.244	27249
816.385	27249
816.526	27230
816.666	27062
816.807	26838
816.948	26979
817.089	26971
817.23	27043
817.371	26990
817.512	26952
817.653	26777
817.793	26754
817.934	26895
818.075	26914
818.216	26963
818.356	26887
818.497	26708
818.638	26670
818.778	26613
818.919	26609
819.06	26750
819.2	26834
819.341	26902
819.481	26838
819.622	26929
819.762	27298
819.903	27131
820.043	27100
820.184	26982
820.324	27096
820.465	27039
820.605	27028
820.746	27028
820.886	26830
821.026	26952
821.167	26918
821.307	27074
821.447	26975
821.588	26933
821.728	26621
821.868	26518
822.008	26465
822.149	26396
822.289	26263
822.429	26111
822.569	25963
822.709	26050
822.849	25913
822.99	25963
823.13	25841
823.27	25746
823.41	25708
823.55	25613
823.69	25677
823.83	25715
823.97	25666
824.11	25567
824.25	25506
824.389	25563
824.529	25620
824.669	25651
824.809	25791
824.949	25464
825.089	25552
825.228	25476
825.368	25407
825.508	25377
825.648	25384
825.787	25419
825.927	25343
826.067	25392
826.206	25312
826.346	25377
826.485	25411
826.625	25464
826.765	25495
826.904	25518
827.044	25179
827.183	25209
827.323	25061
827.462	25164
827.601	25168
827.741	25148
827.88	25164
828.02	25156
828.159	25148
828.298	25209
828.437	25148
828.577	25004
828.716	25194
828.855	25034
828.994	24859
829.134	24810
829.273	24924
829.412	24692
829.551	24833
829.69	24707
829.829	24962
829.968	24848
830.107	24909
830.246	24779
830.385	24730
830.524	24703
830.663	24612
830.802	24623
830.941	24517
831.08	24464
831.219	24407
831.357	24536
831.496	24734
831.635	24479
831.774	24391
831.913	24323
832.051	24224
832.19	24209
832.329	24178
832.467	24178
832.606	24136
832.744	23961
832.883	24136
833.022	24098
833.16	24102
833.299	24136
833.437	24152
833.576	24232
833.714	24228
833.852	24140
833.991	24247
834.129	24391
834.267	24391
834.406	24224
834.544	24133
834.682	24133
834.821	24174
834.959	24395
835.097	24209
835.235	24220
835.373	24136
835.511	24262
835.65	24060
835.788	24098
835.926	23901
836.064	23950
836.202	23843
836.34	24045
836.478	24117
836.615	24011
836.753	23958
836.891	24117
837.029	23935
837.167	23973
837.305	23931
837.443	23912
837.58	23809
837.718	23897
837.856	23984
837.993	23760
838.131	23878
838.269	23828
838.406	23851
838.544	23638
838.681	23539
838.819	23554
838.956	23292
839.094	23296
839.231	23486
839.369	23627
839.506	23714
839.643	23684
839.781	23467
839.918	23250
840.055	23341
840.193	23208
840.33	23288
840.467	23258
840.604	23322
840.742	23505
840.879	23041
841.016	23303
841.153	23140
841.29	23345
841.427	23307
841.564	23326
841.701	23208
841.838	23162
841.975	23083
842.112	23094
842.249	22965
842.385	23014
842.522	23162
842.659	23140
842.796	23018
842.933	23064
843.069	23006
843.206	22930
843.343	23064
843.479	22968
843.616	22980
843.752	22790
843.889	22736
844.025	22919
844.162	22687
844.298	22923
844.435	22805
844.571	22637
844.708	22824
844.844	22946
844.98	22854
845.117	22805
845.253	22782
845.389	22656
845.525	22710
845.661	22577
845.798	22527
845.934	22630
846.07	22508
846.206	22478
846.342	22713
846.478	22550
846.614	22341
846.75	22219
846.886	22318
847.022	22424
847.158	22299
847.294	22337
847.429	22223
847.565	22299
847.701	22455
847.837	22010
847.972	22029
848.108	22055
848.244	22124
848.379	21854
848.515	21880
848.65	21884
848.786	21972
848.921	21907
849.057	21983
849.192	21873
849.328	21937
849.463	21918
849.598	21755
849.734	21762
849.869	21682
850.004	21583
850.14	21728
850.275	21705
850.41	21538
850.545	21530
850.68	21599
850.815	21606
850.95	21614
851.085	21720
851.22	21838
851.355	21622
851.49	21679
851.625	21576
851.76	21557
851.895	21542
852.03	21477
852.165	21644
852.299	21576
852.434	21580
852.569	21755
852.703	21545
852.838	21713
852.973	21759
853.107	21831
853.242	21591
853.376	21424
853.511	21420
853.645	21397
853.78	21477
853.914	21325
854.048	21424
854.183	21359
854.317	21519
854.451	21545
854.585	21473
854.72	21469
854.854	21599
854.988	21443
855.122	21401
855.256	21336
855.39	21435
855.524	21477
855.658	21420
855.792	21504
855.926	21401
856.06	21401
856.194	21412
856.327	21481
856.461	21329
856.595	21466
856.729	21458
856.862	21564
856.996	21382
857.13	21473
857.263	21614
857.397	21599
857.53	21386
857.664	21420
857.797	21431
857.931	21599
858.064	21477
858.197	21443
858.331	21462
858.464	21332
858.597	21325
858.731	21435
858.864	21363
858.997	21428
859.13	21435
859.263	21374
859.396	21686
859.529	21420
859.662	21325
859.795	21370
859.928	21370
860.061	21500
860.194	21641
860.327	21515
860.46	21310
860.592	21526
860.725	21606
860.858	21606
860.99	21481
861.123	21428
861.256	21355
861.388	21389
861.521	22173
861.653	21367
861.786	21207
861.918	21340
862.05	21241
862.183	21466
862.315	21367
862.447	21408
862.58	21302
862.712	21138
862.844	21104
862.976	21192
863.108	21233
863.24	21637
863.372	21112
863.504	21089
863.636	21020
863.768	21173
863.9	21138
864.032	21176
864.164	21089
864.296	21100
864.428	21294
864.559	21226
864.691	21039
864.823	21100
864.954	21154
865.086	21230
865.217	21043
865.349	20994
865.48	21001
865.612	21135
865.743	21123
865.875	21192
866.006	20979
866.137	21093
866.269	20960
866.4	21039
866.531	20975
866.662	20918
866.793	20853
866.924	21009
867.055	20963
867.186	20925
867.317	20826
867.448	20902
867.579	21024
867.71	20876
867.841	20910
867.972	21043
868.103	20918
868.233	20906
868.364	21001
868.495	21047
868.625	21207
868.756	21241
868.886	21112
869.017	21226
869.147	21321
869.278	21260
869.408	21241
869.539	21287
869.669	21173
869.799	21233
869.929	21241
870.06	21279
870.19	21526
870.32	21504
870.45	21603
870.58	21717
870.71	21679
870.84	21682
870.97	21568
871.1	21690
871.23	21766
871.36	21838
871.489	21648
871.619	21770
871.749	21778
871.879	21930
872.008	21899
872.138	21747
872.267	21793
872.397	21698
872.526	21637
872.656	21656
872.785	21675
872.915	21778
873.044	21968
873.173	21705
873.303	21880
873.432	21816
873.561	21922
873.69	21816
873.819	21785
873.948	21953
874.077	21884
874.206	21857
874.335	21793
874.464	21876
874.593	21998
874.722	21918
874.851	22090
874.979	22162
875.108	22032
875.237	22013
875.365	21915
875.494	21972
875.623	22177
875.751	22082
875.88	22036
876.008	22234
876.136	22207
876.265	22432
876.393	22527
876.521	22569
876.65	22497
876.778	22421
876.906	22451
877.034	22379
877.162	22409
877.29	22333
877.418	22447
877.546	22421
877.674	22459
877.802	22322
877.93	22348
878.058	22287
878.185	22177
878.313	22493
878.441	22367
878.568	22265
878.696	22375
878.824	22295
878.951	22462
879.079	22493
879.206	22668
879.333	22645
879.461	22402
879.588	22382
879.715	22675
879.842	22527
879.97	22462
880.097	22249
880.224	22116
880.351	22265
880.478	22280
880.605	22124
880.732	22154
880.859	22546
880.986	22295
881.112	22188
881.239	22135
881.366	21831
881.493	21812
881.619	21816
881.746	21876
881.872	21831
881.999	21808
882.125	21648
882.252	21774
882.378	21812
882.505	21876
882.631	21751
882.757	21485
882.883	21583
883.01	21416
883.136	21393
883.262	21325
883.388	21268
883.514	21431
883.64	21481
883.766	21412
883.892	21275
884.018	21211
884.143	21462
884.269	21477
884.395	21222
884.52	21093
884.646	21146
884.772	21028
884.897	21058
885.023	21093
885.148	21173
885.274	21283
885.399	21173
885.524	21192
885.65	21108
885.775	21211
885.9	21096
886.025	21135
886.15	21062
886.275	21199
886.4	20948
886.525	21043
886.65	21028
886.775	21108
886.9	21329
887.025	21256
887.149	21131
887.274	20902
887.399	20910
887.523	20902
887.648	20849
887.773	20777
887.897	20967
888.021	20914
888.146	20792
888.27	20971
888.395	21039
888.519	20956
888.643	20834
888.767	20910
888.891	20773
889.015	20625
889.139	20724
889.263	20636
889.387	20720
889.511	20849
889.635	20826
889.759	20701
889.883	20781
890.006	20648
890.13	20731
890.254	20632
890.377	20579
890.501	20492
890.624	20533
890.748	20476
890.871	20358
890.995	20161
891.118	20187
891.241	20267
891.364	20278
891.488	20358
891.611	20309
891.734	20271
891.857	20305
891.98	20244
892.103	20377
892.226	20206
892.349	20157
892.471	20115
892.594	20267
892.717	20195
892.839	20161
892.962	20214
893.085	20218
893.207	20119
893.33	20027
893.452	20077
893.575	20237
893.697	20046
893.819	20252
893.941	20389
894.064	20301
894.186	20065
894.308	20016
894.43	20259
894.552	20305
894.674	20244
894.796	20164
894.918	20073
895.04	20214
895.161	20122
895.283	20199
895.405	19940
895.526	20172
895.648	20138
895.769	20195
895.891	20248
896.012	20210
896.134	20180
896.255	20221
896.376	19963
896.498	20176
896.619	20180
896.74	20107
896.861	20145
896.982	20533
897.103	20590
897.224	20351
897.345	20408
897.466	20263
897.587	20305
897.708	20431
897.828	20332
897.949	20434
898.07	20259
898.19	20286
898.311	20423
898.431	20419
898.552	20412
898.672	20427
898.792	20473
898.913	20374
899.033	20244
899.153	20103
899.273	20005
899.393	20122
899.513	20073
899.633	20183
899.753	20081
899.873	19959
899.993	20107
900.113	20126
900.232	20039
900.352	20054
900.472	19947
900.591	20001
900.711	19833
900.83	19849
900.95	20012
901.069	20065
901.189	19689
901.308	19597
901.427	19388
901.546	19483
901.665	19487
901.784	19460
901.904	19358
902.023	19164
902.141	19027
902.26	18954
902.379	19080
902.498	19038
902.617	18856
902.735	19057
902.854	18996
902.973	18882
903.091	18665
903.21	18650
903.328	18665
903.446	18570
903.565	18506
903.683	18429
903.801	18342
903.919	18399
904.038	18270
904.156	18247
904.274	18289
904.392	18201
904.51	18228
904.627	18216
904.745	18323
904.863	18171
904.981	17996
905.098	17878
905.216	17942
905.334	17958
905.451	17912
905.569	17912
905.686	18030
905.803	17889
905.921	17729
906.038	17885
906.155	17646
906.272	17577
906.389	17695
906.506	17387
906.623	17273
906.74	17277
906.857	17288
906.974	17463
907.091	17448
907.208	17512
907.324	17463
907.441	17376
907.557	17189
907.674	17170
907.79	17071
907.907	17117
908.023	17117
908.139	17189
908.256	17117
908.372	17048
908.488	16911
908.604	16774
908.72	16850
908.836	16999
908.952	16835
909.068	16858
909.184	17041
909.3	16873
909.415	16858
909.531	16828
909.647	16561
909.762	16615
909.878	16584
909.993	16626
910.108	16603
910.224	16527
910.339	16538
910.454	16447
910.57	16405
910.685	16306
910.8	16691
910.915	16481
911.03	16287
911.145	16200
911.259	16249
911.374	16124
911.489	16105
911.604	16044
911.718	15876
911.833	15941
911.947	15797
912.062	15808
912.176	15960
912.291	15892
912.405	15854
912.519	15960
912.633	16086
912.748	15888
912.862	15755
912.976	15701
913.09	15652
913.204	15675
913.318	15686
913.431	15785
913.545	15781
913.659	15774
913.772	15720
913.886	15625
914	15530
914.113	15682
914.226	15625
914.34	15545
914.453	15393
914.566	15473
914.68	15466
914.793	15283
914.906	15165
915.019	15161
915.132	15146
915.245	15135
915.358	15169
915.47	15039
915.583	15176
915.696	15077
915.809	15218
915.921	15169
916.034	15138
916.146	14960
916.259	14967
916.371	15089
916.483	15066
916.595	14979
916.708	14925
916.82	15009
916.932	14982
917.044	14872
917.156	14895
917.268	14758
917.38	14823
917.491	14735
917.603	14735
917.715	14788
917.826	14929
917.938	14750
918.049	14606
918.161	14636
918.272	14925
918.384	14887
918.495	14693
918.606	14568
918.717	14511
918.828	14629
918.939	14552
919.05	14480
919.161	14488
919.272	14393
919.383	14278
919.494	14575
919.604	14724
919.715	14564
919.826	14450
919.936	14465
920.047	14598
920.157	14514
920.267	14678
920.378	14602
920.488	14457
920.598	14610
920.708	14750
920.818	14629
920.928	14613
921.038	14834
921.148	14682
921.258	14427
921.368	14431
921.477	14298
921.587	14199
921.697	14103
921.806	14240
921.916	14180
922.025	13940
922.134	13940
922.244	13791
922.353	13906
922.462	13769
922.571	13715
922.68	13632
922.789	13586
922.898	13613
923.007	13518
923.116	13594
923.224	13544
923.333	13578
923.442	13392
923.55	13362
923.659	13453
923.767	13438
923.876	13293
923.984	13346
924.092	13228
924.201	13297
924.309	13247
924.417	13263
924.525	13236
924.633	13160
924.741	14005
924.849	12935
924.956	13206
925.064	12909
925.172	12970
925.279	12894
925.387	12875
925.494	12935
925.602	13023
925.709	12973
925.816	12848
925.924	12825
926.031	12943
926.138	12924
926.245	13000
926.352	12772
926.459	12958
926.566	12894
926.673	12776
926.779	12726
926.886	12738
926.993	12662
927.099	12547
927.206	12441
927.312	12483
927.419	12582
927.525	12486
927.631	12506
927.737	12407
927.843	12327
927.95	12258
928.056	12327
928.162	12327
928.267	12361
928.373	13031
928.479	12323
928.585	12087
928.69	12235
928.796	12194
928.901	12262
929.007	12045
929.112	12144
929.218	12167
929.323	12136
929.428	12076
929.533	12254
929.638	11954
929.743	11973
929.848	12072
929.953	12011
930.058	11870
930.163	11745
930.267	11714
930.372	11973
930.477	11703
930.581	11961
930.685	11775
930.79	11608
930.894	11604
930.998	11649
931.103	11767
931.207	11455
931.311	11299
931.415	11212
931.519	11014
931.623	10991
