Data from test_V78500241_1798.txt Node
Date: Fri Mar 25 15:22:22 CST 2022
User: usil
Spectrometer: V785-0024
Trigger mode: 0
Integration Time (sec): 4.000000E-1
Scans to average: 1
Nonlinearity correction enabled: false
Boxcar width: 0
Storing dark spectrum: false
XAxis mode: Wavelengths
Number of Pixels in Spectrum: 1024
>>>>>Begin Spectral Data<<<<<
801.071	27804
801.214	27812
801.356	27587
801.499	27568
801.641	27435
801.783	27374
801.926	27458
802.068	27367
802.211	27279
802.353	27237
802.496	26952
802.638	26948
802.78	27127
802.923	26990
803.065	26830
803.208	26967
803.35	27085
803.492	27260
803.635	27214
803.777	27165
803.919	27222
804.061	27561
804.204	27336
804.346	27207
804.488	27135
804.63	27195
804.773	27093
804.915	27214
805.057	27298
805.199	27291
805.341	27237
805.483	27492
805.626	27393
805.768	27211
805.91	27272
806.052	27462
806.194	27127
806.336	27549
806.478	27412
806.62	27378
806.762	27466
806.904	27587
807.046	27709
807.188	27717
807.33	27774
807.472	27781
807.614	27713
807.756	27762
807.898	27625
808.04	27660
808.182	27606
808.324	27671
808.465	27671
808.607	27766
808.749	27926
808.891	28204
809.033	28051
809.174	28044
809.316	27842
809.458	27884
809.6	27823
809.741	28154
809.883	28207
810.025	28287
810.166	28143
810.308	28249
810.45	28177
810.591	28238
810.733	27956
810.875	27979
811.016	27789
811.158	27842
811.299	27979
811.441	28109
811.582	28078
811.724	28150
811.865	27914
812.007	27960
812.148	27895
812.29	28032
812.431	28246
812.573	28284
812.714	28535
812.855	28546
812.997	28535
813.138	28664
813.279	28611
813.421	28557
813.562	28451
813.703	28246
813.845	28177
813.986	28063
814.127	27671
814.268	27618
814.41	27633
814.551	27622
814.692	27789
814.833	27739
814.974	27637
815.115	27686
815.256	27587
815.397	27515
815.539	27595
815.68	27473
815.821	27439
815.962	27473
816.103	27507
816.244	27363
816.385	27332
816.526	27214
816.666	27085
816.807	26979
816.948	27077
817.089	27146
817.23	26940
817.371	26967
817.512	26872
817.653	27070
817.793	26887
817.934	26861
818.075	26948
818.216	26918
818.356	26868
818.497	26868
818.638	26678
818.778	26670
818.919	26598
819.06	26765
819.2	26925
819.341	27017
819.481	26891
819.622	27207
819.762	27363
819.903	27291
820.043	27184
820.184	27214
820.324	27051
820.465	27108
820.605	27108
820.746	27058
820.886	26929
821.026	27074
821.167	26990
821.307	27123
821.447	27005
821.588	26918
821.728	26918
821.868	26568
822.008	26423
822.149	26404
822.289	26438
822.429	26221
822.569	26294
822.709	26084
822.849	26081
822.99	25928
823.13	25940
823.27	25959
823.41	25814
823.55	25616
823.69	25807
823.83	25822
823.97	25742
824.11	25582
824.25	25453
824.389	25582
824.529	25632
824.669	25537
824.809	25734
824.949	25753
825.089	25784
825.228	25693
825.368	25346
825.508	25556
825.648	25540
825.787	25556
825.927	25540
826.067	25354
826.206	25457
826.346	25426
826.485	25537
826.625	25495
826.765	25578
826.904	25483
827.044	25240
827.183	25270
827.323	25099
827.462	25358
827.601	25221
827.741	25198
827.88	25259
828.02	25069
828.159	25046
828.298	25255
828.437	25240
828.577	25148
828.716	25304
828.855	25027
828.994	24768
829.134	24856
829.273	24981
829.412	24730
829.551	24890
829.69	24886
829.829	24905
829.968	25027
830.107	25042
830.246	24867
830.385	24859
830.524	24814
830.663	24703
830.802	24673
830.941	24642
831.08	24547
831.219	24578
831.357	24559
831.496	24757
831.635	24513
831.774	24471
831.913	24395
832.051	24254
832.19	24285
832.329	24327
832.467	24266
832.606	24201
832.744	24140
832.883	24232
833.022	24235
833.16	24285
833.299	24209
833.437	24266
833.576	24205
833.714	24133
833.852	24372
833.991	24380
834.129	24502
834.267	24296
834.406	24342
834.544	24281
834.682	24414
834.821	24380
834.959	24372
835.097	24220
835.235	24452
835.373	24247
835.511	24254
835.65	24186
835.788	24235
835.926	24159
836.064	23931
836.202	23980
836.34	24174
836.478	24159
836.615	24041
836.753	24072
836.891	24216
837.029	24011
837.167	24038
837.305	24076
837.443	23969
837.58	23828
837.718	23954
837.856	23893
837.993	23901
838.131	23950
838.269	24003
838.406	23828
838.544	23779
838.681	23630
838.819	23547
838.956	23368
839.094	23448
839.231	23551
839.369	23630
839.506	23935
839.643	23604
839.781	23497
839.918	23379
840.055	23410
840.193	23395
840.33	23265
840.467	23395
840.604	23402
840.742	23581
840.879	23261
841.016	23197
841.153	23204
841.29	23398
841.427	23341
841.564	23452
841.701	23277
841.838	23181
841.975	23159
842.112	23212
842.249	23235
842.385	22995
842.522	23239
842.659	23052
842.796	23052
842.933	23086
843.069	22942
843.206	23071
843.343	23143
843.479	23079
843.616	23098
843.752	22934
843.889	22908
844.025	22995
844.162	22896
844.298	22961
844.435	22809
844.571	22892
844.708	22938
844.844	22957
844.98	23083
845.117	22938
845.253	22881
845.389	22698
845.525	22649
845.661	22801
845.798	22603
845.934	22656
846.07	22675
846.206	22626
846.342	22694
846.478	22577
846.614	22409
846.75	22382
846.886	22432
847.022	22436
847.158	22405
847.294	22348
847.429	22432
847.565	22390
847.701	22519
847.837	22051
847.972	22025
848.108	22044
848.244	22162
848.379	22101
848.515	21979
848.65	22044
848.786	21930
848.921	21930
849.057	22097
849.192	22097
849.328	21911
849.463	21926
849.598	21934
849.734	21838
849.869	21785
850.004	21705
850.14	21694
850.275	21797
850.41	21580
850.545	21717
850.68	21808
850.815	21781
850.95	21644
851.085	21808
851.22	21869
851.355	21671
851.49	21701
851.625	21648
851.76	21709
851.895	21530
852.03	21466
852.165	21667
852.299	21732
852.434	21751
852.569	21751
852.703	21641
852.838	21827
852.973	21781
853.107	21812
853.242	21622
853.376	21583
853.511	21583
853.645	21511
853.78	21618
853.914	21511
854.048	21603
854.183	21408
854.317	21603
854.451	21587
854.585	21580
854.72	21553
854.854	21504
854.988	21355
855.122	21599
855.256	21416
855.39	21408
855.524	21572
855.658	21542
855.792	21633
855.926	21629
856.06	21485
856.194	21648
856.327	21523
856.461	21443
856.595	21530
856.729	21511
856.862	21595
856.996	21530
857.13	21545
857.263	21572
857.397	21557
857.53	21515
857.664	21595
857.797	21545
857.931	21717
858.064	21450
858.197	21686
858.331	21458
858.464	21450
858.597	21363
858.731	21447
858.864	21386
858.997	21439
859.13	21306
859.263	21549
859.396	21526
859.529	21477
859.662	21496
859.795	21504
859.928	21519
860.061	21637
860.194	21667
860.327	21443
860.46	21477
860.592	21606
860.725	21610
860.858	21671
860.99	21583
861.123	21359
861.256	21378
861.388	21481
861.521	22211
861.653	21363
861.786	21348
861.918	21298
862.05	21462
862.183	21469
862.315	21431
862.447	21435
862.58	21428
862.712	21176
862.844	21230
862.976	21237
863.108	21283
863.24	21523
863.372	21211
863.504	21264
863.636	21131
863.768	21214
863.9	21344
864.032	21104
864.164	21142
864.296	21283
864.428	21329
864.559	21260
864.691	21256
864.823	21237
864.954	21108
865.086	21074
865.217	21013
865.349	21047
865.48	21195
865.612	21051
865.743	21264
865.875	21135
866.006	21039
866.137	21173
866.269	21043
866.4	21093
866.531	21032
866.662	21077
866.793	21096
866.924	20994
867.055	21081
867.186	21104
867.317	21039
867.448	20933
867.579	21036
867.71	20960
867.841	20887
867.972	21207
868.103	21157
868.233	21017
868.364	21032
868.495	21211
868.625	21249
868.756	21443
868.886	21336
869.017	21332
869.147	21340
869.278	21336
869.408	21313
869.539	21233
869.669	21420
869.799	21317
869.929	21397
870.06	21412
870.19	21629
870.32	21561
870.45	21622
870.58	21682
870.71	21751
870.84	21766
870.97	21671
871.1	21667
871.23	21789
871.36	21873
871.489	21869
871.619	21865
871.749	21819
871.879	21907
872.008	22032
872.138	21964
872.267	21865
872.397	21850
872.526	21770
872.656	21679
872.785	21694
872.915	21911
873.044	21907
873.173	21941
873.303	21903
873.432	21888
873.561	21972
873.69	21895
873.819	21911
873.948	22044
874.077	21770
874.206	21778
874.335	21975
874.464	22059
874.593	22086
874.722	22124
874.851	22131
874.979	22074
875.108	22284
875.237	22093
875.365	22063
875.494	22124
875.623	22196
875.751	22101
875.88	22158
876.008	22352
876.136	22375
876.265	22493
876.393	22698
876.521	22656
876.65	22626
876.778	22538
876.906	22375
877.034	22474
877.162	22303
877.29	22459
877.418	22531
877.546	22565
877.674	22557
877.802	22519
877.93	22440
878.058	22481
878.185	22344
878.313	22402
878.441	22474
878.568	22284
878.696	22363
878.824	22569
878.951	22500
879.079	22611
879.206	22801
879.333	22615
879.461	22474
879.588	22683
879.715	22596
879.842	22713
879.97	22485
880.097	22333
880.224	22329
880.351	22398
880.478	22344
880.605	22223
880.732	22265
880.859	22402
880.986	22272
881.112	22272
881.239	22238
881.366	21956
881.493	21941
881.619	21911
881.746	21930
881.872	21846
881.999	21785
882.125	21778
882.252	21861
882.378	21797
882.505	21854
882.631	21637
882.757	21526
882.883	21637
883.01	21545
883.136	21549
883.262	21370
883.388	21428
883.514	21523
883.64	21572
883.766	21526
883.892	21382
884.018	21416
884.143	21534
884.269	21549
884.395	21245
884.52	21116
884.646	21272
884.772	21104
884.897	21039
885.023	21207
885.148	21199
885.274	21416
885.399	21317
885.524	21241
885.65	21154
885.775	21203
885.9	21195
886.025	21279
886.15	21180
886.275	21173
886.4	21085
886.525	21294
886.65	21135
886.775	21180
886.9	21161
887.025	21401
887.149	21173
887.274	20937
887.399	20998
887.523	21017
887.648	20975
887.773	20937
887.897	21127
888.021	21043
888.146	20899
888.27	20998
888.395	21169
888.519	21074
888.643	21047
888.767	20998
888.891	20937
889.015	20739
889.139	20895
889.263	20754
889.387	20853
889.511	20960
889.635	20918
889.759	20716
889.883	20845
890.006	20880
890.13	20838
890.254	20716
890.377	20777
890.501	20552
890.624	20400
890.748	20488
890.871	20370
890.995	20298
891.118	20202
891.241	20396
891.364	20267
891.488	20434
891.611	20336
891.734	20328
891.857	20427
891.98	20305
892.103	20358
892.226	20298
892.349	20328
892.471	20103
892.594	20183
892.717	20298
892.839	20267
892.962	20199
893.085	20328
893.207	20256
893.33	20134
893.452	20214
893.575	20290
893.697	20103
893.819	20351
893.941	20400
894.064	20377
894.186	20195
894.308	20218
894.43	20313
894.552	20385
894.674	20332
894.796	20206
894.918	20214
895.04	20043
895.161	20202
895.283	20214
895.405	20111
895.526	20138
895.648	20259
895.769	20221
895.891	20225
896.012	20244
896.134	20180
896.255	20172
896.376	20149
896.498	20259
896.619	20275
896.74	20206
896.861	20351
896.982	20469
897.103	20674
897.224	20606
897.345	20404
897.466	20298
897.587	20412
897.708	20583
897.828	20465
897.949	20355
898.07	20377
898.19	20275
898.311	20351
898.431	20473
898.552	20381
898.672	20503
898.792	20594
898.913	20396
899.033	20332
899.153	20191
899.273	20358
899.393	20130
899.513	20202
899.633	20298
899.753	20282
899.873	20081
899.993	20126
900.113	20134
900.232	20088
900.352	20172
900.472	20027
900.591	19894
900.711	20027
900.83	19852
900.95	19932
901.069	20096
901.189	19928
901.308	19651
901.427	19578
901.546	19563
901.665	19525
901.784	19495
901.904	19415
902.023	19293
902.141	19148
902.26	19198
902.379	19137
902.498	19175
902.617	19118
902.735	19095
902.854	18970
902.973	18859
903.091	18814
903.21	18722
903.328	18688
903.446	18654
903.565	18563
903.683	18597
903.801	18547
903.919	18460
904.038	18536
904.156	18346
904.274	18429
904.392	18315
904.51	18235
904.627	18304
904.745	18369
904.863	18372
904.981	18216
905.098	18019
905.216	18038
905.334	18053
905.451	17973
905.569	17889
905.686	18072
905.803	17984
905.921	17832
906.038	17942
906.155	17779
906.272	17710
906.389	17718
906.506	17535
906.623	17509
906.74	17524
906.857	17383
906.974	17330
907.091	17516
907.208	17680
907.324	17596
907.441	17493
907.557	17372
907.674	17307
907.79	17189
907.907	17189
908.023	17261
908.139	17383
908.256	17250
908.372	17140
908.488	17155
908.604	17037
908.72	17045
908.836	17086
908.952	16927
909.068	17033
909.184	17064
909.3	16987
909.415	17014
909.531	16923
909.647	16698
909.762	16763
909.878	16626
909.993	16702
910.108	16664
910.224	16744
910.339	16592
910.454	16531
910.57	16470
910.685	16344
910.8	16641
910.915	16656
911.03	16622
911.145	16337
911.259	16150
911.374	16223
911.489	16280
911.604	16135
911.718	16036
911.833	15979
911.947	15937
912.062	15911
912.176	15975
912.291	15941
912.405	15911
912.519	16063
912.633	16200
912.748	16082
912.862	16124
912.976	15861
913.09	15732
913.204	15762
913.318	15800
913.431	16006
913.545	15857
913.659	15956
913.772	15823
913.886	15625
914	15675
914.113	15701
914.226	15766
914.34	15667
914.453	15561
914.566	15709
914.68	15534
914.793	15443
914.906	15249
915.019	15237
915.132	15138
915.245	15176
915.358	15317
915.47	15310
915.583	15199
915.696	15195
915.809	15351
915.921	15355
916.034	15138
916.146	15085
916.259	15135
916.371	15154
916.483	15195
916.595	15123
916.708	15116
916.82	14986
916.932	14982
917.044	15043
917.156	15055
917.268	14963
917.38	14887
917.491	14960
917.603	14933
917.715	14998
917.826	15013
917.938	14838
918.049	14648
918.161	14758
918.272	14944
918.384	14929
918.495	14705
918.606	14697
918.717	14648
918.828	14689
918.939	14708
919.05	14579
919.161	14724
919.272	14492
919.383	14503
919.494	14693
919.604	14811
919.715	14617
919.826	14533
919.936	14484
920.047	14674
920.157	14655
920.267	14750
920.378	14617
920.488	14560
920.598	14807
920.708	14823
920.818	14648
920.928	14731
921.038	14830
921.148	14876
921.258	14594
921.368	14465
921.477	14278
921.587	14351
921.697	14103
921.806	14355
921.916	14218
922.025	14100
922.134	13913
922.244	13955
922.353	14016
922.462	13868
922.571	13753
922.68	13700
922.789	13590
922.898	13639
923.007	13605
923.116	13647
923.224	13582
923.333	13639
923.442	13533
923.55	13400
923.659	13441
923.767	13441
923.876	13381
923.984	13529
924.092	13263
924.201	13377
924.309	13407
924.417	13358
924.525	13354
924.633	13301
924.741	14248
924.849	13042
924.956	13255
925.064	13099
925.172	12996
925.279	12954
925.387	13072
925.494	13046
925.602	13183
925.709	13061
925.816	12947
925.924	13000
926.031	13015
926.138	12924
926.245	13057
926.352	12928
926.459	13019
926.566	13065
926.673	12905
926.779	12745
926.886	12772
926.993	12616
927.099	12601
927.206	12669
927.312	12593
927.419	12620
927.525	12658
927.631	12521
927.737	12448
927.843	12456
927.95	12357
928.056	12433
928.162	12433
928.267	12437
928.373	13145
928.479	12441
928.585	12205
928.69	12426
928.796	12418
928.901	12266
929.007	12171
929.112	12224
929.218	12182
929.323	12159
929.428	12091
929.533	12171
929.638	12140
929.743	12095
929.848	12117
929.953	12049
930.058	11950
930.163	11836
930.267	11855
930.372	11920
930.477	11855
930.581	11885
930.685	11874
930.79	11657
930.894	11729
930.998	11646
931.103	11794
931.207	11421
931.311	11463
931.415	11292
931.519	11113
931.623	11045
