Data from test_V78500241_1098.txt Node
Date: Fri Mar 25 15:17:30 CST 2022
User: usil
Spectrometer: V785-0024
Trigger mode: 0
Integration Time (sec): 4.000000E-1
Scans to average: 1
Nonlinearity correction enabled: false
Boxcar width: 0
Storing dark spectrum: false
XAxis mode: Wavelengths
Number of Pixels in Spectrum: 1024
>>>>>Begin Spectral Data<<<<<
801.071	28531
801.214	28322
801.356	28124
801.499	28048
801.641	27918
801.783	27899
801.926	28268
802.068	28093
802.211	27926
802.353	27983
802.496	27774
802.638	27770
802.78	27804
802.923	27656
803.065	27652
803.208	27641
803.35	27705
803.492	27759
803.635	27838
803.777	27724
803.919	27892
804.061	28238
804.204	28006
804.346	27991
804.488	27857
804.63	28051
804.773	27998
804.915	27911
805.057	27968
805.199	27835
805.341	28040
805.483	28116
805.626	28070
805.768	27998
805.91	28097
806.052	28093
806.194	27945
806.336	28207
806.478	28036
806.62	28196
806.762	28223
806.904	28382
807.046	28508
807.188	28474
807.33	28489
807.472	28470
807.614	28504
807.756	28401
807.898	28565
808.04	28295
808.182	28295
808.324	28344
808.465	28341
808.607	28580
808.749	28729
808.891	28748
809.033	28965
809.174	28759
809.316	28656
809.458	28896
809.6	28733
809.741	28828
809.883	28904
810.025	28980
810.166	28911
810.308	29098
810.45	29029
810.591	29003
810.733	28660
810.875	28908
811.016	28618
811.158	28702
811.299	28843
811.441	29018
811.582	28927
811.724	28664
811.865	28755
812.007	28801
812.148	28744
812.29	28778
812.431	28923
812.573	29064
812.714	29109
812.855	29356
812.997	29364
813.138	29566
813.279	29524
813.421	29421
813.562	29296
813.703	29136
813.845	29083
813.986	28656
814.127	28596
814.268	28531
814.41	28352
814.551	28516
814.692	28516
814.833	28451
814.974	28497
815.115	28386
815.256	28386
815.397	28504
815.539	28405
815.68	28367
815.821	28196
815.962	28352
816.103	28295
816.244	28158
816.385	28082
816.526	28124
816.666	27941
816.807	27835
816.948	27922
817.089	27816
817.23	27827
817.371	27766
817.512	27816
817.653	27838
817.793	27903
817.934	27762
818.075	27876
818.216	27808
818.356	27819
818.497	27679
818.638	27500
818.778	27698
818.919	27686
819.06	27698
819.2	27694
819.341	27838
819.481	27926
819.622	27892
819.762	28158
819.903	28154
820.043	28063
820.184	28036
820.324	27854
820.465	27941
820.605	27979
820.746	27914
820.886	27713
821.026	27964
821.167	27892
821.307	27949
821.447	27850
821.588	27789
821.728	27599
821.868	27473
822.008	27386
822.149	27279
822.289	27306
822.429	27176
822.569	27028
822.709	27005
822.849	26739
822.99	26838
823.13	26861
823.27	26697
823.41	26621
823.55	26480
823.69	26568
823.83	26663
823.97	26583
824.11	26415
824.25	26541
824.389	26492
824.529	26453
824.669	26533
824.809	26625
824.949	26598
825.089	26644
825.228	26552
825.368	26320
825.508	26377
825.648	26419
825.787	26514
825.927	26355
826.067	26256
826.206	26233
826.346	26431
826.485	26256
826.625	26362
826.765	26461
826.904	26351
827.044	26084
827.183	26153
827.323	26031
827.462	26168
827.601	25951
827.741	25959
827.88	26168
828.02	25925
828.159	25963
828.298	26153
828.437	26130
828.577	25940
828.716	26218
828.855	26016
828.994	25894
829.134	25708
829.273	25643
829.412	25731
829.551	25795
829.69	25765
829.829	25932
829.968	25959
830.107	25845
830.246	25791
830.385	25685
830.524	25807
830.663	25495
830.802	25521
830.941	25430
831.08	25381
831.219	25373
831.357	25468
831.496	25578
831.635	25381
831.774	25449
831.913	25274
832.051	25129
832.19	25266
832.329	25251
832.467	25076
832.606	25046
832.744	25076
832.883	25091
833.022	25046
833.16	25099
833.299	25038
833.437	25084
833.576	25084
833.714	25183
833.852	25137
833.991	25282
834.129	25282
834.267	25255
834.406	25095
834.544	25320
834.682	25141
834.821	25118
834.959	25209
835.097	25084
835.235	25209
835.373	25240
835.511	25168
835.65	24970
835.788	24958
835.926	24825
836.064	24791
836.202	24833
836.34	24928
836.478	24992
836.615	25004
836.753	24947
836.891	25050
837.029	24962
837.167	24856
837.305	24943
837.443	24939
837.58	24852
837.718	24848
837.856	24817
837.993	24757
838.131	24825
838.269	24688
838.406	24703
838.544	24612
838.681	24540
838.819	24517
838.956	24247
839.094	24247
839.231	24372
839.369	24433
839.506	24688
839.643	24452
839.781	24239
839.918	24304
840.055	24319
840.193	24194
840.33	24182
840.467	24197
840.604	24220
840.742	24369
840.879	24098
841.016	24083
841.153	24045
841.29	24384
841.427	24346
841.564	24144
841.701	24076
841.838	24114
841.975	24159
842.112	24136
842.249	23999
842.385	23980
842.522	24235
842.659	23942
842.796	24015
842.933	23908
843.069	23920
843.206	23840
843.343	23958
843.479	23920
843.616	24087
843.752	23771
843.889	23718
844.025	23942
844.162	23668
844.298	23821
844.435	23775
844.571	23611
844.708	23813
844.844	23836
844.98	23786
845.117	23760
845.253	23646
845.389	23535
845.525	23672
845.661	23634
845.798	23478
845.934	23501
846.07	23425
846.206	23539
846.342	23531
846.478	23368
846.614	23330
846.75	23056
846.886	23181
847.022	23227
847.158	23292
847.294	23086
847.429	23280
847.565	23132
847.701	23501
847.837	23014
847.972	22793
848.108	23018
848.244	23067
848.379	22927
848.515	22744
848.65	22733
848.786	22915
848.921	22778
849.057	22850
849.192	22892
849.328	22672
849.463	22797
849.598	22615
849.734	22569
849.869	22546
850.004	22516
850.14	22527
850.275	22603
850.41	22493
850.545	22653
850.68	22519
850.815	22653
850.95	22637
851.085	22721
851.22	22660
851.355	22569
851.49	22500
851.625	22493
851.76	22485
851.895	22527
852.03	22500
852.165	22546
852.299	22645
852.434	22675
852.569	22664
852.703	22554
852.838	22694
852.973	22797
853.107	22706
853.242	22527
853.376	22485
853.511	22504
853.645	22382
853.78	22485
853.914	22440
854.048	22261
854.183	22440
854.317	22443
854.451	22443
854.585	22481
854.72	22367
854.854	22702
854.988	22291
855.122	22344
855.256	22135
855.39	22303
855.524	22455
855.658	22519
855.792	22390
855.926	22466
856.06	22409
856.194	22474
856.327	22329
856.461	22443
856.595	22280
856.729	22291
856.862	22470
856.996	22325
857.13	22481
857.263	22497
857.397	22474
857.53	22352
857.664	22409
857.797	22478
857.931	22432
858.064	22409
858.197	22508
858.331	22261
858.464	22371
858.597	22394
858.731	22421
858.864	22329
858.997	22443
859.13	22322
859.263	22546
859.396	22447
859.529	22481
859.662	22303
859.795	22333
859.928	22428
860.061	22702
860.194	22592
860.327	22546
860.46	22363
860.592	22618
860.725	22584
860.858	22500
860.99	22402
861.123	22276
861.256	22287
861.388	22405
861.521	22946
861.653	22268
861.786	22139
861.918	22265
862.05	22207
862.183	22341
862.315	22337
862.447	22246
862.58	22329
862.712	22101
862.844	21998
862.976	22192
863.108	22196
863.24	22421
863.372	21987
863.504	22257
863.636	22253
863.768	22139
863.9	22086
864.032	22070
864.164	22025
864.296	22181
864.428	22284
864.559	22150
864.691	22070
864.823	22070
864.954	22169
865.086	22013
865.217	22021
865.349	21994
865.48	21983
865.612	22006
865.743	22078
865.875	22029
866.006	21854
866.137	21899
866.269	21979
866.4	21956
866.531	21918
866.662	21835
866.793	21774
866.924	21857
867.055	21983
867.186	21892
867.317	21899
867.448	21816
867.579	21770
867.71	21804
867.841	21854
867.972	21842
868.103	21949
868.233	21873
868.364	21918
868.495	21922
868.625	22070
868.756	22284
868.886	22078
869.017	22177
869.147	22215
869.278	22207
869.408	22112
869.539	22017
869.669	22322
869.799	22204
869.929	22169
870.06	22329
870.19	22462
870.32	22303
870.45	22478
870.58	22459
870.71	22710
870.84	22679
870.97	22557
871.1	22497
871.23	22679
871.36	22721
871.489	22664
871.619	22508
871.749	22889
871.879	22694
872.008	22877
872.138	22687
872.267	22687
872.397	22660
872.526	22478
872.656	22637
872.785	22622
872.915	22793
873.044	22668
873.173	22763
873.303	22793
873.432	22706
873.561	22881
873.69	22679
873.819	22683
873.948	22858
874.077	22786
874.206	22698
874.335	22748
874.464	22717
874.593	23044
874.722	22911
874.851	23033
874.979	22881
875.108	22938
875.237	22987
875.365	22805
875.494	23003
875.623	22934
875.751	22987
875.88	22987
876.008	23132
876.136	23124
876.265	23433
876.393	23376
876.521	23395
876.65	23478
876.778	23288
876.906	23189
877.034	23269
877.162	23318
877.29	23296
877.418	23273
877.546	23372
877.674	23288
877.802	23307
877.93	23387
878.058	23216
878.185	23185
878.313	23189
878.441	23299
878.568	23170
878.696	23337
878.824	23258
878.951	23277
879.079	23497
879.206	23589
879.333	23554
879.461	23360
879.588	23288
879.715	23467
879.842	23577
879.97	23345
880.097	23090
880.224	23109
880.351	23159
880.478	23105
880.605	23083
880.732	23048
880.859	23353
880.986	23113
881.112	23033
881.239	22915
881.366	22820
881.493	22930
881.619	22710
881.746	22706
881.872	22660
881.999	22649
882.125	22675
882.252	22694
882.378	22603
882.505	22710
882.631	22462
882.757	22459
882.883	22516
883.01	22432
883.136	22341
883.262	22120
883.388	22109
883.514	22405
883.64	22371
883.766	22284
883.892	22219
884.018	22162
884.143	22257
884.269	22436
884.395	22185
884.52	22070
884.646	21956
884.772	21831
884.897	21930
885.023	22029
885.148	22048
885.274	22082
885.399	22040
885.524	21876
885.65	21907
885.775	22017
885.9	21888
886.025	22025
886.15	21994
886.275	21918
886.4	21816
886.525	21994
886.65	21930
886.775	21907
886.9	22097
887.025	22101
887.149	21915
887.274	21774
887.399	21724
887.523	21766
887.648	21641
887.773	21618
887.897	21766
888.021	21857
888.146	21591
888.27	21842
888.395	21793
888.519	21759
888.643	21698
888.767	21804
888.891	21530
889.015	21515
889.139	21667
889.263	21534
889.387	21603
889.511	21797
889.635	21660
889.759	21450
889.883	21500
890.006	21561
890.13	21698
890.254	21538
890.377	21363
890.501	21249
890.624	21298
890.748	21363
890.871	21093
890.995	20956
891.118	20990
891.241	21131
891.364	21256
891.488	21142
891.611	21070
891.734	21032
891.857	21222
891.98	21119
892.103	21074
892.226	21104
892.349	20960
892.471	20914
892.594	20963
892.717	21058
892.839	20887
892.962	21009
893.085	21066
893.207	21036
893.33	20853
893.452	20902
893.575	21112
893.697	20975
893.819	21081
893.941	21055
894.064	20937
894.186	21005
894.308	20868
894.43	21066
894.552	21142
894.674	21116
894.796	20834
894.918	20921
895.04	20876
895.161	20975
895.283	21001
895.405	20857
895.526	21055
895.648	20887
895.769	20838
895.891	20925
896.012	21020
896.134	20899
896.255	20921
896.376	20891
896.498	21013
896.619	20918
896.74	20952
896.861	20899
896.982	21237
897.103	21428
897.224	21252
897.345	21207
897.466	21020
897.587	21085
897.708	21233
897.828	21173
897.949	21032
898.07	21070
898.19	21028
898.311	21249
898.431	21024
898.552	21116
898.672	21131
898.792	21199
898.913	21074
899.033	21017
899.153	20887
899.273	20682
899.393	20830
899.513	20857
899.633	20990
899.753	20720
899.873	20823
899.993	20811
900.113	20819
900.232	20807
900.352	20686
900.472	20621
900.591	20617
900.711	20708
900.83	20469
900.95	20689
901.069	20682
901.189	20492
901.308	20218
901.427	20115
901.546	20339
901.665	20286
901.784	20126
901.904	20058
902.023	19951
902.141	19742
902.26	19742
902.379	19788
902.498	19670
902.617	19616
902.735	19753
902.854	19769
902.973	19624
903.091	19464
903.21	19441
903.328	19369
903.446	19221
903.565	19225
903.683	19038
903.801	19061
903.919	19091
904.038	19152
904.156	18966
904.274	19023
904.392	18878
904.51	18981
904.627	18852
904.745	19008
904.863	18905
904.981	18715
905.098	18646
905.216	18532
905.334	18707
905.451	18616
905.569	18658
905.686	18612
905.803	18574
905.921	18353
906.038	18509
906.155	18471
906.272	18376
906.389	18224
906.506	18121
906.623	18209
906.74	18155
906.857	18019
906.974	17977
907.091	18098
907.208	18220
907.324	18106
907.441	18003
907.557	17942
907.674	17863
907.79	17851
907.907	17813
908.023	17897
908.139	17821
908.256	17687
908.372	17710
908.488	17775
908.604	17608
908.72	17501
908.836	17547
908.952	17528
909.068	17577
909.184	17722
909.3	17509
909.415	17497
909.531	17646
909.647	17307
909.762	17261
909.878	17296
909.993	17242
910.108	17193
910.224	17174
910.339	17284
910.454	17105
910.57	16965
910.685	16991
910.8	17273
910.915	17079
911.03	16987
911.145	16885
911.259	16793
911.374	16869
911.489	16790
911.604	16717
911.718	16592
911.833	16538
911.947	16470
912.062	16386
912.176	16462
912.291	16630
912.405	16542
912.519	16843
912.633	16744
912.748	16630
912.862	16592
912.976	16318
913.09	16303
913.204	16402
913.318	16310
913.431	16443
913.545	16348
913.659	16508
913.772	16318
913.886	16147
914	16246
914.113	16272
914.226	16284
914.34	16242
914.453	16067
914.566	16242
914.68	16059
914.793	15994
914.906	15816
915.019	15698
915.132	15701
915.245	15736
915.358	15823
915.47	15755
915.583	15816
915.696	15850
915.809	15816
915.921	15835
916.034	15656
916.146	15618
916.259	15595
916.371	15838
916.483	15660
916.595	15511
916.708	15599
916.82	15652
916.932	15443
917.044	15462
917.156	15424
917.268	15454
917.38	15389
917.491	15306
917.603	15443
917.715	15462
917.826	15378
917.938	15241
918.049	15260
918.161	15313
918.272	15382
918.384	15500
918.495	15279
918.606	15211
918.717	15131
918.828	15127
918.939	15097
919.05	15020
919.161	15180
919.272	14921
919.383	14994
919.494	15100
919.604	15279
919.715	15123
919.826	15047
919.936	15051
920.047	15188
920.157	15051
920.267	15180
920.378	15028
920.488	15020
920.598	15112
920.708	15344
920.818	15237
920.928	15176
921.038	15272
921.148	15245
921.258	15039
921.368	14998
921.477	14853
921.587	14781
921.697	14617
921.806	14830
921.916	14716
922.025	14473
922.134	14503
922.244	14465
922.353	14385
922.462	14438
922.571	14328
922.68	14126
922.789	14073
922.898	14069
923.007	14024
923.116	14077
923.224	14073
923.333	13978
923.442	13909
923.55	13925
923.659	13955
923.767	13917
923.876	13753
923.984	14005
924.092	13788
924.201	13738
924.309	13845
924.417	13769
924.525	13704
924.633	13704
924.741	14644
924.849	13575
924.956	13677
925.064	13582
925.172	13377
925.279	13472
925.387	13559
925.494	13396
925.602	13620
925.709	13510
925.816	13354
925.924	13400
926.031	13441
926.138	13400
926.245	13419
926.352	13320
926.459	13415
926.566	13571
926.673	13350
926.779	13156
926.886	13103
926.993	13122
927.099	13091
927.206	12962
927.312	13004
927.419	13042
927.525	12981
927.631	13000
927.737	12909
927.843	12844
927.95	12677
928.056	12810
928.162	12852
928.267	12833
928.373	13468
928.479	12909
928.585	12646
928.69	12684
928.796	12783
928.901	12639
929.007	12521
929.112	12650
929.218	12627
929.323	12513
929.428	12502
929.533	12665
929.638	12471
929.743	12418
929.848	12544
929.953	12384
930.058	12418
930.163	12251
930.267	12194
930.372	12395
930.477	12148
930.581	12372
930.685	12232
930.79	12083
930.894	12106
930.998	12076
931.103	12041
931.207	11756
931.311	11783
931.415	11688
931.519	11558
931.623	11395
