Data from test_V78500241_2388.txt Node
Date: Fri Mar 25 15:26:29 CST 2022
User: usil
Spectrometer: V785-0024
Trigger mode: 0
Integration Time (sec): 4.000000E-1
Scans to average: 1
Nonlinearity correction enabled: false
Boxcar width: 0
Storing dark spectrum: false
XAxis mode: Wavelengths
Number of Pixels in Spectrum: 1024
>>>>>Begin Spectral Data<<<<<
801.071	27169
801.214	27230
801.356	26952
801.499	26765
801.641	26739
801.783	26716
801.926	26697
802.068	26644
802.211	26667
802.353	26480
802.496	26324
802.638	26320
802.78	26305
802.923	26309
803.065	26202
803.208	26286
803.35	26434
803.492	26453
803.635	26545
803.777	26412
803.919	26465
804.061	26834
804.204	26632
804.346	26423
804.488	26473
804.63	26370
804.773	26461
804.915	26484
805.057	26484
805.199	26488
805.341	26495
805.483	26686
805.626	26712
805.768	26511
805.91	26708
806.052	26712
806.194	26408
806.336	26655
806.478	26549
806.62	26602
806.762	26758
806.904	26735
807.046	27058
807.188	27028
807.33	27020
807.472	27047
807.614	26944
807.756	27001
807.898	26823
808.04	26849
808.182	26773
808.324	26807
808.465	26906
808.607	27096
808.749	27100
808.891	27317
809.033	27313
809.174	27363
809.316	27321
809.458	27131
809.6	27142
809.741	27230
809.883	27116
810.025	27538
810.166	27530
810.308	27348
810.45	27397
810.591	27287
810.733	27081
810.875	27188
811.016	27173
811.158	26975
811.299	27157
811.441	27230
811.582	27237
811.724	27062
811.865	26902
812.007	27165
812.148	27150
812.29	27237
812.431	27203
812.573	27420
812.714	27462
812.855	27652
812.997	27679
813.138	27911
813.279	27865
813.421	27614
813.562	27641
813.703	27530
813.845	27279
813.986	27032
814.127	26971
814.268	26842
814.41	26914
814.551	26758
814.692	26925
814.833	26682
814.974	26838
815.115	26853
815.256	26845
815.397	26800
815.539	26686
815.68	26705
815.821	26606
815.962	26659
816.103	26560
816.244	26396
816.385	26351
816.526	26362
816.666	26290
816.807	26073
816.948	26161
817.089	26195
817.23	26092
817.371	26016
817.512	26016
817.653	26031
817.793	25947
817.934	26084
818.075	26077
818.216	26111
818.356	26062
818.497	25890
818.638	25765
818.778	25955
818.919	25780
819.06	26012
819.2	26039
819.341	26122
819.481	26046
819.622	26290
819.762	26453
819.903	26320
820.043	26218
820.184	26027
820.324	26195
820.465	26290
820.605	26221
820.746	26130
820.886	26016
821.026	26153
821.167	26298
821.307	26134
821.447	26142
821.588	25898
821.728	25944
821.868	25715
822.008	25563
822.149	25434
822.289	25616
822.429	25327
822.569	25168
822.709	25301
822.849	25072
822.99	25069
823.13	25118
823.27	25042
823.41	24844
823.55	24802
823.69	24916
823.83	24951
823.97	24867
824.11	24665
824.25	24635
824.389	24730
824.529	24749
824.669	24768
824.809	24798
824.949	24745
825.089	24840
825.228	24776
825.368	24574
825.508	24555
825.648	24498
825.787	24646
825.927	24528
826.067	24479
826.206	24475
826.346	24620
826.485	24688
826.625	24528
826.765	24658
826.904	24513
827.044	24483
827.183	24315
827.323	24296
827.462	24315
827.601	24270
827.741	24220
827.88	24228
828.02	24053
828.159	24220
828.298	24334
828.437	24338
828.577	24167
828.716	24422
828.855	24133
828.994	23874
829.134	23923
829.273	23969
829.412	24026
829.551	23901
829.69	23946
829.829	23931
829.968	24060
830.107	24049
830.246	23965
830.385	23977
830.524	23805
830.663	23863
830.802	23737
830.941	23665
831.08	23562
831.219	23676
831.357	23642
831.496	23832
831.635	23608
831.774	23592
831.913	23429
832.051	23383
832.19	23425
832.329	23376
832.467	23474
832.606	23200
832.744	23307
832.883	23273
833.022	23269
833.16	23288
833.299	23398
833.437	23288
833.576	23341
833.714	23250
833.852	23402
833.991	23524
834.129	23436
834.267	23391
834.406	23322
834.544	23368
834.682	23379
834.821	23299
834.959	23520
835.097	23292
835.235	23448
835.373	23250
835.511	23258
835.65	23208
835.788	23227
835.926	23090
836.064	23029
836.202	23006
836.34	23200
836.478	23303
836.615	23132
836.753	23200
836.891	23140
837.029	23212
837.167	23170
837.305	23033
837.443	23052
837.58	22934
837.718	23083
837.856	23041
837.993	22987
838.131	22949
838.269	22930
838.406	22904
838.544	22927
838.681	22717
838.819	22744
838.956	22512
839.094	22538
839.231	22615
839.369	22721
839.506	22801
839.643	22767
839.781	22557
839.918	22413
840.055	22516
840.193	22504
840.33	22360
840.467	22554
840.604	22443
840.742	22702
840.879	22375
841.016	22253
841.153	22485
841.29	22626
841.427	22550
841.564	22436
841.701	22356
841.838	22348
841.975	22238
842.112	22337
842.249	22226
842.385	22124
842.522	22390
842.659	22120
842.796	22322
842.933	22303
843.069	22177
843.206	22116
843.343	22238
843.479	22078
843.616	22169
843.752	21915
843.889	22017
844.025	22082
844.162	21888
844.298	22082
844.435	21892
844.571	21838
844.708	21953
844.844	22086
844.98	22109
845.117	22006
845.253	21937
845.389	21895
845.525	21842
845.661	21770
845.798	21808
845.934	21762
846.07	21709
846.206	21717
846.342	21789
846.478	21736
846.614	21530
846.75	21329
846.886	21405
847.022	21534
847.158	21389
847.294	21481
847.429	21542
847.565	21462
847.701	21618
847.837	21214
847.972	20960
848.108	21351
848.244	21203
848.379	21188
848.515	21089
848.65	21005
848.786	21108
848.921	21013
849.057	21047
849.192	21127
849.328	21077
849.463	21020
849.598	20944
849.734	20899
849.869	20857
850.004	20899
850.14	20819
850.275	20754
850.41	20731
850.545	20651
850.68	20838
850.815	20853
850.95	20857
851.085	20982
851.22	20819
851.355	20792
851.49	20800
851.625	20705
851.76	20758
851.895	20724
852.03	20640
852.165	20765
852.299	20769
852.434	20830
852.569	20781
852.703	20785
852.838	20838
852.973	20880
853.107	20815
853.242	20765
853.376	20632
853.511	20522
853.645	20556
853.78	20735
853.914	20716
854.048	20568
854.183	20575
854.317	20476
854.451	20781
854.585	20724
854.72	20663
854.854	20701
854.988	20606
855.122	20590
855.256	20492
855.39	20568
855.524	20644
855.658	20632
855.792	20648
855.926	20606
856.06	20682
856.194	20682
856.327	20575
856.461	20648
856.595	20571
856.729	20598
856.862	20648
856.996	20674
857.13	20686
857.263	20708
857.397	20773
857.53	20625
857.664	20670
857.797	20571
857.931	20727
858.064	20708
858.197	20754
858.331	20621
858.464	20552
858.597	20522
858.731	20625
858.864	20598
858.997	20697
859.13	20701
859.263	20777
859.396	20689
859.529	20663
859.662	20575
859.795	20522
859.928	20651
860.061	20819
860.194	20743
860.327	20625
860.46	20579
860.592	20697
860.725	20773
860.858	20602
860.99	20625
861.123	20511
861.256	20568
861.388	20651
861.521	21020
861.653	20469
861.786	20522
861.918	20427
862.05	20442
862.183	20571
862.315	20701
862.447	20590
862.58	20579
862.712	20450
862.844	20301
862.976	20442
863.108	20393
863.24	20743
863.372	20286
863.504	20214
863.636	20377
863.768	20298
863.9	20366
864.032	20244
864.164	20218
864.296	20294
864.428	20396
864.559	20415
864.691	20438
864.823	20374
864.954	20199
865.086	20305
865.217	20278
865.349	20210
865.48	20286
865.612	20134
865.743	20457
865.875	20278
866.006	20187
866.137	20180
866.269	20305
866.4	20256
866.531	20172
866.662	20164
866.793	20062
866.924	20149
867.055	20275
867.186	20221
867.317	20065
867.448	20077
867.579	20050
867.71	20107
867.841	20111
867.972	20263
868.103	20073
868.233	20107
868.364	20172
868.495	20210
868.625	20419
868.756	20400
868.886	20370
869.017	20415
869.147	20518
869.278	20492
869.408	20396
869.539	20317
869.669	20438
869.799	20488
869.929	20533
870.06	20511
870.19	20739
870.32	20765
870.45	20769
870.58	20754
870.71	20967
870.84	20963
870.97	20765
871.1	20868
871.23	20986
871.36	20937
871.489	20819
871.619	20971
871.749	20937
871.879	21135
872.008	21199
872.138	21039
872.267	20948
872.397	20823
872.526	20769
872.656	20819
872.785	20804
872.915	21039
873.044	21161
873.173	21066
873.303	21119
873.432	21119
873.561	21100
873.69	21085
873.819	21005
873.948	21074
874.077	20914
874.206	20990
874.335	20979
874.464	21142
874.593	21150
874.722	21089
874.851	21245
874.979	21291
875.108	21272
875.237	21051
875.365	21100
875.494	21268
875.623	21416
875.751	21256
875.88	21283
876.008	21424
876.136	21485
876.265	21614
876.393	21964
876.521	21709
876.65	21682
876.778	21667
876.906	21701
877.034	21519
877.162	21667
877.29	21625
877.418	21644
877.546	21557
877.674	21629
877.802	21698
877.93	21644
878.058	21637
878.185	21504
878.313	21625
878.441	21542
878.568	21492
878.696	21671
878.824	21515
878.951	21770
879.079	21717
879.206	21846
879.333	21732
879.461	21698
879.588	21675
879.715	21762
879.842	21960
879.97	21614
880.097	21477
880.224	21477
880.351	21428
880.478	21561
880.605	21431
880.732	21492
880.859	21743
880.986	21401
881.112	21492
881.239	21279
881.366	21260
881.493	21062
881.619	20986
881.746	21093
881.872	20960
881.999	21001
882.125	20914
882.252	21051
882.378	20933
882.505	21154
882.631	20842
882.757	20758
882.883	20754
883.01	20712
883.136	20693
883.262	20625
883.388	20526
883.514	20705
883.64	20819
883.766	20648
883.892	20495
884.018	20503
884.143	20609
884.269	20743
884.395	20495
884.52	20343
884.646	20484
884.772	20366
884.897	20278
885.023	20457
885.148	20568
885.274	20495
885.399	20526
885.524	20271
885.65	20381
885.775	20396
885.9	20301
886.025	20446
886.15	20480
886.275	20248
886.4	20431
886.525	20389
886.65	20229
886.775	20343
886.9	20484
887.025	20541
887.149	20393
887.274	20214
887.399	20126
887.523	20206
887.648	20103
887.773	20054
887.897	20172
888.021	20202
888.146	20092
888.27	20180
888.395	20336
888.519	20240
888.643	20195
888.767	20252
888.891	20069
889.015	20005
889.139	20081
889.263	19868
889.387	20035
889.511	20145
889.635	20008
889.759	19906
889.883	19974
890.006	20016
890.13	20134
890.254	19940
890.377	19849
890.501	19685
890.624	19723
890.748	19871
890.871	19670
890.995	19537
891.118	19483
891.241	19521
891.364	19586
891.488	19674
891.611	19556
891.734	19613
891.857	19624
891.98	19597
892.103	19559
892.226	19620
892.349	19483
892.471	19377
892.594	19571
892.717	19502
892.839	19464
892.962	19495
893.085	19453
893.207	19556
893.33	19346
893.452	19422
893.575	19529
893.697	19419
893.819	19556
893.941	19658
894.064	19639
894.186	19540
894.308	19362
894.43	19510
894.552	19582
894.674	19525
894.796	19384
894.918	19468
895.04	19411
895.161	19521
895.283	19537
895.405	19327
895.526	19525
895.648	19472
895.769	19491
895.891	19388
896.012	19518
896.134	19540
896.255	19491
896.376	19434
896.498	19415
896.619	19537
896.74	19506
896.861	19605
896.982	19765
897.103	19940
897.224	19799
897.345	19750
897.466	19635
897.587	19715
897.708	19776
897.828	19704
897.949	19639
898.07	19525
898.19	19601
898.311	19746
898.431	19677
898.552	19765
898.672	19712
898.792	19822
898.913	19776
899.033	19491
899.153	19567
899.273	19495
899.393	19506
899.513	19567
899.633	19487
899.753	19434
899.873	19438
899.993	19468
900.113	19403
900.232	19567
900.352	19316
900.472	19293
900.591	19297
900.711	19301
900.83	19145
900.95	19381
901.069	19365
901.189	19129
901.308	18882
901.427	18757
901.546	18859
901.665	18749
901.784	18829
901.904	18692
902.023	18582
902.141	18494
902.26	18490
902.379	18460
902.498	18380
902.617	18304
902.735	18441
902.854	18426
902.973	18266
903.091	18030
903.21	18049
903.328	18034
903.446	18007
903.565	17927
903.683	17920
903.801	17665
903.919	17813
904.038	17707
904.156	17619
904.274	17779
904.392	17558
904.51	17707
904.627	17646
904.745	17554
904.863	17646
904.981	17501
905.098	17322
905.216	17227
905.334	17273
905.451	17277
905.569	17235
905.686	17307
905.803	17341
905.921	17052
906.038	17117
906.155	17094
906.272	16957
906.389	17014
906.506	16862
906.623	16847
906.74	16816
906.857	16733
906.974	16752
907.091	16927
907.208	17018
907.324	16892
907.441	16763
907.557	16641
907.674	16508
907.79	16519
907.907	16580
908.023	16656
908.139	16599
908.256	16519
908.372	16504
908.488	16519
908.604	16306
908.72	16253
908.836	16246
908.952	16234
909.068	16329
909.184	16344
909.3	16333
909.415	16436
909.531	16287
909.647	16036
909.762	15930
909.878	15953
909.993	16029
910.108	15964
910.224	15991
910.339	15994
910.454	15880
910.57	15789
910.685	15762
910.8	16051
910.915	15979
911.03	15854
911.145	15591
911.259	15641
911.374	15648
911.489	15580
911.604	15458
911.718	15348
911.833	15321
911.947	15298
912.062	15165
912.176	15344
912.291	15355
912.405	15321
912.519	15473
912.633	15500
912.748	15389
912.862	15393
912.976	15192
913.09	15089
913.204	15214
913.318	15203
913.431	15272
913.545	15260
913.659	15256
913.772	15176
913.886	14975
914	14990
914.113	15119
914.226	15051
914.34	15051
914.453	14834
914.566	14941
914.68	14906
914.793	14845
914.906	14712
915.019	14610
915.132	14537
915.245	14617
915.358	14651
915.47	14602
915.583	14575
915.696	14579
915.809	14712
915.921	14815
916.034	14514
916.146	14488
916.259	14514
916.371	14507
916.483	14549
916.595	14427
916.708	14431
916.82	14438
916.932	14374
917.044	14351
917.156	14355
917.268	14286
917.38	14328
917.491	14275
917.603	14320
917.715	14381
917.826	14286
917.938	14100
918.049	14153
918.161	14164
918.272	14328
918.384	14301
918.495	14237
918.606	14035
918.717	14054
918.828	14073
918.939	14069
919.05	13913
919.161	14084
919.272	13799
919.383	13951
919.494	14043
919.604	14259
919.715	14096
919.826	14088
919.936	13970
920.047	14005
920.157	13978
920.267	14153
920.378	14100
920.488	13970
920.598	14092
920.708	14290
920.818	14157
920.928	14164
921.038	14290
921.148	14191
921.258	13925
921.368	13883
921.477	13769
921.587	13788
921.697	13658
921.806	13776
921.916	13578
922.025	13457
922.134	13411
922.244	13213
922.353	13403
922.462	13339
922.571	13168
922.68	13008
922.789	13061
922.898	13129
923.007	13019
923.116	13141
923.224	12993
923.333	13034
923.442	12924
923.55	12878
923.659	12859
923.767	12935
923.876	12787
923.984	12901
924.092	12715
924.201	12779
924.309	12825
924.417	12840
924.525	12760
924.633	12757
924.741	13639
924.849	12570
924.956	12608
925.064	12627
925.172	12445
925.279	12486
925.387	12566
925.494	12559
925.602	12521
925.709	12582
925.816	12445
925.924	12426
926.031	12547
926.138	12414
926.245	12544
926.352	12277
926.459	12483
926.566	12509
926.673	12422
926.779	12220
926.886	12159
926.993	12235
927.099	12106
927.206	12049
927.312	12019
927.419	12136
927.525	12133
927.631	12019
927.737	11946
927.843	11946
927.95	11874
928.056	11931
928.162	11927
928.267	12030
928.373	12627
928.479	11965
928.585	11756
928.69	11939
928.796	11885
928.901	11786
929.007	11627
929.112	11790
929.218	11798
929.323	11710
929.428	11646
929.533	11813
929.638	11668
929.743	11642
929.848	11608
929.953	11573
930.058	11497
930.163	11372
930.267	11318
930.372	11444
930.477	11337
930.581	11585
930.685	11459
930.79	11288
930.894	11311
930.998	11235
931.103	11326
931.207	11109
931.311	10858
931.415	10790
931.519	10668
931.623	10645
