Data from test_V78500241_1992.txt Node
Date: Fri Mar 25 15:23:43 CST 2022
User: usil
Spectrometer: V785-0024
Trigger mode: 0
Integration Time (sec): 4.000000E-1
Scans to average: 1
Nonlinearity correction enabled: false
Boxcar width: 0
Storing dark spectrum: false
XAxis mode: Wavelengths
Number of Pixels in Spectrum: 1024
>>>>>Begin Spectral Data<<<<<
801.071	27797
801.214	27850
801.356	27751
801.499	27500
801.641	27435
801.783	27211
801.926	27466
802.068	27408
802.211	27279
802.353	27340
802.496	27119
802.638	27173
802.78	27161
802.923	27036
803.065	26971
803.208	26994
803.35	27161
803.492	27100
803.635	27249
803.777	27150
803.919	27272
804.061	27515
804.204	27279
804.346	27207
804.488	27165
804.63	27291
804.773	27058
804.915	27176
805.057	27374
805.199	27218
805.341	27192
805.483	27340
805.626	27325
805.768	27211
805.91	27367
806.052	27454
806.194	27245
806.336	27492
806.478	27370
806.62	27408
806.762	27587
806.904	27675
807.046	27880
807.188	27755
807.33	27762
807.472	27926
807.614	27724
807.756	27736
807.898	27534
808.04	27595
808.182	27549
808.324	27587
808.465	27724
808.607	27979
808.749	28097
808.891	28124
809.033	28192
809.174	28128
809.316	28029
809.458	28044
809.6	28044
809.741	28093
809.883	28158
810.025	28276
810.166	28284
810.308	28348
810.45	28352
810.591	28268
810.733	28090
810.875	27968
811.016	27835
811.158	27903
811.299	27934
811.441	28223
811.582	28109
811.724	28006
811.865	28025
812.007	27975
812.148	27987
812.29	28097
812.431	28181
812.573	28356
812.714	28341
812.855	28592
812.997	28622
813.138	28774
813.279	28672
813.421	28519
813.562	28466
813.703	28280
813.845	28211
813.986	28063
814.127	27819
814.268	27694
814.41	27759
814.551	27603
814.692	27816
814.833	27648
814.974	27644
815.115	27781
815.256	27568
815.397	27618
815.539	27530
815.68	27511
815.821	27477
815.962	27572
816.103	27469
816.244	27405
816.385	27252
816.526	27226
816.666	27066
816.807	27005
816.948	27161
817.089	27093
817.23	26921
817.371	27119
817.512	27081
817.653	26925
817.793	26948
817.934	26929
818.075	27020
818.216	26994
818.356	26883
818.497	26811
818.638	26705
818.778	26674
818.919	26788
819.06	26815
819.2	26887
819.341	27169
819.481	27131
819.622	27173
819.762	27313
819.903	27203
820.043	27085
820.184	27013
820.324	27062
820.465	27233
820.605	27108
820.746	27081
820.886	26940
821.026	26990
821.167	27058
821.307	27066
821.447	27138
821.588	27123
821.728	26701
821.868	26636
822.008	26473
822.149	26438
822.289	26434
822.429	26183
822.569	26065
822.709	26153
822.849	26073
822.99	26046
823.13	25986
823.27	26027
823.41	25776
823.55	25826
823.69	25898
823.83	25731
823.97	25803
824.11	25624
824.25	25616
824.389	25647
824.529	25613
824.669	25689
824.809	25670
824.949	25628
825.089	25693
825.228	25712
825.368	25601
825.508	25556
825.648	25540
825.787	25544
825.927	25666
826.067	25590
826.206	25506
826.346	25419
826.485	25460
826.625	25563
826.765	25594
826.904	25544
827.044	25308
827.183	25343
827.323	25042
827.462	25217
827.601	25141
827.741	25202
827.88	25274
828.02	25061
828.159	25194
828.298	25259
828.437	25308
828.577	25118
828.716	25430
828.855	25034
828.994	24817
829.134	24890
829.273	25023
829.412	24802
829.551	24863
829.69	24905
829.829	25008
829.968	24954
830.107	24844
830.246	24916
830.385	24810
830.524	24753
830.663	24749
830.802	24745
830.941	24414
831.08	24483
831.219	24559
831.357	24734
831.496	24753
831.635	24555
831.774	24391
831.913	24277
832.051	24304
832.19	24270
832.329	24365
832.467	24277
832.606	24186
832.744	24213
832.883	24247
833.022	24281
833.16	24087
833.299	24254
833.437	24232
833.576	24281
833.714	24251
833.852	24361
833.991	24224
834.129	24410
834.267	24350
834.406	24429
834.544	24315
834.682	24304
834.821	24174
834.959	24365
835.097	24319
835.235	24346
835.373	24194
835.511	24201
835.65	24129
835.788	24144
835.926	23923
836.064	23859
836.202	24125
836.34	24045
836.478	24220
836.615	24011
836.753	24072
836.891	24213
837.029	24018
837.167	24045
837.305	24038
837.443	23969
837.58	23927
837.718	24106
837.856	23965
837.993	23908
838.131	23916
838.269	23764
838.406	23897
838.544	23657
838.681	23687
838.819	23653
838.956	23436
839.094	23459
839.231	23471
839.369	23634
839.506	23855
839.643	23596
839.781	23334
839.918	23330
840.055	23467
840.193	23288
840.33	23223
840.467	23265
840.604	23395
840.742	23604
840.879	23178
841.016	23216
841.153	23094
841.29	23436
841.427	23311
841.564	23307
841.701	23318
841.838	23227
841.975	23212
842.112	23208
842.249	23121
842.385	22915
842.522	23299
842.659	23094
842.796	23052
842.933	23208
843.069	23075
843.206	23056
843.343	23174
843.479	23090
843.616	23143
843.752	22949
843.889	22908
844.025	22976
844.162	22900
844.298	22900
844.435	22919
844.571	22767
844.708	22892
844.844	23113
844.98	22938
845.117	23067
845.253	22843
845.389	22691
845.525	22729
845.661	22679
845.798	22615
845.934	22641
846.07	22523
846.206	22630
846.342	22725
846.478	22512
846.614	22405
846.75	22306
846.886	22337
847.022	22398
847.158	22432
847.294	22318
847.429	22341
847.565	22394
847.701	22664
847.837	21983
847.972	21880
848.108	22105
848.244	22093
848.379	21975
848.515	21930
848.65	21892
848.786	21941
848.921	22021
849.057	21987
849.192	21991
849.328	21895
849.463	21907
849.598	21838
849.734	21903
849.869	21641
850.004	21808
850.14	21743
850.275	21720
850.41	21538
850.545	21686
850.68	21606
850.815	21835
850.95	21629
851.085	21732
851.22	21778
851.355	21694
851.49	21671
851.625	21625
851.76	21587
851.895	21542
852.03	21549
852.165	21648
852.299	21781
852.434	21713
852.569	21682
852.703	21625
852.838	21736
852.973	21793
853.107	21842
853.242	21625
853.376	21477
853.511	21367
853.645	21549
853.78	21637
853.914	21576
854.048	21466
854.183	21500
854.317	21557
854.451	21679
854.585	21603
854.72	21428
854.854	21603
854.988	21428
855.122	21469
855.256	21294
855.39	21382
855.524	21648
855.658	21534
855.792	21466
855.926	21469
856.06	21530
856.194	21568
856.327	21389
856.461	21450
856.595	21351
856.729	21393
856.862	21580
856.996	21564
857.13	21504
857.263	21629
857.397	21618
857.53	21466
857.664	21549
857.797	21450
857.931	21713
858.064	21488
858.197	21526
858.331	21462
858.464	21313
858.597	21428
858.731	21534
858.864	21488
858.997	21340
859.13	21648
859.263	21523
859.396	21644
859.529	21351
859.662	21416
859.795	21332
859.928	21549
860.061	21648
860.194	21583
860.327	21542
860.46	21553
860.592	21641
860.725	21648
860.858	21557
860.99	21603
861.123	21359
861.256	21359
861.388	21511
861.521	22040
861.653	21428
861.786	21321
861.918	21332
862.05	21367
862.183	21469
862.315	21435
862.447	21405
862.58	21401
862.712	21230
862.844	21218
862.976	21359
863.108	21256
863.24	21641
863.372	21165
863.504	21272
863.636	21249
863.768	21226
863.9	21279
864.032	21131
864.164	21036
864.296	21260
864.428	21313
864.559	21367
864.691	21264
864.823	21222
864.954	21279
865.086	21138
865.217	21150
865.349	20842
865.48	21123
865.612	21161
865.743	21275
865.875	21123
866.006	21043
866.137	21184
866.269	21108
866.4	21043
866.531	20994
866.662	21017
866.793	21058
866.924	20975
867.055	21028
867.186	21043
867.317	20994
867.448	20933
867.579	21009
867.71	20910
867.841	20979
867.972	21039
868.103	21024
868.233	21020
868.364	21116
868.495	20975
868.625	21218
868.756	21393
868.886	21211
869.017	21275
869.147	21370
869.278	21237
869.408	21291
869.539	21237
869.669	21466
869.799	21268
869.929	21386
870.06	21348
870.19	21591
870.32	21462
870.45	21713
870.58	21622
870.71	21869
870.84	21705
870.97	21701
871.1	21724
871.23	21698
871.36	21850
871.489	21720
871.619	21800
871.749	21747
871.879	21800
872.008	21998
872.138	21831
872.267	21759
872.397	21720
872.526	21694
872.656	21663
872.785	21705
872.915	21888
873.044	21956
873.173	21949
873.303	21895
873.432	21922
873.561	22044
873.69	21842
873.819	21876
873.948	21915
874.077	21945
874.206	21869
874.335	21838
874.464	21960
874.593	22093
874.722	22051
874.851	22143
874.979	22181
875.108	22109
875.237	22021
875.365	22059
875.494	22082
875.623	22268
875.751	22124
875.88	22082
876.008	22230
876.136	22344
876.265	22504
876.393	22634
876.521	22497
876.65	22497
876.778	22554
876.906	22436
877.034	22516
877.162	22481
877.29	22474
877.418	22466
877.546	22481
877.674	22519
877.802	22398
877.93	22561
878.058	22367
878.185	22371
878.313	22504
878.441	22447
878.568	22219
878.696	22341
878.824	22481
878.951	22592
879.079	22637
879.206	22675
879.333	22691
879.461	22500
879.588	22599
879.715	22596
879.842	22748
879.97	22459
880.097	22318
880.224	22219
880.351	22223
880.478	22154
880.605	22303
880.732	22154
880.859	22474
880.986	22299
881.112	22284
881.239	22219
881.366	22013
881.493	21998
881.619	21808
881.746	21884
881.872	21880
881.999	21854
882.125	21804
882.252	21823
882.378	21827
882.505	21823
882.631	21793
882.757	21595
882.883	21595
883.01	21576
883.136	21580
883.262	21534
883.388	21370
883.514	21599
883.64	21492
883.766	21504
883.892	21378
884.018	21340
884.143	21473
884.269	21751
884.395	21245
884.52	21150
884.646	21211
884.772	21028
884.897	21036
885.023	21173
885.148	21241
885.274	21272
885.399	21310
885.524	21135
885.65	21150
885.775	21218
885.9	21123
886.025	21329
886.15	21348
886.275	21146
886.4	21043
886.525	21173
886.65	21028
886.775	21112
886.9	21252
887.025	21302
887.149	21195
887.274	20986
887.399	20948
887.523	20861
887.648	20902
887.773	20895
887.897	20963
888.021	21017
888.146	20982
888.27	20986
888.395	21051
888.519	20948
888.643	20975
888.767	21001
888.891	20842
889.015	20769
889.139	20826
889.263	20731
889.387	20929
889.511	20986
889.635	20941
889.759	20651
889.883	20583
890.006	20765
890.13	20880
890.254	20708
890.377	20606
890.501	20381
890.624	20419
890.748	20590
890.871	20355
890.995	20271
891.118	20305
891.241	20332
891.364	20336
891.488	20419
891.611	20362
891.734	20347
891.857	20396
891.98	20332
892.103	20282
892.226	20191
892.349	20225
892.471	20069
892.594	20210
892.717	20206
892.839	20244
892.962	20237
893.085	20290
893.207	20206
893.33	20031
893.452	20180
893.575	20320
893.697	20275
893.819	20317
893.941	20377
894.064	20355
894.186	20073
894.308	20107
894.43	20183
894.552	20419
894.674	20244
894.796	20164
894.918	20168
895.04	20119
895.161	20161
895.283	20199
895.405	20126
895.526	20252
895.648	20195
895.769	20218
895.891	20324
896.012	20210
896.134	20214
896.255	20202
896.376	20096
896.498	20202
896.619	20183
896.74	20157
896.861	20263
896.982	20427
897.103	20716
897.224	20419
897.345	20522
897.466	20454
897.587	20495
897.708	20442
897.828	20476
897.949	20347
898.07	20256
898.19	20313
898.311	20488
898.431	20495
898.552	20324
898.672	20404
898.792	20613
898.913	20438
899.033	20263
899.153	20244
899.273	20100
899.393	20164
899.513	20294
899.633	20214
899.753	20172
899.873	20168
899.993	20275
900.113	20172
900.232	19959
900.352	20096
900.472	19883
900.591	19944
900.711	20073
900.83	19955
900.95	20054
901.069	20157
901.189	19852
901.308	19666
901.427	19537
901.546	19540
901.665	19491
901.784	19499
901.904	19407
902.023	19381
902.141	19129
902.26	18996
902.379	19107
902.498	18943
902.617	18894
902.735	19088
902.854	19107
902.973	18947
903.091	18764
903.21	18738
903.328	18711
903.446	18635
903.565	18494
903.683	18540
903.801	18399
903.919	18486
904.038	18490
904.156	18292
904.274	18460
904.392	18281
904.51	18311
904.627	18197
904.745	18350
904.863	18201
904.981	17977
905.098	17969
905.216	17923
905.334	17977
905.451	18053
905.569	17992
905.686	17908
905.803	17984
905.921	17813
906.038	17851
906.155	17760
906.272	17623
906.389	17687
906.506	17474
906.623	17528
906.74	17356
906.857	17330
906.974	17459
907.091	17630
907.208	17596
907.324	17551
907.441	17326
907.557	17056
907.674	17193
907.79	17200
907.907	17178
908.023	17246
908.139	17223
908.256	17109
908.372	17052
908.488	16995
908.604	16927
908.72	16915
908.836	16911
908.952	16908
909.068	16927
909.184	16980
909.3	16889
909.415	16987
909.531	16965
909.647	16668
909.762	16626
909.878	16584
909.993	16755
910.108	16634
910.224	16535
910.339	16554
910.454	16569
910.57	16413
910.685	16417
910.8	16573
910.915	16554
911.03	16436
911.145	16257
911.259	16074
911.374	16215
911.489	16112
911.604	16086
911.718	16055
911.833	15915
911.947	15838
912.062	15747
912.176	15903
912.291	15873
912.405	15930
912.519	16074
912.633	16093
912.748	15972
912.862	15937
912.976	15732
913.09	15587
913.204	15747
913.318	15759
913.431	15876
913.545	15789
913.659	15899
913.772	15698
913.886	15542
914	15629
914.113	15701
914.226	15667
914.34	15549
914.453	15424
914.566	15576
914.68	15473
914.793	15469
914.906	15233
915.019	15222
915.132	15138
915.245	15222
915.358	15260
915.47	15218
915.583	15085
915.696	15211
915.809	15317
915.921	15211
916.034	15036
916.146	14925
916.259	15020
916.371	15184
916.483	15112
916.595	14994
916.708	15066
916.82	15043
916.932	14979
917.044	15058
917.156	15047
917.268	14788
917.38	14902
917.491	14864
917.603	14868
917.715	14876
917.826	14876
917.938	14769
918.049	14659
918.161	14720
918.272	14895
918.384	14902
918.495	14800
918.606	14640
918.717	14568
918.828	14606
918.939	14587
919.05	14530
919.161	14473
919.272	14423
919.383	14366
919.494	14522
919.604	14743
919.715	14522
919.826	14461
919.936	14560
920.047	14568
920.157	14606
920.267	14587
920.378	14571
920.488	14518
920.598	14705
920.708	14861
920.818	14686
920.928	14670
921.038	14834
921.148	14708
921.258	14488
921.368	14442
921.477	14206
921.587	14252
921.697	14130
921.806	14259
921.916	14134
922.025	13963
922.134	13940
922.244	13868
922.353	13959
922.462	13818
922.571	13799
922.68	13582
922.789	13628
922.898	13586
923.007	13563
923.116	13559
923.224	13552
923.333	13525
923.442	13434
923.55	13464
923.659	13464
923.767	13533
923.876	13392
923.984	13472
924.092	13244
924.201	13270
924.309	13278
924.417	13327
924.525	13225
924.633	13251
924.741	13974
924.849	12954
924.956	13240
925.064	12977
925.172	12901
925.279	12973
925.387	13057
925.494	12905
925.602	13160
925.709	13023
925.816	12875
925.924	12878
926.031	13008
926.138	12859
926.245	13072
926.352	12795
926.459	12882
926.566	13031
926.673	12837
926.779	12715
926.886	12669
926.993	12570
927.099	12608
927.206	12589
927.312	12506
927.419	12597
927.525	12532
927.631	12578
927.737	12486
927.843	12281
927.95	12197
928.056	12376
928.162	12403
928.267	12414
928.373	13053
928.479	12426
928.585	12178
928.69	12391
928.796	12407
928.901	12163
929.007	12148
929.112	12262
929.218	12194
929.323	12178
929.428	12083
929.533	12300
929.638	12022
929.743	12106
929.848	12072
929.953	12102
930.058	11969
930.163	11828
930.267	11786
930.372	11942
930.477	11745
930.581	12022
930.685	11912
930.79	11760
930.894	11745
930.998	11634
931.103	11798
931.207	11360
931.311	11433
931.415	11299
931.519	11086
931.623	11014
