Data from test_V78500241_1657.txt Node
Date: Fri Mar 25 15:21:23 CST 2022
User: usil
Spectrometer: V785-0024
Trigger mode: 0
Integration Time (sec): 4.000000E-1
Scans to average: 1
Nonlinearity correction enabled: false
Boxcar width: 0
Storing dark spectrum: false
XAxis mode: Wavelengths
Number of Pixels in Spectrum: 1024
>>>>>Begin Spectral Data<<<<<
801.071	27945
801.214	27941
801.356	27545
801.499	27610
801.641	27469
801.783	27393
801.926	27690
802.068	27538
802.211	27523
802.353	27332
802.496	27256
802.638	27207
802.78	27142
802.923	27112
803.065	27055
803.208	27013
803.35	27154
803.492	27332
803.635	27420
803.777	27089
803.919	27374
804.061	27656
804.204	27435
804.346	27283
804.488	27268
804.63	27408
804.773	27241
804.915	27264
805.057	27481
805.199	27279
805.341	27469
805.483	27545
805.626	27511
805.768	27340
805.91	27450
806.052	27530
806.194	27412
806.336	27553
806.478	27329
806.62	27515
806.762	27736
806.904	27724
807.046	28044
807.188	27930
807.33	27953
807.472	27911
807.614	27964
807.756	27926
807.898	27785
808.04	27770
808.182	27846
808.324	27964
808.465	27781
808.607	28025
808.749	28223
808.891	28158
809.033	28234
809.174	28257
809.316	28059
809.458	27998
809.6	28154
809.741	28200
809.883	28306
810.025	28447
810.166	28322
810.308	28462
810.45	28249
810.591	28268
810.733	28055
810.875	28158
811.016	27861
811.158	28021
811.299	28207
811.441	28219
811.582	28253
811.724	28090
811.865	28150
812.007	28162
812.148	28074
812.29	28192
812.431	28382
812.573	28516
812.714	28771
812.855	28569
812.997	28736
813.138	28854
813.279	28816
813.421	28721
813.562	28516
813.703	28660
813.845	28360
813.986	28135
814.127	27941
814.268	27675
814.41	27876
814.551	27808
814.692	27819
814.833	27884
814.974	27819
815.115	27903
815.256	27713
815.397	27705
815.539	27842
815.68	27625
815.821	27504
815.962	27591
816.103	27603
816.244	27443
816.385	27401
816.526	27321
816.666	27203
816.807	27176
816.948	27241
817.089	27222
817.23	27135
817.371	27039
817.512	27180
817.653	26940
817.793	27138
817.934	27093
818.075	27096
818.216	27188
818.356	27203
818.497	27009
818.638	26998
818.778	26857
818.919	26956
819.06	26895
819.2	27058
819.341	27135
819.481	27070
819.622	27233
819.762	27351
819.903	27256
820.043	27359
820.184	27252
820.324	27218
820.465	27192
820.605	27218
820.746	27272
820.886	27131
821.026	27165
821.167	27138
821.307	27154
821.447	27051
821.588	27028
821.728	26956
821.868	26807
822.008	26648
822.149	26640
822.289	26663
822.429	26301
822.569	26347
822.709	26191
822.849	26134
822.99	26115
823.13	25989
823.27	25955
823.41	25830
823.55	25906
823.69	25883
823.83	25928
823.97	25902
824.11	25803
824.25	25639
824.389	25799
824.529	25776
824.669	25788
824.809	25909
824.949	25849
825.089	25734
825.228	25772
825.368	25548
825.508	25681
825.648	25567
825.787	25666
825.927	25731
826.067	25586
826.206	25445
826.346	25700
826.485	25693
826.625	25734
826.765	25685
826.904	25575
827.044	25365
827.183	25358
827.323	25354
827.462	25331
827.601	25297
827.741	25152
827.88	25403
828.02	25209
828.159	25308
828.298	25278
828.437	25407
828.577	25266
828.716	25422
828.855	25244
828.994	25076
829.134	25099
829.273	25137
829.412	24909
829.551	25019
829.69	24825
829.829	24943
829.968	25099
830.107	25031
830.246	25004
830.385	25080
830.524	24897
830.663	24947
830.802	24779
830.941	24559
831.08	24601
831.219	24692
831.357	24635
831.496	24844
831.635	24642
831.774	24650
831.913	24597
832.051	24361
832.19	24532
832.329	24566
832.467	24426
832.606	24304
832.744	24273
832.883	24311
833.022	24239
833.16	24384
833.299	24414
833.437	24216
833.576	24266
833.714	24308
833.852	24464
833.991	24391
834.129	24388
834.267	24437
834.406	24311
834.544	24270
834.682	24502
834.821	24285
834.959	24445
835.097	24186
835.235	24456
835.373	24315
835.511	24209
835.65	24079
835.788	24258
835.926	24034
836.064	24007
836.202	23996
836.34	24174
836.478	24342
836.615	24125
836.753	24174
836.891	24262
837.029	24281
837.167	24133
837.305	23988
837.443	24049
837.58	24034
837.718	24110
837.856	24034
837.993	23939
838.131	24106
838.269	23885
838.406	23798
838.544	23863
838.681	23627
838.819	23748
838.956	23478
839.094	23703
839.231	23459
839.369	23623
839.506	23897
839.643	23809
839.781	23543
839.918	23486
840.055	23615
840.193	23337
840.33	23459
840.467	23402
840.604	23482
840.742	23684
840.879	23433
841.016	23345
841.153	23296
841.29	23524
841.427	23379
841.564	23516
841.701	23406
841.838	23296
841.975	23189
842.112	23345
842.249	23311
842.385	23140
842.522	23307
842.659	23246
842.796	23178
842.933	23212
843.069	23143
843.206	23022
843.343	23109
843.479	23220
843.616	23246
843.752	23048
843.889	23037
844.025	22987
844.162	22904
844.298	23071
844.435	22911
844.571	22850
844.708	22938
844.844	23067
844.98	23014
845.117	23060
845.253	22892
845.389	22839
845.525	22733
845.661	22809
845.798	22698
845.934	22774
846.07	22694
846.206	22736
846.342	22801
846.478	22656
846.614	22398
846.75	22432
846.886	22405
847.022	22481
847.158	22402
847.294	22428
847.429	22493
847.565	22352
847.701	22626
847.837	22101
847.972	22162
848.108	22154
848.244	22291
848.379	22040
848.515	21941
848.65	21895
848.786	21918
848.921	22013
849.057	22223
849.192	22044
849.328	22010
849.463	21960
849.598	22063
849.734	21895
849.869	21880
850.004	21823
850.14	21686
850.275	21816
850.41	21812
850.545	21778
850.68	21717
850.815	21797
850.95	21781
851.085	21998
851.22	21907
851.355	21705
851.49	21819
851.625	21808
851.76	21724
851.895	21637
852.03	21713
852.165	21804
852.299	21895
852.434	21876
852.569	21804
852.703	21861
852.838	21720
852.973	21880
853.107	21861
853.242	21816
853.376	21549
853.511	21519
853.645	21545
853.78	21743
853.914	21606
854.048	21618
854.183	21660
854.317	21667
854.451	21880
854.585	21610
854.72	21679
854.854	21770
854.988	21603
855.122	21690
855.256	21564
855.39	21625
855.524	21713
855.658	21717
855.792	21667
855.926	21720
856.06	21751
856.194	21686
856.327	21618
856.461	21530
856.595	21663
856.729	21637
856.862	21800
856.996	21648
857.13	21660
857.263	21774
857.397	21576
857.53	21557
857.664	21698
857.797	21587
857.931	21747
858.064	21660
858.197	21690
858.331	21549
858.464	21561
858.597	21515
858.731	21618
858.864	21526
858.997	21694
859.13	21675
859.263	21614
859.396	21736
859.529	21625
859.662	21485
859.795	21572
859.928	21595
860.061	21823
860.194	21743
860.327	21682
860.46	21625
860.592	21656
860.725	21732
860.858	21739
860.99	21701
861.123	21564
861.256	21576
861.388	21595
861.521	22215
861.653	21473
861.786	21272
861.918	21481
862.05	21450
862.183	21340
862.315	21660
862.447	21694
862.58	21523
862.712	21340
862.844	21279
862.976	21367
863.108	21473
863.24	21876
863.372	21359
863.504	21450
863.636	21325
863.768	21389
863.9	21359
864.032	21264
864.164	21336
864.296	21363
864.428	21378
864.559	21317
864.691	21344
864.823	21367
864.954	21245
865.086	21302
865.217	21211
865.349	21222
865.48	21138
865.612	21317
865.743	21313
865.875	21180
866.006	21230
866.137	21142
866.269	21287
866.4	21226
866.531	21195
866.662	21085
866.793	21131
866.924	21188
867.055	21104
867.186	21157
867.317	21017
867.448	21077
867.579	21138
867.71	21108
867.841	21058
867.972	21135
868.103	21180
868.233	21077
868.364	21108
868.495	21325
868.625	21431
868.756	21431
868.886	21256
869.017	21431
869.147	21458
869.278	21466
869.408	21389
869.539	21431
869.669	21424
869.799	21424
869.929	21405
870.06	21534
870.19	21511
870.32	21568
870.45	21686
870.58	21690
870.71	21846
870.84	21835
870.97	21705
871.1	21907
871.23	22036
871.36	21865
871.489	21884
871.619	21857
871.749	21930
871.879	22105
872.008	22040
872.138	22093
872.267	21842
872.397	21747
872.526	21812
872.656	21873
872.785	21812
872.915	22032
873.044	22002
873.173	21987
873.303	21991
873.432	22040
873.561	22131
873.69	22063
873.819	22021
873.948	22280
874.077	22074
874.206	22006
874.335	21964
874.464	22215
874.593	22242
874.722	22230
874.851	22188
874.979	22253
875.108	22284
875.237	22082
875.365	22116
875.494	22276
875.623	22246
875.751	22124
875.88	22249
876.008	22341
876.136	22367
876.265	22630
876.393	22687
876.521	22683
876.65	22805
876.778	22527
876.906	22634
877.034	22622
877.162	22519
877.29	22584
877.418	22649
877.546	22618
877.674	22508
877.802	22577
877.93	22584
878.058	22481
878.185	22500
878.313	22485
878.441	22462
878.568	22447
878.696	22504
878.824	22557
878.951	22744
879.079	22649
879.206	22934
879.333	22675
879.461	22455
879.588	22752
879.715	22801
879.842	22972
879.97	22592
880.097	22382
880.224	22436
880.351	22573
880.478	22436
880.605	22325
880.732	22443
880.859	22504
880.986	22291
881.112	22451
881.239	22295
881.366	22162
881.493	22002
881.619	21991
881.746	22158
881.872	21941
881.999	21968
882.125	21880
882.252	21991
882.378	21956
882.505	22070
882.631	21926
882.757	21679
882.883	21690
883.01	21694
883.136	21599
883.262	21481
883.388	21515
883.514	21553
883.64	21648
883.766	21576
883.892	21481
884.018	21530
884.143	21572
884.269	21561
884.395	21363
884.52	21306
884.646	21405
884.772	21408
884.897	21237
885.023	21252
885.148	21450
885.274	21397
885.399	21401
885.524	21325
885.65	21279
885.775	21386
885.9	21199
886.025	21412
886.15	21351
886.275	21207
886.4	21074
886.525	21241
886.65	21199
886.775	21165
886.9	21386
887.025	21473
887.149	21142
887.274	21127
887.399	21085
887.523	21096
887.648	21005
887.773	21085
887.897	21173
888.021	21108
888.146	21024
888.27	21081
888.395	21081
888.519	21036
888.643	21104
888.767	20982
888.891	21055
889.015	20861
889.139	20887
889.263	20792
889.387	20925
889.511	20990
889.635	20929
889.759	20796
889.883	20746
890.006	20864
890.13	20967
890.254	20712
890.377	20826
890.501	20632
890.624	20587
890.748	20560
890.871	20522
890.995	20377
891.118	20469
891.241	20332
891.364	20366
891.488	20427
891.611	20423
891.734	20381
891.857	20400
891.98	20438
892.103	20476
892.226	20431
892.349	20267
892.471	20142
892.594	20332
892.717	20423
892.839	20434
892.962	20339
893.085	20381
893.207	20324
893.33	20191
893.452	20115
893.575	20396
893.697	20256
893.819	20454
893.941	20545
894.064	20404
894.186	20176
894.308	20218
894.43	20366
894.552	20396
894.674	20408
894.796	20153
894.918	20320
895.04	20206
895.161	20427
895.283	20214
895.405	20221
895.526	20313
895.648	20237
895.769	20358
895.891	20423
896.012	20438
896.134	20389
896.255	20286
896.376	20248
896.498	20332
896.619	20419
896.74	20366
896.861	20385
896.982	20651
897.103	20682
897.224	20503
897.345	20495
897.466	20423
897.587	20530
897.708	20621
897.828	20549
897.949	20556
898.07	20317
898.19	20549
898.311	20484
898.431	20469
898.552	20492
898.672	20575
898.792	20609
898.913	20579
899.033	20336
899.153	20412
899.273	20096
899.393	20187
899.513	20298
899.633	20385
899.753	20267
899.873	20183
899.993	20221
900.113	20153
900.232	20195
900.352	20248
900.472	19997
900.591	20065
900.711	20107
900.83	19982
900.95	20134
901.069	20122
901.189	19967
901.308	19784
901.427	19548
901.546	19643
901.665	19719
901.784	19635
901.904	19518
902.023	19282
902.141	19221
902.26	19129
902.379	19206
902.498	19171
902.617	19133
902.735	19148
902.854	19141
902.973	18977
903.091	18749
903.21	18791
903.328	18833
903.446	18650
903.565	18612
903.683	18570
903.801	18483
903.919	18525
904.038	18612
904.156	18292
904.274	18448
904.392	18376
904.51	18289
904.627	18277
904.745	18418
904.863	18395
904.981	18155
905.098	17992
905.216	18125
905.334	18095
905.451	18095
905.569	18034
905.686	18049
905.803	17961
905.921	17798
906.038	17870
906.155	17847
906.272	17657
906.389	17752
906.506	17608
906.623	17642
906.74	17528
906.857	17497
906.974	17482
907.091	17604
907.208	17680
907.324	17520
907.441	17448
907.557	17402
907.674	17212
907.79	17185
907.907	17212
908.023	17303
908.139	17349
908.256	17155
908.372	17003
908.488	17113
908.604	17003
908.72	17022
908.836	16961
908.952	16984
909.068	16957
909.184	17155
909.3	16957
909.415	16972
909.531	17006
909.647	16717
909.762	16729
909.878	16660
909.993	16702
910.108	16668
910.224	16558
910.339	16679
910.454	16466
910.57	16573
910.685	16352
910.8	16740
910.915	16767
911.03	16500
911.145	16375
911.259	16306
911.374	16268
911.489	16192
911.604	16154
911.718	16074
911.833	16059
911.947	15937
912.062	15968
912.176	15983
912.291	16036
912.405	16109
912.519	16200
912.633	16166
912.748	16101
912.862	15968
912.976	15907
913.09	15656
913.204	15743
913.318	15903
913.431	15816
913.545	15892
913.659	15873
913.772	15838
913.886	15671
914	15660
914.113	15682
914.226	15804
914.34	15827
914.453	15523
914.566	15736
914.68	15511
914.793	15370
914.906	15310
915.019	15226
915.132	15214
915.245	15138
915.358	15275
915.47	15237
915.583	15256
915.696	15226
915.809	15405
915.921	15325
916.034	15211
916.146	15112
916.259	15165
916.371	15214
916.483	15184
916.595	15127
916.708	15146
916.82	15009
916.932	15070
917.044	15028
917.156	15036
917.268	14914
917.38	14891
917.491	14868
917.603	14902
917.715	15085
917.826	15013
917.938	14857
918.049	14804
918.161	14826
918.272	15039
918.384	15089
918.495	14876
918.606	14621
918.717	14594
918.828	14629
918.939	14788
919.05	14537
919.161	14587
919.272	14511
919.383	14492
919.494	14655
919.604	14868
919.715	14629
919.826	14598
919.936	14689
920.047	14739
920.157	14670
920.267	14823
920.378	14678
920.488	14640
920.598	14739
920.708	14979
920.818	14781
920.928	14739
921.038	14937
921.148	14864
921.258	14629
921.368	14549
921.477	14366
921.587	14370
921.697	14229
921.806	14465
921.916	14161
922.025	14024
922.134	14031
922.244	13947
922.353	13993
922.462	13974
922.571	13932
922.68	13715
922.789	13761
922.898	13658
923.007	13609
923.116	13601
923.224	13632
923.333	13601
923.442	13563
923.55	13487
923.659	13441
923.767	13571
923.876	13411
923.984	13567
924.092	13434
924.201	13411
924.309	13449
924.417	13407
924.525	13274
924.633	13381
924.741	14301
924.849	13152
924.956	13240
925.064	13152
925.172	12985
925.279	13095
925.387	13084
925.494	13145
925.602	13156
925.709	13080
925.816	12966
925.924	13000
926.031	13122
926.138	12962
926.245	13050
926.352	13015
926.459	13031
926.566	13107
926.673	12932
926.779	12776
926.886	12856
926.993	12669
927.099	12578
927.206	12517
927.312	12608
927.419	12635
927.525	12578
927.631	12738
927.737	12513
927.843	12433
927.95	12433
928.056	12403
928.162	12433
928.267	12479
928.373	13133
928.479	12574
928.585	12296
928.69	12407
928.796	12456
928.901	12258
929.007	12182
929.112	12311
929.218	12266
929.323	12049
929.428	12213
929.533	12292
929.638	12083
929.743	12125
929.848	12175
929.953	12125
930.058	11961
930.163	11889
930.267	11840
930.372	11996
930.477	12388
930.581	12159
930.685	11836
930.79	11832
930.894	11783
930.998	11646
931.103	11843
931.207	11516
931.311	11452
931.415	11372
931.519	11132
931.623	11102
