Data from test_V78500241_786.txt Node
Date: Fri Mar 25 15:15:19 CST 2022
User: usil
Spectrometer: V785-0024
Trigger mode: 0
Integration Time (sec): 4.000000E-1
Scans to average: 1
Nonlinearity correction enabled: false
Boxcar width: 0
Storing dark spectrum: false
XAxis mode: Wavelengths
Number of Pixels in Spectrum: 1024
>>>>>Begin Spectral Data<<<<<
801.071	28367
801.214	28226
801.356	28120
801.499	27884
801.641	27873
801.783	27873
801.926	27903
802.068	27941
802.211	27759
802.353	27698
802.496	27686
802.638	27587
802.78	27443
802.923	27420
803.065	27507
803.208	27447
803.35	27519
803.492	27564
803.635	27511
803.777	27595
803.919	27682
804.061	28070
804.204	27732
804.346	27679
804.488	27629
804.63	27698
804.773	27656
804.915	27720
805.057	27762
805.199	27778
805.341	27842
805.483	27770
805.626	27800
805.768	27709
805.91	27926
806.052	27949
806.194	27846
806.336	28051
806.478	27880
806.62	27865
806.762	28143
806.904	28112
807.046	28322
807.188	28382
807.33	28306
807.472	28329
807.614	28226
807.756	28291
807.898	28295
808.04	28131
808.182	28185
808.324	28177
808.465	28158
808.607	28265
808.749	28443
808.891	28577
809.033	28729
809.174	28432
809.316	28573
809.458	28653
809.6	28634
809.741	28774
809.883	28542
810.025	28854
810.166	28809
810.308	28911
810.45	28809
810.591	28915
810.733	28683
810.875	28527
811.016	28618
811.158	28485
811.299	28535
811.441	28691
811.582	28706
811.724	28554
811.865	28550
812.007	28683
812.148	28500
812.29	28577
812.431	28744
812.573	29041
812.714	29022
812.855	29075
812.997	29178
813.138	29436
813.279	29349
813.421	29235
813.562	29105
813.703	28904
813.845	28904
813.986	28500
814.127	28257
814.268	28295
814.41	28238
814.551	28367
814.692	28352
814.833	28226
814.974	28261
815.115	28291
815.256	28226
815.397	28169
815.539	28188
815.68	28226
815.821	28097
815.962	28044
816.103	28192
816.244	27998
816.385	27892
816.526	27812
816.666	27759
816.807	27572
816.948	27705
817.089	27728
817.23	27591
817.371	27576
817.512	27583
817.653	27587
817.793	27454
817.934	27599
818.075	27416
818.216	27622
818.356	27530
818.497	27515
818.638	27359
818.778	27504
818.919	27359
819.06	27355
819.2	27504
819.341	27648
819.481	27622
819.622	27751
819.762	27816
819.903	27918
820.043	27850
820.184	27720
820.324	27682
820.465	27698
820.605	27701
820.746	27580
820.886	27652
821.026	27709
821.167	27622
821.307	27781
821.447	27610
821.588	27500
821.728	27443
821.868	27203
822.008	27161
822.149	27005
822.289	26990
822.429	26765
822.569	26712
822.709	26746
822.849	26674
822.99	26621
823.13	26469
823.27	26511
823.41	26442
823.55	26240
823.69	26358
823.83	26453
823.97	26377
824.11	26187
824.25	26366
824.389	26088
824.529	26358
824.669	26324
824.809	26286
824.949	26240
825.089	26275
825.228	26313
825.368	26202
825.508	26153
825.648	26092
825.787	26256
825.927	26267
826.067	26145
826.206	26263
826.346	26107
826.485	26100
826.625	26024
826.765	26206
826.904	26157
827.044	25913
827.183	25875
827.323	25898
827.462	25963
827.601	25921
827.741	25883
827.88	25909
828.02	25674
828.159	25807
828.298	25761
828.437	25909
828.577	25727
828.716	25944
828.855	25666
828.994	25472
829.134	25537
829.273	25540
829.412	25495
829.551	25346
829.69	25613
829.829	25358
829.968	25635
830.107	25601
830.246	25575
830.385	25457
830.524	25346
830.663	25346
830.802	25202
830.941	25175
831.08	25259
831.219	25308
831.357	25145
831.496	25468
831.635	25206
831.774	25008
831.913	24996
832.051	24909
832.19	24924
832.329	25000
832.467	24882
832.606	24776
832.744	24806
832.883	24768
833.022	24810
833.16	24863
833.299	24825
833.437	24715
833.576	24768
833.714	25000
833.852	24943
833.991	24886
834.129	24882
834.267	25019
834.406	24897
834.544	24890
834.682	24894
834.821	24833
834.959	24996
835.097	24738
835.235	24897
835.373	24791
835.511	24867
835.65	24722
835.788	24677
835.926	24593
836.064	24521
836.202	24475
836.34	24639
836.478	24707
836.615	24551
836.753	24715
836.891	24920
837.029	24661
837.167	24585
837.305	24635
837.443	24505
837.58	24578
837.718	24509
837.856	24544
837.993	24395
838.131	24422
838.269	24338
838.406	24388
838.544	24353
838.681	24174
838.819	24121
838.956	24018
839.094	24015
839.231	24110
839.369	24220
839.506	24357
839.643	24277
839.781	23908
839.918	23874
840.055	23893
840.193	23889
840.33	23950
840.467	23882
840.604	23939
840.742	24095
840.879	23783
841.016	23874
841.153	23851
841.29	24030
841.427	23874
841.564	23885
841.701	23935
841.838	23923
841.975	23748
842.112	23840
842.249	23634
842.385	23547
842.522	23836
842.659	23760
842.796	23505
842.933	23653
843.069	23490
843.206	23551
843.343	23798
843.479	23649
843.616	23509
843.752	23429
843.889	23372
844.025	23543
844.162	23326
844.298	23497
844.435	23414
844.571	23372
844.708	23467
844.844	23558
844.98	23490
845.117	23528
845.253	23307
845.389	23296
845.525	23220
845.661	23204
845.798	23029
845.934	23208
846.07	23079
846.206	23121
846.342	23231
846.478	23102
846.614	22961
846.75	22854
846.886	22820
847.022	22873
847.158	22816
847.294	22904
847.429	22900
847.565	22752
847.701	23094
847.837	22603
847.972	22478
848.108	22679
848.244	22797
848.379	22485
848.515	22447
848.65	22348
848.786	22538
848.921	22447
849.057	22622
849.192	22664
849.328	22447
849.463	22405
849.598	22424
849.734	22402
849.869	22253
850.004	22158
850.14	22280
850.275	22158
850.41	22101
850.545	22128
850.68	22192
850.815	22223
850.95	22150
851.085	22360
851.22	22325
851.355	22154
851.49	22181
851.625	22246
851.76	22253
851.895	21998
852.03	22139
852.165	22219
852.299	22322
852.434	22295
852.569	22322
852.703	22223
852.838	22303
852.973	22386
853.107	22257
853.242	22131
853.376	22036
853.511	21934
853.645	22017
853.78	22181
853.914	22059
854.048	22082
854.183	22048
854.317	22025
854.451	22295
854.585	21926
854.72	22147
854.854	22032
854.988	21937
855.122	22006
855.256	21857
855.39	21876
855.524	22067
855.658	22040
855.792	22112
855.926	22128
856.06	22097
856.194	22074
856.327	21949
856.461	22040
856.595	21892
856.729	22032
856.862	22181
856.996	22036
857.13	22207
857.263	22036
857.397	22143
857.53	22112
857.664	22048
857.797	22128
857.931	22242
858.064	21964
858.197	22268
858.331	21968
858.464	21937
858.597	21964
858.731	22105
858.864	22006
858.997	21922
859.13	22059
859.263	21972
859.396	22135
859.529	22055
859.662	21979
859.795	22097
859.928	21987
860.061	22211
860.194	22261
860.327	22105
860.46	22055
860.592	22162
860.725	22188
860.858	22200
860.99	22055
861.123	22044
861.256	22082
861.388	22124
861.521	22771
861.653	21892
861.786	21800
861.918	21915
862.05	21983
862.183	21880
862.315	21953
862.447	22002
862.58	22040
862.712	21846
862.844	21663
862.976	21911
863.108	21766
863.24	22223
863.372	21679
863.504	21660
863.636	21797
863.768	21698
863.9	21701
864.032	21641
864.164	21637
864.296	21720
864.428	21831
864.559	21819
864.691	21808
864.823	21682
864.954	21656
865.086	21724
865.217	21762
865.349	21587
865.48	21637
865.612	21682
865.743	21660
865.875	21781
866.006	21526
866.137	21447
866.269	21538
866.4	21564
866.531	21545
866.662	21530
866.793	21523
866.924	21428
867.055	21576
867.186	21564
867.317	21462
867.448	21321
867.579	21511
867.71	21500
867.841	21431
867.972	21477
868.103	21443
868.233	21622
868.364	21553
868.495	21675
868.625	21717
868.756	21873
868.886	21762
869.017	21728
869.147	21831
869.278	21945
869.408	21819
869.539	21804
869.669	21808
869.799	21800
869.929	21854
870.06	21835
870.19	22040
870.32	22010
870.45	22109
870.58	22177
870.71	22257
870.84	22261
870.97	22173
871.1	22158
871.23	22428
871.36	22432
871.489	22200
871.619	22325
871.749	22360
871.879	22538
872.008	22584
872.138	22341
872.267	22341
872.397	22238
872.526	22177
872.656	22207
872.785	22105
872.915	22386
873.044	22447
873.173	22512
873.303	22379
873.432	22379
873.561	22379
873.69	22379
873.819	22318
873.948	22538
874.077	22306
874.206	22394
874.335	22432
874.464	22561
874.593	22603
874.722	22653
874.851	22721
874.979	22771
875.108	22649
875.237	22535
875.365	22622
875.494	22500
875.623	22668
875.751	22607
875.88	22603
876.008	22748
876.136	22752
876.265	22991
876.393	23105
876.521	23003
876.65	23178
876.778	22949
876.906	22938
877.034	22824
877.162	22972
877.29	22866
877.418	22965
877.546	23048
877.674	22980
877.802	22942
877.93	22877
878.058	22885
878.185	22919
878.313	22763
878.441	22991
878.568	22790
878.696	22755
878.824	22999
878.951	23052
879.079	23006
879.206	23223
879.333	22942
879.461	23022
879.588	23132
879.715	23128
879.842	23155
879.97	23010
880.097	22767
880.224	22755
880.351	22896
880.478	22831
880.605	22694
880.732	22694
880.859	22987
880.986	22744
881.112	22748
881.239	22706
881.366	22557
881.493	22356
881.619	22348
881.746	22295
881.872	22428
881.999	22333
882.125	22249
882.252	22310
882.378	22329
882.505	22386
882.631	22261
882.757	22048
882.883	21964
883.01	22128
883.136	21926
883.262	21994
883.388	21842
883.514	22002
883.64	21972
883.766	21972
883.892	21797
884.018	21827
884.143	21850
884.269	21934
884.395	21774
884.52	21637
884.646	21667
884.772	21542
884.897	21408
885.023	21701
885.148	21751
885.274	21751
885.399	21797
885.524	21595
885.65	21564
885.775	21637
885.9	21587
886.025	21778
886.15	21686
886.275	21660
886.4	21572
886.525	21549
886.65	21629
886.775	21542
886.9	21705
887.025	21705
887.149	21595
887.274	21401
887.399	21374
887.523	21431
887.648	21245
887.773	21321
887.897	21412
888.021	21447
888.146	21370
888.27	21545
888.395	21488
888.519	21435
888.643	21408
888.767	21473
888.891	21367
889.015	21226
889.139	21336
889.263	21218
889.387	21211
889.511	21412
889.635	21332
889.759	21203
889.883	21230
890.006	21389
890.13	21272
890.254	21127
890.377	21119
890.501	20982
890.624	20933
890.748	21066
890.871	20929
890.995	20864
891.118	20785
891.241	20857
891.364	20845
891.488	20986
891.611	20899
891.734	20727
891.857	20838
891.98	20743
892.103	20834
892.226	20678
892.349	20769
892.471	20720
892.594	20758
892.717	20857
892.839	20811
892.962	20674
893.085	20781
893.207	20583
893.33	20473
893.452	20579
893.575	20762
893.697	20682
893.819	20849
893.941	20853
894.064	20849
894.186	20629
894.308	20693
894.43	20773
894.552	20823
894.674	20746
894.796	20697
894.918	20629
895.04	20750
895.161	20762
895.283	20754
895.405	20640
895.526	20659
895.648	20655
895.769	20735
895.891	20743
896.012	20716
896.134	20800
896.255	20682
896.376	20663
896.498	20727
896.619	20606
896.74	20705
896.861	20796
896.982	20902
897.103	20971
897.224	21028
897.345	20899
897.466	20754
897.587	21013
897.708	21055
897.828	20845
897.949	20853
898.07	20651
898.19	20750
898.311	21013
898.431	20705
898.552	20910
898.672	21009
898.792	21017
898.913	20948
899.033	20689
899.153	20667
899.273	20644
899.393	20617
899.513	20644
899.633	20670
899.753	20648
899.873	20659
899.993	20613
900.113	20629
900.232	20625
900.352	20613
900.472	20469
900.591	20434
900.711	20484
900.83	20404
900.95	20507
901.069	20518
901.189	20370
901.308	20122
901.427	20012
901.546	20024
901.665	20149
901.784	19986
901.904	19826
902.023	19731
902.141	19544
902.26	19445
902.379	19628
902.498	19266
902.617	19525
902.735	19457
902.854	19480
902.973	19468
903.091	19187
903.21	19110
903.328	19213
903.446	19122
903.565	18913
903.683	18890
903.801	18909
903.919	18806
904.038	18913
904.156	18646
904.274	18711
904.392	18722
904.51	18639
904.627	18715
904.745	18783
904.863	18661
904.981	18509
905.098	18410
905.216	18479
905.334	18388
905.451	18346
905.569	18353
905.686	18407
905.803	18407
905.921	18251
906.038	18403
906.155	18190
906.272	18159
906.389	18110
906.506	17859
906.623	17969
906.74	17821
906.857	17897
906.974	17870
907.091	17942
907.208	17999
907.324	17927
907.441	17942
907.557	17615
907.674	17676
907.79	17691
907.907	17573
908.023	17657
908.139	17600
908.256	17505
908.372	17387
908.488	17467
908.604	17391
908.72	17246
908.836	17311
908.952	17208
909.068	17425
909.184	17478
909.3	17250
909.415	17368
909.531	17349
909.647	17113
909.762	17151
909.878	17045
909.993	17018
910.108	17075
910.224	16949
910.339	17025
910.454	16904
910.57	16980
910.685	16786
910.8	17045
910.915	16980
911.03	16771
911.145	16664
911.259	16611
911.374	16637
911.489	16523
911.604	16443
911.718	16371
911.833	16402
911.947	16234
912.062	16147
912.176	16265
912.291	16341
912.405	16238
912.519	16455
912.633	16519
912.748	16402
912.862	16375
912.976	16169
913.09	16048
913.204	16230
913.318	16124
913.431	16333
913.545	16219
913.659	16166
913.772	16105
913.886	16017
914	15949
914.113	16086
914.226	16124
914.34	16048
914.453	15857
914.566	15968
914.68	15857
914.793	15766
914.906	15717
915.019	15504
915.132	15485
915.245	15614
915.358	15526
915.47	15595
915.583	15523
915.696	15526
915.809	15694
915.921	15690
916.034	15401
916.146	15557
916.259	15477
916.371	15526
916.483	15424
916.595	15389
916.708	15450
916.82	15481
916.932	15367
917.044	15355
917.156	15272
917.268	15199
917.38	15161
917.491	15192
917.603	15310
917.715	15264
917.826	15298
917.938	15199
918.049	14994
918.161	15085
918.272	15214
918.384	15195
918.495	15085
918.606	14998
918.717	14963
918.828	14979
918.939	14918
919.05	14910
919.161	14883
919.272	14811
919.383	14815
919.494	14952
919.604	15123
919.715	14918
919.826	14929
919.936	14971
920.047	15028
920.157	14925
920.267	15009
920.378	14902
920.488	14918
920.598	15055
920.708	15184
920.818	15100
920.928	15055
921.038	15116
921.148	15157
921.258	14861
921.368	14682
921.477	14716
921.587	14693
921.697	14503
921.806	14583
921.916	14442
922.025	14351
922.134	14366
922.244	14187
922.353	14240
922.462	14172
922.571	14084
922.68	13978
922.789	13913
922.898	13906
923.007	13818
923.116	13864
923.224	13830
923.333	13928
923.442	13841
923.55	13632
923.659	13708
923.767	13860
923.876	13674
923.984	13811
924.092	13567
924.201	13666
924.309	13613
924.417	13662
924.525	13521
924.633	13594
924.741	14267
924.849	13468
924.956	13578
925.064	13419
925.172	13232
925.279	13263
925.387	13324
925.494	13240
925.602	13304
925.709	13362
925.816	13137
925.924	13263
926.031	13343
926.138	13202
926.245	13282
926.352	13133
926.459	13308
926.566	13278
926.673	13179
926.779	13084
926.886	13053
926.993	12973
927.099	12962
927.206	12802
927.312	12814
927.419	12795
927.525	12821
927.631	12878
927.737	12700
927.843	12650
927.95	12593
928.056	12635
928.162	12798
928.267	12791
928.373	13263
928.479	12768
928.585	12460
928.69	12601
928.796	12635
928.901	12559
929.007	12460
929.112	12563
929.218	12467
929.323	12399
929.428	12353
929.533	12532
929.638	12384
929.743	12418
929.848	12437
929.953	12357
930.058	12289
930.163	11999
930.267	12148
930.372	12285
930.477	12087
930.581	12334
930.685	12175
930.79	11961
930.894	12026
930.998	11969
931.103	11992
931.207	11672
931.311	11653
931.415	11608
931.519	11303
931.623	11303
