Data from test_V78500241_2184.txt Node
Date: Fri Mar 25 15:25:03 CST 2022
User: usil
Spectrometer: V785-0024
Trigger mode: 0
Integration Time (sec): 4.000000E-1
Scans to average: 1
Nonlinearity correction enabled: false
Boxcar width: 0
Storing dark spectrum: false
XAxis mode: Wavelengths
Number of Pixels in Spectrum: 1024
>>>>>Begin Spectral Data<<<<<
801.071	27599
801.214	27576
801.356	27416
801.499	27336
801.641	27188
801.783	27272
801.926	27268
802.068	27313
802.211	27207
802.353	27055
802.496	26880
802.638	26933
802.78	26891
802.923	26788
803.065	26845
803.208	26990
803.35	26921
803.492	27081
803.635	27070
803.777	26967
803.919	27017
804.061	27268
804.204	27032
804.346	27108
804.488	26963
804.63	27028
804.773	27112
804.915	27100
805.057	27062
805.199	27028
805.341	27222
805.483	27230
805.626	27161
805.768	27150
805.91	27188
806.052	27233
806.194	27116
806.336	27329
806.478	27142
806.62	27157
806.762	27408
806.904	27568
807.046	27580
807.188	27587
807.33	27557
807.472	27644
807.614	27587
807.756	27431
807.898	27492
808.04	27382
808.182	27488
808.324	27599
808.465	27591
808.607	27941
808.749	27964
808.891	27873
809.033	27937
809.174	27907
809.316	27785
809.458	27770
809.6	27869
809.741	27888
809.883	27994
810.025	28097
810.166	28109
810.308	28112
810.45	28067
810.591	27949
810.733	27884
810.875	27804
811.016	27656
811.158	27732
811.299	27797
811.441	27998
811.582	27968
811.724	27774
811.865	27682
812.007	27816
812.148	27781
812.29	27884
812.431	28021
812.573	28253
812.714	28367
812.855	28401
812.997	28523
813.138	28615
813.279	28554
813.421	28386
813.562	28261
813.703	28158
813.845	28086
813.986	27701
814.127	27663
814.268	27789
814.41	27500
814.551	27469
814.692	27397
814.833	27469
814.974	27625
815.115	27561
815.256	27622
815.397	27408
815.539	27504
815.68	27279
815.821	27310
815.962	27306
816.103	27260
816.244	27051
816.385	27131
816.526	26933
816.666	26921
816.807	26663
816.948	26853
817.089	26902
817.23	26857
817.371	26765
817.512	26746
817.653	26686
817.793	26792
817.934	26804
818.075	26648
818.216	26830
818.356	26758
818.497	26686
818.638	26499
818.778	26560
818.919	26556
819.06	26568
819.2	26511
819.341	26724
819.481	26640
819.622	26880
819.762	27157
819.903	26967
820.043	26963
820.184	26944
820.324	26994
820.465	26891
820.605	26876
820.746	26834
820.886	26800
821.026	26933
821.167	26975
821.307	26914
821.447	26902
821.588	26689
821.728	26693
821.868	26400
822.008	26294
822.149	26218
822.289	26191
822.429	25909
822.569	26031
822.709	25932
822.849	25746
822.99	25750
823.13	25719
823.27	25731
823.41	25632
823.55	25529
823.69	25571
823.83	25460
823.97	25472
824.11	25403
824.25	25362
824.389	25354
824.529	25453
824.669	25251
824.809	25483
824.949	25483
825.089	25483
825.228	25400
825.368	25069
825.508	25274
825.648	25362
825.787	25449
825.927	25331
826.067	25160
826.206	25148
826.346	25346
826.485	25358
826.625	25251
826.765	25403
826.904	25114
827.044	25080
827.183	25042
827.323	24764
827.462	25023
827.601	25110
827.741	24920
827.88	25050
828.02	24977
828.159	24939
828.298	24947
828.437	25072
828.577	24871
828.716	25015
828.855	24768
828.994	24627
829.134	24821
829.273	24631
829.412	24582
829.551	24604
829.69	24711
829.829	24639
829.968	24764
830.107	24730
830.246	24703
830.385	24593
830.524	24620
830.663	24483
830.802	24270
830.941	24277
831.08	24323
831.219	24311
831.357	24262
831.496	24547
831.635	24353
831.774	24144
831.913	24155
832.051	24022
832.19	24011
832.329	24034
832.467	23950
832.606	23828
832.744	23969
832.883	23866
833.022	23939
833.16	23931
833.299	23961
833.437	23935
833.576	23988
833.714	23950
833.852	24045
833.991	23958
834.129	24201
834.267	23923
834.406	23988
834.544	24083
834.682	24064
834.821	24034
834.959	24205
835.097	23901
835.235	24041
835.373	24041
835.511	23855
835.65	23779
835.788	23786
835.926	23608
836.064	23687
836.202	23646
836.34	23866
836.478	23783
836.615	23771
836.753	23771
836.891	23874
837.029	23798
837.167	23771
837.305	23752
837.443	23752
837.58	23630
837.718	23653
837.856	23665
837.993	23573
838.131	23600
838.269	23531
838.406	23566
838.544	23421
838.681	23433
838.819	23322
838.956	23090
839.094	23345
839.231	23105
839.369	23284
839.506	23573
839.643	23501
839.781	23132
839.918	23155
840.055	23185
840.193	23083
840.33	23044
840.467	23025
840.604	23090
840.742	23235
840.879	22938
841.016	22980
841.153	22961
841.29	23102
841.427	23029
841.564	23109
841.701	23075
841.838	22965
841.975	23041
842.112	23014
842.249	22816
842.385	22786
842.522	23044
842.659	22877
842.796	22698
842.933	22691
843.069	22816
843.206	22847
843.343	22725
843.479	22740
843.616	22824
843.752	22596
843.889	22573
844.025	22767
844.162	22649
844.298	22675
844.435	22706
844.571	22577
844.708	22535
844.844	22733
844.98	22748
845.117	22706
845.253	22493
845.389	22504
845.525	22413
845.661	22424
845.798	22261
845.934	22333
846.07	22329
846.206	22318
846.342	22478
846.478	22268
846.614	22185
846.75	22029
846.886	22078
847.022	22128
847.158	22063
847.294	22078
847.429	22120
847.565	22013
847.701	22265
847.837	22002
847.972	21789
848.108	21838
848.244	21918
848.379	21766
848.515	21614
848.65	21667
848.786	21637
848.921	21644
849.057	21717
849.192	21778
849.328	21728
849.463	21583
849.598	21641
849.734	21576
849.869	21466
850.004	21606
850.14	21458
850.275	21538
850.41	21275
850.545	21408
850.68	21382
850.815	21454
850.95	21302
851.085	21629
851.22	21492
851.355	21466
851.49	21382
851.625	21355
851.76	21439
851.895	21355
852.03	21241
852.165	21473
852.299	21420
852.434	21447
852.569	21492
852.703	21481
852.838	21557
852.973	21523
853.107	21428
853.242	21161
853.376	21336
853.511	21131
853.645	21195
853.78	21340
853.914	21142
854.048	21180
854.183	21329
854.317	21146
854.451	21439
854.585	21157
854.72	21188
854.854	21302
854.988	21192
855.122	21355
855.256	21157
855.39	21367
855.524	21256
855.658	21241
855.792	21256
855.926	21241
856.06	21302
856.194	21332
856.327	21165
856.461	21176
856.595	21123
856.729	21154
856.862	21329
856.996	21256
857.13	21226
857.263	21321
857.397	21325
857.53	21192
857.664	21252
857.797	21252
857.931	21294
858.064	21351
858.197	21332
858.331	21142
858.464	21207
858.597	21161
858.731	21298
858.864	21192
858.997	21165
859.13	21199
859.263	21245
859.396	21264
859.529	21260
859.662	21199
859.795	21214
859.928	21142
860.061	21397
860.194	21393
860.327	21268
860.46	21408
860.592	21344
860.725	21378
860.858	21416
860.99	21188
861.123	21089
861.256	21142
861.388	21230
861.521	22006
861.653	21131
861.786	20960
861.918	20994
862.05	21058
862.183	21119
862.315	21184
862.447	21249
862.58	21138
862.712	20956
862.844	20921
862.976	21112
863.108	21020
863.24	21291
863.372	20941
863.504	20960
863.636	20842
863.768	21017
863.9	20963
864.032	20918
864.164	20826
864.296	20849
864.428	21013
864.559	20948
864.691	20963
864.823	20830
864.954	20845
865.086	20918
865.217	20960
865.349	20754
865.48	20872
865.612	20823
865.743	21005
865.875	20899
866.006	20769
866.137	20857
866.269	20773
866.4	20655
866.531	20762
866.662	20670
866.793	20648
866.924	20712
867.055	20819
867.186	20731
867.317	20686
867.448	20697
867.579	20750
867.71	20629
867.841	20743
867.972	20754
868.103	20823
868.233	20834
868.364	20876
868.495	20819
868.625	20933
868.756	21157
868.886	20910
869.017	20990
869.147	21096
869.278	21081
869.408	21028
869.539	20979
869.669	21036
869.799	21036
869.929	21055
870.06	21066
870.19	21325
870.32	21245
870.45	21302
870.58	21408
870.71	21557
870.84	21378
870.97	21412
871.1	21462
871.23	21564
871.36	21648
871.489	21405
871.619	21572
871.749	21485
871.879	21641
872.008	21698
872.138	21564
872.267	21759
872.397	21523
872.526	21477
872.656	21348
872.785	21439
872.915	21572
873.044	21667
873.173	21671
873.303	21656
873.432	21679
873.561	21728
873.69	21709
873.819	21557
873.948	21766
874.077	21637
874.206	21701
874.335	21701
874.464	21770
874.593	21686
874.722	21873
874.851	21918
874.979	21827
875.108	21861
875.237	21827
875.365	21846
875.494	21869
875.623	21892
875.751	21781
875.88	21895
876.008	21865
876.136	22097
876.265	22284
876.393	22398
876.521	22284
876.65	22257
876.778	22162
876.906	22246
877.034	22139
877.162	22219
877.29	22124
877.418	22158
877.546	22177
877.674	22131
877.802	22131
877.93	22234
878.058	22265
878.185	22002
878.313	22036
878.441	22230
878.568	22093
878.696	22067
878.824	22185
878.951	22325
879.079	22409
879.206	22451
879.333	22379
879.461	22204
879.588	22272
879.715	22421
879.842	22405
879.97	22318
880.097	22101
880.224	22067
880.351	22067
880.478	22051
880.605	21903
880.732	21953
880.859	22169
880.986	22025
881.112	22055
881.239	21808
881.366	21656
881.493	21599
881.619	21682
881.746	21705
881.872	21743
881.999	21397
882.125	21504
882.252	21663
882.378	21557
882.505	21644
882.631	21431
882.757	21272
882.883	21382
883.01	21321
883.136	21241
883.262	21241
883.388	21173
883.514	21260
883.64	21336
883.766	21157
883.892	21036
884.018	21051
884.143	21218
884.269	21211
884.395	20944
884.52	20891
884.646	20906
884.772	20895
884.897	20941
885.023	20845
885.148	21013
885.274	21100
885.399	20963
885.524	21036
885.65	20986
885.775	20861
885.9	20937
886.025	20975
886.15	20952
886.275	20815
886.4	20746
886.525	20891
886.65	20792
886.775	20777
886.9	21070
887.025	21161
887.149	20960
887.274	20632
887.399	20773
887.523	20697
887.648	20769
887.773	20594
887.897	20788
888.021	20625
888.146	20670
888.27	20754
888.395	20815
888.519	20830
888.643	20716
888.767	20701
888.891	20556
889.015	20556
889.139	20568
889.263	20450
889.387	20712
889.511	20788
889.635	20575
889.759	20473
889.883	20511
890.006	20438
890.13	20632
890.254	20389
890.377	20469
890.501	20252
890.624	20168
890.748	20370
890.871	20164
890.995	20142
891.118	20058
891.241	20088
891.364	20149
891.488	20081
891.611	20062
891.734	20096
891.857	20199
891.98	20046
892.103	20130
892.226	20195
892.349	20084
892.471	19913
892.594	20008
892.717	20008
892.839	19917
892.962	19940
893.085	20073
893.207	19955
893.33	19951
893.452	19947
893.575	19974
893.697	19989
893.819	20199
893.941	20199
894.064	19997
894.186	19902
894.308	19879
894.43	20100
894.552	20157
894.674	20001
894.796	19837
894.918	19986
895.04	19909
895.161	20058
895.283	20134
895.405	19974
895.526	20001
895.648	19932
895.769	20035
895.891	19963
896.012	20012
896.134	19997
896.255	20046
896.376	19928
896.498	19890
896.619	20043
896.74	19944
896.861	19963
896.982	20294
897.103	20362
897.224	20244
897.345	20256
897.466	20065
897.587	20305
897.708	20320
897.828	20206
897.949	20111
898.07	20088
898.19	20206
898.311	20233
898.431	20126
898.552	20286
898.672	20328
898.792	20298
898.913	20294
899.033	20153
899.153	19993
899.273	19898
899.393	20005
899.513	19993
899.633	19890
899.753	19921
899.873	19906
899.993	19928
900.113	19894
900.232	19833
900.352	19837
900.472	19708
900.591	19731
900.711	19685
900.83	19594
900.95	19852
901.069	19830
901.189	19658
901.308	19419
901.427	19381
901.546	19335
901.665	19339
901.784	19354
901.904	19168
902.023	19103
902.141	18913
902.26	18806
902.379	18882
902.498	18852
902.617	18779
902.735	18806
902.854	18741
902.973	18798
903.091	18578
903.21	18528
903.328	18570
903.446	18471
903.565	18426
903.683	18334
903.801	18258
903.919	18315
904.038	18224
904.156	18163
904.274	18197
904.392	18121
904.51	18072
904.627	18125
904.745	18171
904.863	18148
904.981	17851
905.098	17703
905.216	17699
905.334	17901
905.451	17752
905.569	17714
905.686	17741
905.803	17722
905.921	17543
906.038	17676
906.155	17455
906.272	17421
906.389	17471
906.506	17288
906.623	17398
906.74	17277
906.857	17159
906.974	17242
907.091	17376
907.208	17353
907.324	17364
907.441	17178
907.557	17098
907.674	16987
907.79	16976
907.907	16976
908.023	17052
908.139	16995
908.256	16965
908.372	16968
908.488	16900
908.604	16816
908.72	16702
908.836	16755
908.952	16771
909.068	16687
909.184	16862
909.3	16694
909.415	16607
909.531	16740
909.647	16428
909.762	16440
909.878	16447
909.993	16459
910.108	16466
910.224	16428
910.339	16413
910.454	16318
910.57	16188
910.685	16188
910.8	16303
910.915	16375
911.03	16272
911.145	15991
911.259	16010
911.374	16040
911.489	15911
911.604	15884
911.718	15759
911.833	15743
911.947	15705
912.062	15625
912.176	15701
912.291	15705
912.405	15743
912.519	15781
912.633	15949
912.748	15819
912.862	15751
912.976	15542
913.09	15492
913.204	15553
913.318	15610
913.431	15629
913.545	15542
913.659	15663
913.772	15488
913.886	15351
914	15393
914.113	15428
914.226	15561
914.34	15431
914.453	15233
914.566	15424
914.68	15310
914.793	15306
914.906	14998
915.019	15020
915.132	14952
915.245	15005
915.358	15085
915.47	14986
915.583	14925
915.696	15043
915.809	15104
915.921	15112
916.034	15013
916.146	14918
916.259	14971
916.371	14982
916.483	14876
916.595	14868
916.708	14872
916.82	14883
916.932	14769
917.044	14731
917.156	14750
917.268	14651
917.38	14648
917.491	14552
917.603	14636
917.715	14651
917.826	14705
917.938	14636
918.049	14476
918.161	14621
918.272	14667
918.384	14762
918.495	14663
918.606	14518
918.717	14286
918.828	14507
918.939	14374
919.05	14343
919.161	14343
919.272	14221
919.383	14240
919.494	14427
919.604	14663
919.715	14431
919.826	14282
919.936	14370
920.047	14488
920.157	14355
920.267	14511
920.378	14415
920.488	14343
920.598	14629
920.708	14651
920.818	14499
920.928	14469
921.038	14648
921.148	14640
921.258	14374
921.368	14138
921.477	14142
921.587	14176
921.697	13947
921.806	14081
921.916	13906
922.025	13875
922.134	13784
922.244	13746
922.353	13704
922.462	13636
922.571	13544
922.68	13343
922.789	13343
922.898	13460
923.007	13327
923.116	13464
923.224	13384
923.333	13301
923.442	13244
923.55	13206
923.659	13274
923.767	13285
923.876	13168
923.984	13301
924.092	13129
924.201	13187
924.309	13129
924.417	13217
924.525	12966
924.633	13076
924.741	13841
924.849	12814
924.956	13057
925.064	12867
925.172	12848
925.279	12757
925.387	12741
925.494	12806
925.602	12913
925.709	12913
925.816	12677
925.924	12779
926.031	12901
926.138	12779
926.245	12730
926.352	12662
926.459	12844
926.566	12768
926.673	12692
926.779	12631
926.886	12669
926.993	12426
927.099	12410
927.206	12372
927.312	12327
927.419	12426
927.525	12410
927.631	12467
927.737	12300
927.843	12266
927.95	12178
928.056	12209
928.162	12353
928.267	12285
928.373	12932
928.479	12334
928.585	12125
928.69	12102
928.796	12178
928.901	12121
929.007	11988
929.112	12148
929.218	11984
929.323	11954
929.428	12015
929.533	12133
929.638	11836
929.743	11866
929.848	11863
929.953	11874
930.058	11756
930.163	11661
930.267	11707
930.372	11771
930.477	11646
930.581	11893
930.685	11642
930.79	11493
930.894	11528
930.998	11566
931.103	11672
931.207	11189
931.311	11212
931.415	11029
931.519	10923
931.623	10877
