Data from test_V78500241_895.txt Node
Date: Fri Mar 25 15:16:05 CST 2022
User: usil
Spectrometer: V785-0024
Trigger mode: 0
Integration Time (sec): 4.000000E-1
Scans to average: 1
Nonlinearity correction enabled: false
Boxcar width: 0
Storing dark spectrum: false
XAxis mode: Wavelengths
Number of Pixels in Spectrum: 1024
>>>>>Begin Spectral Data<<<<<
801.071	28303
801.214	28215
801.356	27911
801.499	27884
801.641	27804
801.783	27785
801.926	27823
802.068	27911
802.211	27622
802.353	27660
802.496	27504
802.638	27500
802.78	27420
802.923	27488
803.065	27485
803.208	27408
803.35	27549
803.492	27606
803.635	27736
803.777	27507
803.919	27827
804.061	27956
804.204	27842
804.346	27625
804.488	27599
804.63	27580
804.773	27606
804.915	27720
805.057	27804
805.199	27564
805.341	27827
805.483	27895
805.626	27770
805.768	27633
805.91	27789
806.052	27804
806.194	27800
806.336	28048
806.478	27682
806.62	27819
806.762	27964
806.904	28158
807.046	28379
807.188	28287
807.33	28257
807.472	28196
807.614	28090
807.756	28242
807.898	28029
808.04	28105
808.182	28082
808.324	28219
808.465	28131
808.607	28299
808.749	28550
808.891	28500
809.033	28634
809.174	28382
809.316	28474
809.458	28443
809.6	28344
809.741	28611
809.883	28653
810.025	28778
810.166	28748
810.308	28850
810.45	28664
810.591	28702
810.733	28538
810.875	28554
811.016	28527
811.158	28417
811.299	28527
811.441	28611
811.582	28653
811.724	28459
811.865	28424
812.007	28394
812.148	28485
812.29	28352
812.431	28588
812.573	28919
812.714	29044
812.855	28972
812.997	28980
813.138	29162
813.279	29258
813.421	29094
813.562	29014
813.703	28885
813.845	28577
813.986	28599
814.127	28322
814.268	28261
814.41	28124
814.551	28131
814.692	28158
814.833	28226
814.974	28093
815.115	28097
815.256	27991
815.397	28169
815.539	28093
815.68	28006
815.821	27968
815.962	27918
816.103	28063
816.244	27934
816.385	27827
816.526	27831
816.666	27603
816.807	27530
816.948	27549
817.089	27629
817.23	27519
817.371	27500
817.512	27675
817.653	27496
817.793	27397
817.934	27534
818.075	27568
818.216	27561
818.356	27408
818.497	27408
818.638	27218
818.778	27188
818.919	27389
819.06	27302
819.2	27462
819.341	27492
819.481	27469
819.622	27572
819.762	27850
819.903	27519
820.043	27743
820.184	27519
820.324	27698
820.465	27720
820.605	27622
820.746	27561
820.886	27496
821.026	27538
821.167	27736
821.307	27496
821.447	27519
821.588	27397
821.728	27374
821.868	27104
822.008	27017
822.149	27070
822.289	26910
822.429	26727
822.569	26602
822.709	26686
822.849	26533
822.99	26507
823.13	26446
823.27	26484
823.41	26324
823.55	26244
823.69	26469
823.83	26313
823.97	26229
824.11	26119
824.25	26077
824.389	26214
824.529	26195
824.669	26168
824.809	26298
824.949	26199
825.089	26263
825.228	26252
825.368	25982
825.508	26046
825.648	26054
825.787	26206
825.927	26180
826.067	26062
826.206	25978
826.346	26103
826.485	25959
826.625	26142
826.765	26016
826.904	25978
827.044	25811
827.183	25674
827.323	25795
827.462	25772
827.601	25696
827.741	25742
827.88	25803
828.02	25525
828.159	25674
828.298	25791
828.437	25795
828.577	25616
828.716	25868
828.855	25616
828.994	25381
829.134	25316
829.273	25499
829.412	25441
829.551	25392
829.69	25491
829.829	25438
829.968	25449
830.107	25468
830.246	25369
830.385	25464
830.524	25304
830.663	25259
830.802	25221
830.941	24966
831.08	25038
831.219	25084
831.357	25145
831.496	25388
831.635	24981
831.774	24871
831.913	24996
832.051	24806
832.19	24856
832.329	24821
832.467	24890
832.606	24734
832.744	24696
832.883	24684
833.022	24688
833.16	24738
833.299	24795
833.437	24783
833.576	24772
833.714	24852
833.852	24810
833.991	24814
834.129	24745
834.267	24779
834.406	24909
834.544	24795
834.682	24776
834.821	24837
834.959	24935
835.097	24783
835.235	24833
835.373	24753
835.511	24848
835.65	24623
835.788	24654
835.926	24551
836.064	24505
836.202	24494
836.34	24559
836.478	24639
836.615	24566
836.753	24654
836.891	24677
837.029	24722
837.167	24608
837.305	24551
837.443	24388
837.58	24403
837.718	24582
837.856	24437
837.993	24388
838.131	24346
838.269	24300
838.406	24327
838.544	24220
838.681	24072
838.819	23973
838.956	23927
839.094	23901
839.231	23999
839.369	24110
839.506	24308
839.643	24213
839.781	23798
839.918	23889
840.055	23866
840.193	23843
840.33	23893
840.467	23824
840.604	23855
840.742	24076
840.879	23756
841.016	23707
841.153	23714
841.29	23920
841.427	23809
841.564	23802
841.701	23908
841.838	23885
841.975	23760
842.112	23619
842.249	23630
842.385	23611
842.522	23840
842.659	23562
842.796	23478
842.933	23611
843.069	23589
843.206	23543
843.343	23611
843.479	23547
843.616	23554
843.752	23376
843.889	23265
844.025	23433
844.162	23414
844.298	23402
844.435	23326
844.571	23318
844.708	23493
844.844	23497
844.98	23391
845.117	23436
845.253	23417
845.389	23223
845.525	23258
845.661	23189
845.798	23006
845.934	23113
846.07	23029
846.206	23197
846.342	23170
846.478	22938
846.614	22820
846.75	22873
846.886	22873
847.022	22866
847.158	22847
847.294	22953
847.429	22858
847.565	22854
847.701	23094
847.837	22637
847.972	22615
848.108	22535
848.244	22557
848.379	22455
848.515	22500
848.65	22462
848.786	22470
848.921	22379
849.057	22459
849.192	22447
849.328	22398
849.463	22455
849.598	22318
849.734	22371
849.869	22333
850.004	22166
850.14	22162
850.275	22196
850.41	22128
850.545	21972
850.68	22086
850.815	22215
850.95	22097
851.085	22402
851.22	22272
851.355	22196
851.49	22181
851.625	22143
851.76	22109
851.895	21964
852.03	22185
852.165	22204
852.299	22147
852.434	22333
852.569	22306
852.703	22192
852.838	22154
852.973	22360
853.107	22185
853.242	22040
853.376	22010
853.511	22006
853.645	21953
853.78	22010
853.914	22044
854.048	21937
854.183	21998
854.317	22162
854.451	22265
854.585	22040
854.72	21983
854.854	21941
854.988	21899
855.122	22040
855.256	21835
855.39	21808
855.524	22029
855.658	21968
855.792	21994
855.926	22169
856.06	22135
856.194	22147
856.327	21964
856.461	21911
856.595	22036
856.729	21937
856.862	22048
856.996	22070
857.13	22036
857.263	22025
857.397	22055
857.53	22036
857.664	22109
857.797	22032
857.931	22070
858.064	21964
858.197	22006
858.331	21994
858.464	22002
858.597	21895
858.731	21915
858.864	21983
858.997	22010
859.13	22002
859.263	22010
859.396	21972
859.529	21987
859.662	21884
859.795	21930
859.928	21987
860.061	22200
860.194	22276
860.327	21926
860.46	21972
860.592	22082
860.725	22128
860.858	22162
860.99	21983
861.123	21823
861.256	22044
861.388	22029
861.521	22824
861.653	21846
861.786	21774
861.918	21774
862.05	21975
862.183	21888
862.315	21911
862.447	21941
862.58	21854
862.712	21728
862.844	21648
862.976	21755
863.108	21652
863.24	22002
863.372	21671
863.504	21728
863.636	21690
863.768	21736
863.9	21644
864.032	21568
864.164	21641
864.296	21583
864.428	21888
864.559	21751
864.691	21717
864.823	21732
864.954	21637
865.086	21770
865.217	21641
865.349	21576
865.48	21709
865.612	21720
865.743	21732
865.875	21576
866.006	21549
866.137	21606
866.269	21568
866.4	21549
866.531	21496
866.662	21530
866.793	21450
866.924	21523
867.055	21538
867.186	21477
867.317	21462
867.448	21500
867.579	21629
867.71	21435
867.841	21454
867.972	21576
868.103	21568
868.233	21447
868.364	21504
868.495	21701
868.625	21762
868.756	21865
868.886	21675
869.017	21698
869.147	21823
869.278	21838
869.408	21675
869.539	21713
869.669	21922
869.799	21774
869.929	21880
870.06	21861
870.19	22116
870.32	21960
870.45	22044
870.58	22105
870.71	22287
870.84	22177
870.97	22173
871.1	22268
871.23	22287
871.36	22306
871.489	22139
871.619	22386
871.749	22367
871.879	22352
872.008	22470
872.138	22322
872.267	22394
872.397	22166
872.526	22177
872.656	22226
872.785	22135
872.915	22485
873.044	22371
873.173	22352
873.303	22379
873.432	22405
873.561	22519
873.69	22462
873.819	22333
873.948	22394
874.077	22310
874.206	22234
874.335	22322
874.464	22455
874.593	22481
874.722	22622
874.851	22660
874.979	22649
875.108	22535
875.237	22402
875.365	22478
875.494	22500
875.623	22565
875.751	22478
875.88	22440
876.008	22759
876.136	22702
876.265	22889
876.393	23033
876.521	22980
876.65	22858
876.778	22877
876.906	22980
877.034	22854
877.162	22911
877.29	22809
877.418	22877
877.546	22896
877.674	22889
877.802	22835
877.93	22740
878.058	22790
878.185	22710
878.313	22835
878.441	22858
878.568	22656
878.696	22752
878.824	22942
878.951	22904
879.079	23136
879.206	23200
879.333	23124
879.461	22942
879.588	22957
879.715	22987
879.842	23147
879.97	23014
880.097	22710
880.224	22790
880.351	22664
880.478	22805
880.605	22584
880.732	22706
880.859	23052
880.986	22774
881.112	22763
881.239	22599
881.366	22360
881.493	22363
881.619	22303
881.746	22265
881.872	22344
881.999	22276
882.125	22143
882.252	22280
882.378	22200
882.505	22402
882.631	22207
882.757	22086
882.883	22112
883.01	22032
883.136	21964
883.262	21854
883.388	21846
883.514	21934
883.64	22032
883.766	21880
883.892	21827
884.018	21823
884.143	21884
884.269	22017
884.395	21698
884.52	21580
884.646	21553
884.772	21591
884.897	21583
885.023	21679
885.148	21629
885.274	21842
885.399	21690
885.524	21583
885.65	21542
885.775	21595
885.9	21557
886.025	21682
886.15	21679
886.275	21507
886.4	21458
886.525	21538
886.65	21507
886.775	21435
886.9	21682
887.025	21888
887.149	21599
887.274	21469
887.399	21363
887.523	21294
887.648	21359
887.773	21382
887.897	21481
888.021	21435
888.146	21317
888.27	21450
888.395	21458
888.519	21363
888.643	21431
888.767	21306
888.891	21298
889.015	21169
889.139	21245
889.263	21188
889.387	21382
889.511	21370
889.635	21374
889.759	21142
889.883	21123
890.006	21157
890.13	21367
890.254	21123
890.377	21001
890.501	21074
890.624	20929
890.748	20990
890.871	20823
890.995	20781
891.118	20648
891.241	20682
891.364	20712
891.488	20762
891.611	20853
891.734	20773
891.857	20811
891.98	20689
892.103	20830
892.226	20712
892.349	20720
892.471	20606
892.594	20636
892.717	20758
892.839	20621
892.962	20571
893.085	20663
893.207	20571
893.33	20461
893.452	20537
893.575	20667
893.697	20541
893.819	20777
893.941	20910
894.064	20746
894.186	20625
894.308	20640
894.43	20617
894.552	20739
894.674	20678
894.796	20495
894.918	20431
895.04	20602
895.161	20606
895.283	20670
895.405	20537
895.526	20594
895.648	20598
895.769	20682
895.891	20689
896.012	20636
896.134	20609
896.255	20602
896.376	20594
896.498	20556
896.619	20731
896.74	20552
896.861	20762
896.982	20975
897.103	20971
897.224	20880
897.345	20826
897.466	20667
897.587	20880
897.708	20960
897.828	20910
897.949	20762
898.07	20617
898.19	20739
898.311	20910
898.431	20705
898.552	20750
898.672	20853
898.792	20952
898.913	20880
899.033	20689
899.153	20651
899.273	20385
899.393	20545
899.513	20659
899.633	20621
899.753	20492
899.873	20317
899.993	20594
900.113	20377
900.232	20606
900.352	20511
900.472	20202
900.591	20332
900.711	20317
900.83	20237
900.95	20324
901.069	20389
901.189	20183
901.308	20035
901.427	19909
901.546	19909
901.665	19913
901.784	19936
901.904	19776
902.023	19689
902.141	19434
902.26	19445
902.379	19453
902.498	19403
902.617	19392
902.735	19335
902.854	19365
902.973	19392
903.091	19236
903.21	19008
903.328	19031
903.446	18966
903.565	18783
903.683	18924
903.801	18715
903.919	18958
904.038	18814
904.156	18646
904.274	18768
904.392	18715
904.51	18681
904.627	18612
904.745	18673
904.863	18703
904.981	18433
905.098	18346
905.216	18315
905.334	18330
905.451	18300
905.569	18273
905.686	18441
905.803	18254
905.921	18140
906.038	18178
906.155	18159
906.272	18041
906.389	17992
906.506	17855
906.623	17840
906.74	17916
906.857	17802
906.974	17771
907.091	17874
907.208	17996
907.324	17984
907.441	17836
907.557	17630
907.674	17532
907.79	17490
907.907	17611
908.023	17558
908.139	17611
908.256	17486
908.372	17592
908.488	17520
908.604	17376
908.72	17140
908.836	17277
908.952	17273
909.068	17330
909.184	17330
909.3	17273
909.415	17254
909.531	17223
909.647	17018
909.762	17006
909.878	16927
909.993	16972
910.108	16908
910.224	16862
910.339	16953
910.454	16767
910.57	16850
910.685	16679
910.8	16946
910.915	16995
911.03	16927
911.145	16630
911.259	16561
911.374	16565
911.489	16554
911.604	16428
911.718	16360
911.833	16303
911.947	16150
912.062	16131
912.176	16223
912.291	16257
912.405	16234
912.519	16508
912.633	16459
912.748	16367
912.862	16261
912.976	16112
913.09	16067
913.204	16071
913.318	16105
913.431	16211
913.545	16177
913.659	16223
913.772	16059
913.886	15911
914	15884
914.113	16040
914.226	15964
914.34	15964
914.453	15857
914.566	15956
914.68	15766
914.793	15755
914.906	15625
915.019	15515
915.132	15488
915.245	15439
915.358	15454
915.47	15553
915.583	15568
915.696	15538
915.809	15599
915.921	15679
916.034	15351
916.146	15401
916.259	15386
916.371	15408
916.483	15431
916.595	15351
916.708	15256
916.82	15317
916.932	15283
917.044	15218
917.156	15188
917.268	15142
917.38	15131
917.491	15097
917.603	15169
917.715	15355
917.826	15233
917.938	15104
918.049	14902
918.161	15089
918.272	15294
918.384	15150
918.495	15066
918.606	14998
918.717	14921
918.828	14986
918.939	14895
919.05	14773
919.161	14834
919.272	14587
919.383	14838
919.494	14933
919.604	15131
919.715	14952
919.826	14746
919.936	14830
920.047	14849
920.157	14914
920.267	15001
920.378	14849
920.488	14762
920.598	14982
920.708	15062
920.818	15001
920.928	14929
921.038	15157
921.148	15062
921.258	14845
921.368	14781
921.477	14629
921.587	14583
921.697	14518
921.806	14689
921.916	14301
922.025	14244
922.134	14240
922.244	14100
922.353	14218
922.462	14039
922.571	14043
922.68	13894
922.789	13826
922.898	13852
923.007	13788
923.116	13841
923.224	13807
923.333	13909
923.442	13715
923.55	13689
923.659	13666
923.767	13647
923.876	13590
923.984	13662
924.092	13563
924.201	13658
924.309	13487
924.417	13677
924.525	13472
924.633	13552
924.741	14347
924.849	13312
924.956	13430
925.064	13384
925.172	13225
925.279	13304
925.387	13320
925.494	13228
925.602	13384
925.709	13369
925.816	13183
925.924	13206
926.031	13240
926.138	13171
926.245	13228
926.352	13095
926.459	13247
926.566	13240
926.673	13152
926.779	13065
926.886	13038
926.993	12916
927.099	12776
927.206	12753
927.312	12768
927.419	12821
927.525	12825
927.631	12798
927.737	12715
927.843	12578
927.95	12517
928.056	12604
928.162	12654
928.267	12684
928.373	13202
928.479	12696
928.585	12498
928.69	12593
928.796	12623
928.901	12528
929.007	12350
929.112	12365
929.218	12369
929.323	12315
929.428	12262
929.533	12498
929.638	12285
929.743	12254
929.848	12258
929.953	12270
930.058	12152
930.163	12087
930.267	11996
930.372	12232
930.477	11946
930.581	12243
930.685	12125
930.79	11969
930.894	11897
930.998	11908
931.103	12041
931.207	11684
931.311	11596
931.415	11497
931.519	11265
931.623	11258
