Data from test_V78500241_1272.txt Node
Date: Fri Mar 25 15:18:42 CST 2022
User: usil
Spectrometer: V785-0024
Trigger mode: 0
Integration Time (sec): 4.000000E-1
Scans to average: 1
Nonlinearity correction enabled: false
Boxcar width: 0
Storing dark spectrum: false
XAxis mode: Wavelengths
Number of Pixels in Spectrum: 1024
>>>>>Begin Spectral Data<<<<<
801.071	28238
801.214	28135
801.356	27713
801.499	27781
801.641	27701
801.783	27675
801.926	27599
802.068	27481
802.211	27576
802.353	27496
802.496	27207
802.638	27268
802.78	27363
802.923	27169
803.065	27218
803.208	27252
803.35	27359
803.492	27393
803.635	27568
803.777	27408
803.919	27564
804.061	27751
804.204	27675
804.346	27329
804.488	27450
804.63	27530
804.773	27485
804.915	27397
805.057	27599
805.199	27344
805.341	27622
805.483	27675
805.626	27561
805.768	27534
805.91	27599
806.052	27739
806.194	27564
806.336	27861
806.478	27656
806.62	27629
806.762	27770
806.904	28021
807.046	28139
807.188	28029
807.33	28173
807.472	28051
807.614	28147
807.756	28101
807.898	27968
808.04	27831
808.182	27899
808.324	27930
808.465	27979
808.607	28253
808.749	28276
808.891	28390
809.033	28500
809.174	28329
809.316	28398
809.458	28382
809.6	28253
809.741	28516
809.883	28405
810.025	28694
810.166	28599
810.308	28573
810.45	28481
810.591	28516
810.733	28413
810.875	28223
811.016	28147
811.158	28230
811.299	28344
811.441	28379
811.582	28489
811.724	28322
811.865	28386
812.007	28162
812.148	28230
812.29	28265
812.431	28531
812.573	28561
812.714	28816
812.855	28786
812.997	28961
813.138	28968
813.279	28987
813.421	28900
813.562	28816
813.703	28752
813.845	28546
813.986	28204
814.127	28295
814.268	28078
814.41	28162
814.551	28086
814.692	28211
814.833	27960
814.974	27949
815.115	27960
815.256	27983
815.397	27739
815.539	27884
815.68	27816
815.821	27724
815.962	27804
816.103	27705
816.244	27660
816.385	27515
816.526	27534
816.666	27249
816.807	27317
816.948	27488
817.089	27416
817.23	27427
817.371	27408
817.512	27355
817.653	27313
817.793	27249
817.934	27291
818.075	27230
818.216	27427
818.356	27199
818.497	27302
818.638	27020
818.778	27089
818.919	27020
819.06	27100
819.2	27176
819.341	27245
819.481	27382
819.622	27477
819.762	27736
819.903	27610
820.043	27511
820.184	27401
820.324	27534
820.465	27447
820.605	27462
820.746	27363
820.886	27279
821.026	27576
821.167	27370
821.307	27610
821.447	27355
821.588	27195
821.728	27081
821.868	26975
822.008	26842
822.149	26815
822.289	26758
822.429	26480
822.569	26434
822.709	26434
822.849	26400
822.99	26374
823.13	26320
823.27	26191
823.41	26172
823.55	26005
823.69	26122
823.83	26240
823.97	26103
824.11	25909
824.25	25902
824.389	25921
824.529	26130
824.669	25936
824.809	26001
824.949	26031
825.089	26233
825.228	25982
825.368	25776
825.508	25902
825.648	25925
825.787	25868
825.927	25913
826.067	25651
826.206	25791
826.346	25803
826.485	25887
826.625	25841
826.765	25860
826.904	25772
827.044	25681
827.183	25601
827.323	25411
827.462	25537
827.601	25597
827.741	25563
827.88	25681
828.02	25499
828.159	25495
828.298	25613
828.437	25674
828.577	25590
828.716	25601
828.855	25445
828.994	25274
829.134	25266
829.273	25339
829.412	25308
829.551	25183
829.69	25282
829.829	25308
829.968	25297
830.107	25297
830.246	25206
830.385	25152
830.524	25061
830.663	25057
830.802	24916
830.941	24844
831.08	24863
831.219	24962
831.357	24962
831.496	25042
831.635	24916
831.774	24909
831.913	24829
832.051	24620
832.19	24673
832.329	24627
832.467	24760
832.606	24509
832.744	24650
832.883	24490
833.022	24563
833.16	24555
833.299	24639
833.437	24505
833.576	24703
833.714	24829
833.852	24779
833.991	24517
834.129	24650
834.267	24772
834.406	24612
834.544	24616
834.682	24719
834.821	24745
834.959	24772
835.097	24597
835.235	24719
835.373	24646
835.511	24555
835.65	24635
835.788	24410
835.926	24483
836.064	24220
836.202	24407
836.34	24441
836.478	24342
836.615	24403
836.753	24490
836.891	24528
837.029	24509
837.167	24395
837.305	24452
837.443	24395
837.58	24251
837.718	24441
837.856	24391
837.993	24178
838.131	24228
838.269	24194
838.406	24201
838.544	24121
838.681	23874
838.819	23866
838.956	23726
839.094	23771
839.231	23729
839.369	23912
839.506	24133
839.643	24060
839.781	23794
839.918	23718
840.055	23779
840.193	23710
840.33	23695
840.467	23752
840.604	23756
840.742	24129
840.879	23459
841.016	23501
841.153	23695
841.29	23977
841.427	23665
841.564	23733
841.701	23699
841.838	23680
841.975	23600
842.112	23585
842.249	23414
842.385	23410
842.522	23558
842.659	23509
842.796	23455
842.933	23414
843.069	23414
843.206	23455
843.343	23501
843.479	23398
843.616	23345
843.752	23284
843.889	23208
844.025	23269
844.162	23147
844.298	23341
844.435	23227
844.571	23170
844.708	23261
844.844	23383
844.98	23402
845.117	23417
845.253	23022
845.389	23090
845.525	23143
845.661	23121
845.798	22934
845.934	22892
846.07	23022
846.206	22915
846.342	23094
846.478	22911
846.614	22763
846.75	22706
846.886	22774
847.022	22771
847.158	22793
847.294	22702
847.429	22706
847.565	22588
847.701	22797
847.837	22436
847.972	22375
848.108	22672
848.244	22493
848.379	22436
848.515	22253
848.65	22181
848.786	22238
848.921	22341
849.057	22398
849.192	22169
849.328	22386
849.463	22280
849.598	22150
849.734	22177
849.869	22124
850.004	22017
850.14	22055
850.275	21960
850.41	21994
850.545	21934
850.68	21892
850.815	22124
850.95	22150
851.085	22192
851.22	22181
851.355	22070
851.49	21994
851.625	21941
851.76	22025
851.895	21903
852.03	21926
852.165	22036
852.299	22097
852.434	22112
852.569	21922
852.703	21975
852.838	22078
852.973	22147
853.107	22169
853.242	21975
853.376	21945
853.511	21648
853.645	21759
853.78	21915
853.914	21892
854.048	21953
854.183	21827
854.317	21937
854.451	22048
854.585	21713
854.72	21800
854.854	22029
854.988	21899
855.122	21774
855.256	21671
855.39	21850
855.524	21953
855.658	21895
855.792	21774
855.926	21911
856.06	21854
856.194	21953
856.327	21800
856.461	21739
856.595	21922
856.729	21793
856.862	21793
856.996	21755
857.13	21888
857.263	21941
857.397	21926
857.53	21865
857.664	21937
857.797	21953
857.931	21968
858.064	21926
858.197	21941
858.331	21823
858.464	21831
858.597	21679
858.731	21876
858.864	21797
858.997	21759
859.13	21823
859.263	21892
859.396	22006
859.529	21854
859.662	21819
859.795	21800
859.928	21812
860.061	21983
860.194	22051
860.327	21937
860.46	21766
860.592	21850
860.725	22002
860.858	21960
860.99	21865
861.123	21781
861.256	21778
861.388	21789
861.521	22550
861.653	21629
861.786	21622
861.918	21682
862.05	21709
862.183	21622
862.315	21724
862.447	21819
862.58	21728
862.712	21458
862.844	21477
862.976	21633
863.108	21743
863.24	22017
863.372	21329
863.504	21485
863.636	21519
863.768	21641
863.9	21606
864.032	21481
864.164	21496
864.296	21641
864.428	21709
864.559	21641
864.691	21530
864.823	21595
864.954	21572
865.086	21428
865.217	21447
865.349	21389
865.48	21534
865.612	21439
865.743	21686
865.875	21545
866.006	21447
866.137	21454
866.269	21401
866.4	21401
866.531	21405
866.662	21344
866.793	21374
866.924	21466
867.055	21340
867.186	21393
867.317	21165
867.448	21340
867.579	21348
867.71	21195
867.841	21344
867.972	21363
868.103	21306
868.233	21367
868.364	21306
868.495	21454
868.625	21511
868.756	21606
868.886	21595
869.017	21633
869.147	21530
869.278	21808
869.408	21595
869.539	21542
869.669	21698
869.799	21618
869.929	21789
870.06	21751
870.19	21972
870.32	21918
870.45	22002
870.58	22002
870.71	22070
870.84	21975
870.97	21991
871.1	21899
871.23	22158
871.36	22139
871.489	22147
871.619	22150
871.749	22344
871.879	22196
872.008	22249
872.138	22230
872.267	22093
872.397	22021
872.526	22078
872.656	22002
872.785	22097
872.915	22253
873.044	22230
873.173	22166
873.303	22188
873.432	22261
873.561	22204
873.69	22261
873.819	22207
873.948	22204
874.077	22272
874.206	22162
874.335	22192
874.464	22299
874.593	22394
874.722	22432
874.851	22466
874.979	22310
875.108	22367
875.237	22462
875.365	22375
875.494	22325
875.623	22455
875.751	22440
875.88	22489
876.008	22573
876.136	22691
876.265	22812
876.393	22953
876.521	22881
876.65	22946
876.778	22763
876.906	22812
877.034	22782
877.162	22793
877.29	22706
877.418	22782
877.546	22710
877.674	22812
877.802	22698
877.93	22854
878.058	22854
878.185	22736
878.313	22736
878.441	22733
878.568	22641
878.696	22615
878.824	22778
878.951	22812
879.079	22984
879.206	23083
879.333	23041
879.461	22809
879.588	22862
879.715	22904
879.842	23025
879.97	22824
880.097	22668
880.224	22561
880.351	22588
880.478	22561
880.605	22611
880.732	22634
880.859	22854
880.986	22607
881.112	22565
881.239	22428
881.366	22295
881.493	22402
881.619	22143
881.746	22268
881.872	22158
881.999	22135
882.125	22090
882.252	22242
882.378	22135
882.505	22207
882.631	22040
882.757	21766
882.883	22059
883.01	21812
883.136	21793
883.262	21717
883.388	21694
883.514	21755
883.64	21850
883.766	21842
883.892	21610
884.018	21606
884.143	21766
884.269	21880
884.395	21485
884.52	21553
884.646	21454
884.772	21344
884.897	21264
885.023	21526
885.148	21568
885.274	21618
885.399	21587
885.524	21454
885.65	21492
885.775	21488
885.9	21428
886.025	21538
886.15	21545
886.275	21462
886.4	21458
886.525	21443
886.65	21397
886.775	21416
886.9	21561
887.025	21553
887.149	21549
887.274	21340
887.399	21150
887.523	21294
887.648	21412
887.773	21127
887.897	21370
888.021	21256
888.146	21104
888.27	21466
888.395	21268
888.519	21466
888.643	21192
888.767	21306
888.891	21043
889.015	20971
889.139	21096
889.263	21036
889.387	21089
889.511	21192
889.635	21085
889.759	21039
889.883	21062
890.006	21112
890.13	21138
890.254	20963
890.377	20861
890.501	20701
890.624	20796
890.748	20819
890.871	20754
890.995	20606
891.118	20511
891.241	20731
891.364	20560
891.488	20804
891.611	20648
891.734	20571
891.857	20667
891.98	20617
892.103	20739
892.226	20655
892.349	20484
892.471	20362
892.594	20503
892.717	20476
892.839	20545
892.962	20552
893.085	20552
893.207	20541
893.33	20495
893.452	20484
893.575	20568
893.697	20415
893.819	20682
893.941	20636
894.064	20598
894.186	20476
894.308	20328
894.43	20613
894.552	20651
894.674	20541
894.796	20377
894.918	20434
895.04	20438
895.161	20541
895.283	20621
895.405	20351
895.526	20377
895.648	20423
895.769	20492
895.891	20511
896.012	20594
896.134	20533
896.255	20507
896.376	20511
896.498	20461
896.619	20526
896.74	20461
896.861	20625
896.982	20823
897.103	20982
897.224	20663
897.345	20583
897.466	20556
897.587	20724
897.708	20868
897.828	20788
897.949	20549
898.07	20552
898.19	20667
898.311	20686
898.431	20552
898.552	20720
898.672	20743
898.792	20773
898.913	20651
899.033	20537
899.153	20579
899.273	20301
899.393	20385
899.513	20499
899.633	20522
899.753	20503
899.873	20446
899.993	20454
900.113	20389
900.232	20469
900.352	20339
900.472	20237
900.591	20100
900.711	20191
900.83	20157
900.95	20305
901.069	20343
901.189	20031
901.308	19837
901.427	19769
901.546	19788
901.665	19864
901.784	19731
901.904	19635
902.023	19620
902.141	19293
902.26	19240
902.379	19346
902.498	19255
902.617	19346
902.735	19297
902.854	19282
902.973	19110
903.091	18985
903.21	18973
903.328	19084
903.446	18863
903.565	18783
903.683	18783
903.801	18688
903.919	18639
904.038	18795
904.156	18551
904.274	18677
904.392	18513
904.51	18448
904.627	18448
904.745	18559
904.863	18631
904.981	18414
905.098	18296
905.216	18247
905.334	18350
905.451	18243
905.569	18213
905.686	18247
905.803	18106
905.921	18019
906.038	18076
906.155	18007
906.272	17874
906.389	17908
906.506	17661
906.623	17745
906.74	17828
906.857	17551
906.974	17676
907.091	17802
907.208	17748
907.324	17794
907.441	17600
907.557	17486
907.674	17493
907.79	17334
907.907	17482
908.023	17429
908.139	17486
908.256	17341
908.372	17284
908.488	17337
908.604	17200
908.72	17174
908.836	17155
908.952	17132
909.068	17170
909.184	17208
909.3	17174
909.415	17212
909.531	17102
909.647	17003
909.762	16820
909.878	16854
909.993	16892
910.108	16778
910.224	16812
910.339	16900
910.454	16752
910.57	16664
910.685	16637
910.8	16873
910.915	16748
911.03	16649
911.145	16573
911.259	16512
911.374	16417
911.489	16371
911.604	16436
911.718	16272
911.833	16215
911.947	16112
912.062	15972
912.176	16128
912.291	16173
912.405	16143
912.519	16337
912.633	16386
912.748	16196
912.862	16143
912.976	16090
913.09	15922
913.204	15918
913.318	16071
913.431	16071
913.545	16143
913.659	16105
913.772	15915
913.886	15846
914	15797
914.113	15972
914.226	15926
914.34	15861
914.453	15720
914.566	15880
914.68	15603
914.793	15629
914.906	15466
915.019	15469
915.132	15393
915.245	15477
915.358	15332
915.47	15450
915.583	15443
915.696	15507
915.809	15439
915.921	15564
916.034	15317
916.146	15344
916.259	15207
916.371	15408
916.483	15340
916.595	15264
916.708	15294
916.82	15283
916.932	15211
917.044	15138
917.156	15195
917.268	15047
917.38	15055
917.491	15001
917.603	15127
917.715	15214
917.826	15058
917.938	14960
918.049	14830
918.161	15009
918.272	15032
918.384	15169
918.495	14998
918.606	14880
918.717	14758
918.828	14815
918.939	14781
919.05	14701
919.161	14758
919.272	14583
919.383	14686
919.494	14792
919.604	14899
919.715	14838
919.826	14720
919.936	14788
920.047	14773
920.157	14689
920.267	14979
920.378	14720
920.488	14727
920.598	14975
920.708	15062
920.818	14891
920.928	14857
921.038	14998
921.148	14971
921.258	14705
921.368	14598
921.477	14571
921.587	14457
921.697	14385
921.806	14480
921.916	14431
922.025	14172
922.134	14180
922.244	14077
922.353	14161
922.462	14043
922.571	13917
922.68	13871
922.789	13807
922.898	13814
923.007	13677
923.116	13742
923.224	13811
923.333	13731
923.442	13586
923.55	13632
923.659	13567
923.767	13708
923.876	13559
923.984	13609
924.092	13502
924.201	13499
924.309	13468
924.417	13502
924.525	13441
924.633	13464
924.741	14153
924.849	13187
924.956	13278
925.064	13213
925.172	13160
925.279	13164
925.387	13206
925.494	13164
925.602	13266
925.709	13171
925.816	13072
925.924	13168
926.031	13209
926.138	13107
926.245	13171
926.352	13065
926.459	13088
926.566	13175
926.673	13015
926.779	12867
926.886	12878
926.993	12829
927.099	12749
927.206	12798
927.312	12696
927.419	12806
927.525	12700
927.631	12814
927.737	12498
927.843	12574
927.95	12570
928.056	12563
928.162	12574
928.267	12608
928.373	13187
928.479	12703
928.585	12407
928.69	12498
928.796	12544
928.901	12372
929.007	12304
929.112	12365
929.218	12300
929.323	12220
929.428	12247
929.533	12365
929.638	12175
929.743	12262
929.848	12213
929.953	12205
930.058	12087
930.163	11996
930.267	11893
930.372	12072
930.477	11824
930.581	12175
930.685	12003
930.79	11809
930.894	11843
930.998	11843
931.103	11935
931.207	11619
931.311	11524
931.415	11463
931.519	11231
931.623	11261
