Data from test_V78500241_3526.txt Node
Date: Fri Mar 25 15:34:24 CST 2022
User: usil
Spectrometer: V785-0024
Trigger mode: 0
Integration Time (sec): 4.000000E-1
Scans to average: 1
Nonlinearity correction enabled: false
Boxcar width: 0
Storing dark spectrum: false
XAxis mode: Wavelengths
Number of Pixels in Spectrum: 1024
>>>>>Begin Spectral Data<<<<<
801.071	27382
801.214	27359
801.356	27127
801.499	27150
801.641	26861
801.783	26868
801.926	26967
802.068	26883
802.211	26849
802.353	26804
802.496	26651
802.638	26632
802.78	26453
802.923	26568
803.065	26404
803.208	26484
803.35	26465
803.492	26659
803.635	26754
803.777	26541
803.919	26807
804.061	26933
804.204	26720
804.346	26636
804.488	26598
804.63	26743
804.773	26469
804.915	26697
805.057	26838
805.199	26781
805.341	26792
805.483	26864
805.626	26724
805.768	26762
805.91	26792
806.052	26800
806.194	26891
806.336	27081
806.478	26918
806.62	26762
806.762	26952
806.904	27055
807.046	27291
807.188	27214
807.33	27256
807.472	27154
807.614	27180
807.756	27207
807.898	27154
808.04	27058
808.182	26925
808.324	27058
808.465	27123
808.607	27214
808.749	27374
808.891	27397
809.033	27587
809.174	27412
809.316	27412
809.458	27363
809.6	27237
809.741	27488
809.883	27622
810.025	27682
810.166	27755
810.308	27618
810.45	27648
810.591	27542
810.733	27504
810.875	27519
811.016	27393
811.158	27233
811.299	27466
811.441	27637
811.582	27477
811.724	27416
811.865	27420
812.007	27462
812.148	27340
812.29	27500
812.431	27561
812.573	27686
812.714	27869
812.855	27911
812.997	27953
813.138	27998
813.279	28006
813.421	28025
813.562	27922
813.703	27709
813.845	27576
813.986	27264
814.127	27306
814.268	26971
814.41	27214
814.551	26979
814.692	27131
814.833	26933
814.974	26956
815.115	27074
815.256	26918
815.397	26842
815.539	26937
815.68	26823
815.821	26754
815.962	26849
816.103	26918
816.244	26670
816.385	26701
816.526	26644
816.666	26522
816.807	26366
816.948	26381
817.089	26457
817.23	26332
817.371	26332
817.512	26442
817.653	26263
817.793	26298
817.934	26313
818.075	26313
818.216	26457
818.356	26275
818.497	26233
818.638	26138
818.778	26073
818.919	26077
819.06	26096
819.2	26214
819.341	26218
819.481	26294
819.622	26617
819.762	26636
819.903	26412
820.043	26769
820.184	26606
820.324	26537
820.465	26609
820.605	26393
820.746	26351
820.886	26278
821.026	26450
821.167	26484
821.307	26495
821.447	26336
821.588	26256
821.728	26153
821.868	25986
822.008	25833
822.149	25791
822.289	25841
822.429	25472
822.569	25609
822.709	25518
822.849	25255
822.99	25343
823.13	25293
823.27	25232
823.41	25187
823.55	25031
823.69	25057
823.83	25232
823.97	25019
824.11	24890
824.25	24958
824.389	24791
824.529	25099
824.669	24783
824.809	24954
824.949	25038
825.089	25034
825.228	24791
825.368	24783
825.508	24821
825.648	24951
825.787	24783
825.927	24798
826.067	24677
826.206	24943
826.346	24909
826.485	24954
826.625	24878
826.765	24886
826.904	24909
827.044	24688
827.183	24654
827.323	24429
827.462	24684
827.601	24627
827.741	24547
827.88	24654
828.02	24525
828.159	24479
828.298	24566
828.437	24566
828.577	24639
828.716	24639
828.855	24475
828.994	24254
829.134	24251
829.273	24296
829.412	24247
829.551	24311
829.69	24125
829.829	24380
829.968	24281
830.107	24311
830.246	24315
830.385	24239
830.524	24068
830.663	24003
830.802	24064
830.941	23916
831.08	23908
831.219	23908
831.357	23821
831.496	24034
831.635	23851
831.774	23775
831.913	23718
832.051	23687
832.19	23668
832.329	23699
832.467	23592
832.606	23528
832.744	23551
832.883	23497
833.022	23474
833.16	23592
833.299	23543
833.437	23733
833.576	23638
833.714	23684
833.852	23718
833.991	23642
834.129	23832
834.267	23680
834.406	23695
834.544	23718
834.682	23615
834.821	23630
834.959	23779
835.097	23585
835.235	23592
835.373	23627
835.511	23726
835.65	23516
835.788	23520
835.926	23265
836.064	23181
836.202	23239
836.34	23417
836.478	23619
836.615	23440
836.753	23406
836.891	23638
837.029	23520
837.167	23368
837.305	23334
837.443	23349
837.58	23307
837.718	23349
837.856	23425
837.993	23383
838.131	23334
838.269	23174
838.406	23239
838.544	23220
838.681	22949
838.819	22919
838.956	22866
839.094	22679
839.231	22896
839.369	23025
839.506	23094
839.643	22911
839.781	22797
839.918	22755
840.055	22679
840.193	22877
840.33	22740
840.467	22649
840.604	22801
840.742	22915
840.879	22664
841.016	22748
841.153	22691
841.29	22824
841.427	22725
841.564	22691
841.701	22786
841.838	22656
841.975	22687
842.112	22679
842.249	22565
842.385	22516
842.522	22733
842.659	22561
842.796	22519
842.933	22687
843.069	22405
843.206	22455
843.343	22550
843.479	22421
843.616	22493
843.752	22287
843.889	22341
844.025	22371
844.162	22219
844.298	22295
844.435	22291
844.571	22242
844.708	22306
844.844	22470
844.98	22405
845.117	22402
845.253	22234
845.389	22006
845.525	22139
845.661	22044
845.798	22070
845.934	21922
846.07	22173
846.206	22059
846.342	22063
846.478	21968
846.614	21785
846.75	21686
846.886	21755
847.022	21701
847.158	21724
847.294	21709
847.429	21800
847.565	21774
847.701	22116
847.837	21443
847.972	21481
848.108	21526
848.244	21648
848.379	21401
848.515	21367
848.65	21458
848.786	21302
848.921	21302
849.057	21511
849.192	21412
849.328	21431
849.463	21317
849.598	21389
849.734	21207
849.869	21192
850.004	21043
850.14	21150
850.275	21195
850.41	21070
850.545	21043
850.68	20982
850.815	21135
850.95	21180
851.085	21252
851.22	21138
851.355	21009
851.49	21081
851.625	21009
851.76	21077
851.895	21024
852.03	20986
852.165	21138
852.299	21051
852.434	21252
852.569	20986
852.703	21150
852.838	21169
852.973	21268
853.107	21161
853.242	20960
853.376	20994
853.511	20845
853.645	20872
853.78	21039
853.914	20971
854.048	20823
854.183	20933
854.317	21028
854.451	21116
854.585	20914
854.72	20952
854.854	20998
854.988	20906
855.122	20925
855.256	20674
855.39	20902
855.524	20925
855.658	20872
855.792	20861
855.926	20910
856.06	20952
856.194	21062
856.327	20941
856.461	20933
856.595	20883
856.729	20849
856.862	20986
856.996	20967
857.13	21051
857.263	21009
857.397	21058
857.53	20830
857.664	20994
857.797	20918
857.931	21062
858.064	20979
858.197	21066
858.331	21043
858.464	20880
858.597	20834
858.731	20895
858.864	20887
858.997	21013
859.13	20956
859.263	20895
859.396	20979
859.529	20883
859.662	20895
859.795	20845
859.928	21055
860.061	21062
860.194	21081
860.327	20998
860.46	20971
860.592	20998
860.725	21032
860.858	21070
860.99	20918
861.123	20929
861.256	20876
861.388	20845
861.521	21770
861.653	20773
861.786	20807
861.918	20746
862.05	20739
862.183	20788
862.315	20868
862.447	21062
862.58	20899
862.712	20731
862.844	20590
862.976	20678
863.108	20815
863.24	21051
863.372	20568
863.504	20708
863.636	20678
863.768	20640
863.9	20609
864.032	20438
864.164	20568
864.296	20670
864.428	20864
864.559	20686
864.691	20735
864.823	20541
864.954	20705
865.086	20625
865.217	20617
865.349	20526
865.48	20389
865.612	20495
865.743	20689
865.875	20587
866.006	20492
866.137	20575
866.269	20552
866.4	20499
866.531	20609
866.662	20621
866.793	20678
866.924	20533
867.055	20556
867.186	20480
867.317	20427
867.448	20358
867.579	20461
867.71	20503
867.841	20377
867.972	20579
868.103	20450
868.233	20556
868.364	20381
868.495	20682
868.625	20629
868.756	20842
868.886	20640
869.017	20625
869.147	20788
869.278	20861
869.408	20800
869.539	20727
869.669	20777
869.799	20750
869.929	20925
870.06	20731
870.19	21176
870.32	21116
870.45	21108
870.58	21123
870.71	21233
870.84	21283
870.97	21066
871.1	21142
871.23	21203
871.36	21405
871.489	21142
871.619	21321
871.749	21291
871.879	21389
872.008	21481
872.138	21389
872.267	21252
872.397	21241
872.526	21180
872.656	21142
872.785	21161
872.915	21332
873.044	21420
873.173	21268
873.303	21370
873.432	21336
873.561	21500
873.69	21332
873.819	21386
873.948	21447
874.077	21336
874.206	21389
874.335	21272
874.464	21523
874.593	21572
874.722	21568
874.851	21644
874.979	21591
875.108	21633
875.237	21572
875.365	21469
875.494	21614
875.623	21759
875.751	21561
875.88	21633
876.008	21690
876.136	21751
876.265	22040
876.393	22124
876.521	22051
876.65	22120
876.778	22017
876.906	21819
877.034	21888
877.162	21972
877.29	21934
877.418	21972
877.546	22021
877.674	22109
877.802	21964
877.93	21884
878.058	21934
878.185	21789
878.313	21911
878.441	22010
878.568	21770
878.696	21968
878.824	21876
878.951	21953
879.079	22200
879.206	22215
879.333	22090
879.461	22021
879.588	22044
879.715	22109
879.842	22238
879.97	22082
880.097	21766
880.224	21648
880.351	21762
880.478	21698
880.605	21797
880.732	21804
880.859	22086
880.986	21937
881.112	21736
881.239	21694
881.366	21435
881.493	21386
881.619	21359
881.746	21313
881.872	21340
881.999	21256
882.125	21256
882.252	21294
882.378	21329
882.505	21477
882.631	21199
882.757	21058
882.883	21074
883.01	21081
883.136	20910
883.262	20914
883.388	20967
883.514	20921
883.64	21066
883.766	21093
883.892	20765
884.018	20868
884.143	20998
884.269	21089
884.395	20682
884.52	20693
884.646	20842
884.772	20705
884.897	20701
885.023	20781
885.148	20746
885.274	20765
885.399	20872
885.524	20743
885.65	20705
885.775	20697
885.9	20735
886.025	20811
886.15	20788
886.275	20545
886.4	20636
886.525	20587
886.65	20708
886.775	20625
886.9	20880
887.025	21001
887.149	20712
887.274	20438
887.399	20450
887.523	20362
887.648	20457
887.773	20347
887.897	20617
888.021	20503
888.146	20434
888.27	20518
888.395	20602
888.519	20385
888.643	20511
888.767	20549
888.891	20282
889.015	20259
889.139	20473
889.263	20240
889.387	20419
889.511	20518
889.635	20381
889.759	20309
889.883	20263
890.006	20225
890.13	20263
890.254	20153
890.377	20195
890.501	20012
890.624	19944
890.748	20024
890.871	19936
890.995	19841
891.118	19719
891.241	19864
891.364	19959
891.488	19978
891.611	19875
891.734	19913
891.857	19917
891.98	19875
892.103	19909
892.226	19788
892.349	19822
892.471	19685
892.594	19799
892.717	19791
892.839	19658
892.962	19765
893.085	19830
893.207	19750
893.33	19655
893.452	19727
893.575	19837
893.697	19635
893.819	19928
893.941	19997
894.064	19917
894.186	19738
894.308	19685
894.43	19753
894.552	19997
894.674	19856
894.796	19731
894.918	19700
895.04	19700
895.161	19898
895.283	19788
895.405	19662
895.526	19864
895.648	19715
895.769	19704
895.891	19814
896.012	19852
896.134	19731
896.255	19776
896.376	19803
896.498	19780
896.619	19795
896.74	19674
896.861	19871
896.982	20092
897.103	20282
897.224	20100
897.345	20069
897.466	19902
897.587	20001
897.708	20145
897.828	19928
897.949	19890
898.07	19757
898.19	19902
898.311	20153
898.431	19833
898.552	20012
898.672	20043
898.792	20069
898.913	20035
899.033	19841
899.153	19738
899.273	19674
899.393	19723
899.513	19830
899.633	19723
899.753	19670
899.873	19624
899.993	19753
900.113	19677
900.232	19712
900.352	19689
900.472	19624
900.591	19483
900.711	19502
900.83	19453
900.95	19655
901.069	19544
901.189	19422
901.308	19289
901.427	19076
901.546	19164
901.665	19175
901.784	19126
901.904	19012
902.023	18951
902.141	18661
902.26	18673
902.379	18776
902.498	18673
902.617	18513
902.735	18654
902.854	18677
902.973	18654
903.091	18296
903.21	18292
903.328	18270
903.446	18220
903.565	18095
903.683	18197
903.801	18015
903.919	18038
904.038	18129
904.156	17908
904.274	17916
904.392	17954
904.51	17893
904.627	17813
904.745	17859
904.863	17916
904.981	17558
905.098	17573
905.216	17611
905.334	17592
905.451	17482
905.569	17592
905.686	17589
905.803	17512
905.921	17334
906.038	17330
906.155	17334
906.272	17216
906.389	17368
906.506	17075
906.623	17208
906.74	17109
906.857	17083
906.974	17010
907.091	17117
907.208	17280
907.324	17124
907.441	16976
907.557	16858
907.674	16828
907.79	16740
907.907	16744
908.023	16889
908.139	16915
908.256	16824
908.372	16660
908.488	16664
908.604	16554
908.72	16542
908.836	16516
908.952	16523
909.068	16580
909.184	16740
909.3	16523
909.415	16478
909.531	16527
909.647	16371
909.762	16303
909.878	16303
909.993	16230
910.108	16219
910.224	16230
910.339	16303
910.454	16097
910.57	16090
910.685	16032
910.8	16356
910.915	16291
911.03	16120
911.145	15819
911.259	15857
911.374	15907
911.489	15720
911.604	15759
911.718	15622
911.833	15694
911.947	15504
912.062	15469
912.176	15682
912.291	15610
912.405	15610
912.519	15819
912.633	15785
912.748	15637
912.862	15580
912.976	15435
913.09	15260
913.204	15386
913.318	15363
913.431	15538
913.545	15511
913.659	15526
913.772	15264
913.886	15226
914	15199
914.113	15367
914.226	15416
914.34	15252
914.453	15180
914.566	15230
914.68	15085
914.793	15047
914.906	14956
915.019	14834
915.132	14788
915.245	14796
915.358	14883
915.47	14838
915.583	14902
915.696	14811
915.809	14910
915.921	14998
916.034	14811
916.146	14750
916.259	14705
916.371	14682
916.483	14815
916.595	14632
916.708	14674
916.82	14705
916.932	14708
917.044	14644
917.156	14530
917.268	14537
917.38	14480
917.491	14530
917.603	14575
917.715	14587
917.826	14530
917.938	14404
918.049	14400
918.161	14358
918.272	14587
918.384	14541
918.495	14484
918.606	14336
918.717	14221
918.828	14305
918.939	14256
919.05	14248
919.161	14309
919.272	14172
919.383	14145
919.494	14233
919.604	14404
919.715	14240
919.826	14180
919.936	14286
920.047	14309
920.157	14286
920.267	14377
920.378	14187
920.488	14202
920.598	14355
920.708	14473
920.818	14427
920.928	14328
921.038	14465
921.148	14442
921.258	14244
921.368	14077
921.477	13963
921.587	13925
921.697	13864
921.806	13932
921.916	13772
922.025	13609
922.134	13655
922.244	13689
922.353	13681
922.462	13506
922.571	13487
922.68	13483
922.789	13255
922.898	13339
923.007	13209
923.116	13396
923.224	13175
923.333	13263
923.442	13126
923.55	13107
923.659	13149
923.767	13190
923.876	13012
923.984	13084
924.092	12962
924.201	13023
924.309	13031
924.417	12958
924.525	12928
924.633	12798
924.741	13700
924.849	12753
924.956	12939
925.064	12749
925.172	12707
925.279	12806
925.387	12726
925.494	12681
925.602	12859
925.709	12779
925.816	12646
925.924	12593
926.031	12715
926.138	12673
926.245	12673
926.352	12532
926.459	12688
926.566	12719
926.673	12563
926.779	12391
926.886	12464
926.993	12296
927.099	12273
927.206	12251
927.312	12285
927.419	12338
927.525	12152
927.631	12262
927.737	12190
927.843	12098
927.95	11977
928.056	12053
928.162	12133
928.267	12175
928.373	12601
928.479	12155
928.585	11863
928.69	12041
928.796	11996
928.901	12045
929.007	11851
929.112	11920
929.218	11920
929.323	11851
929.428	11821
929.533	11897
929.638	11722
929.743	11775
929.848	11855
929.953	11733
930.058	11638
930.163	11505
930.267	11615
930.372	11657
930.477	11520
930.581	11718
930.685	11589
930.79	11459
930.894	11429
930.998	11330
931.103	11524
931.207	11250
931.311	11136
931.415	10908
931.519	10812
931.623	10801
