Data from test_V78500241_3067.txt Node
Date: Fri Mar 25 15:31:12 CST 2022
User: usil
Spectrometer: V785-0024
Trigger mode: 0
Integration Time (sec): 4.000000E-1
Scans to average: 1
Nonlinearity correction enabled: false
Boxcar width: 0
Storing dark spectrum: false
XAxis mode: Wavelengths
Number of Pixels in Spectrum: 1024
>>>>>Begin Spectral Data<<<<<
801.071	27154
801.214	27169
801.356	27070
801.499	26842
801.641	26899
801.783	26883
801.926	26971
802.068	26804
802.211	26712
802.353	26530
802.496	26598
802.638	26507
802.78	26453
802.923	26385
803.065	26328
803.208	26385
803.35	26396
803.492	26518
803.635	26682
803.777	26484
803.919	26678
804.061	26883
804.204	26750
804.346	26663
804.488	26541
804.63	26450
804.773	26507
804.915	26613
805.057	26853
805.199	26606
805.341	26724
805.483	26689
805.626	26777
805.768	26663
805.91	26765
806.052	26708
806.194	26708
806.336	26918
806.478	26648
806.62	26731
806.762	26872
806.904	26910
807.046	27218
807.188	27264
807.33	27180
807.472	27207
807.614	27161
807.756	27032
807.898	26998
808.04	26937
808.182	26921
808.324	26906
808.465	27131
808.607	27363
808.749	27268
808.891	27405
809.033	27481
809.174	27393
809.316	27332
809.458	27408
809.6	27161
809.741	27431
809.883	27504
810.025	27652
810.166	27682
810.308	27580
810.45	27500
810.591	27557
810.733	27466
810.875	27146
811.016	27173
811.158	27241
811.299	27435
811.441	27481
811.582	27389
811.724	27393
811.865	27306
812.007	27329
812.148	27264
812.29	27340
812.431	27367
812.573	27705
812.714	27580
812.855	27857
812.997	27930
813.138	27892
813.279	27903
813.421	27694
813.562	27857
813.703	27629
813.845	27420
813.986	27093
814.127	26990
814.268	27077
814.41	26929
814.551	27058
814.692	27108
814.833	26940
814.974	26830
815.115	26971
815.256	26982
815.397	26891
815.539	26689
815.68	26697
815.821	26549
815.962	26682
816.103	26727
816.244	26636
816.385	26495
816.526	26461
816.666	26408
816.807	26172
816.948	26358
817.089	26343
817.23	26389
817.371	26229
817.512	26305
817.653	26199
817.793	26122
817.934	26183
818.075	26187
818.216	26294
818.356	26187
818.497	26058
818.638	25955
818.778	25833
818.919	26020
819.06	26069
819.2	26103
819.341	26180
819.481	26206
819.622	26301
819.762	26659
819.903	26503
820.043	26355
820.184	26290
820.324	26412
820.465	26484
820.605	26434
820.746	26248
820.886	26218
821.026	26313
821.167	26256
821.307	26453
821.447	26088
821.588	26058
821.728	26065
821.868	25906
822.008	25772
822.149	25712
822.289	25689
822.429	25529
822.569	25384
822.709	25331
822.849	25232
822.99	25126
823.13	25110
823.27	25145
823.41	25126
823.55	24935
823.69	25095
823.83	25168
823.97	25042
824.11	24726
824.25	24920
824.389	24886
824.529	24932
824.669	24848
824.809	24966
824.949	24814
825.089	24882
825.228	24875
825.368	24722
825.508	24795
825.648	24726
825.787	24726
825.927	24825
826.067	24654
826.206	24760
826.346	24741
826.485	24768
826.625	24810
826.765	24878
826.904	24783
827.044	24395
827.183	24479
827.323	24372
827.462	24437
827.601	24384
827.741	24410
827.88	24540
828.02	24213
828.159	24365
828.298	24399
828.437	24456
828.577	24315
828.716	24498
828.855	24308
828.994	24178
829.134	24038
829.273	24102
829.412	24205
829.551	24152
829.69	24106
829.829	24064
829.968	24216
830.107	24171
830.246	24072
830.385	24068
830.524	23969
830.663	23882
830.802	23847
830.941	23714
831.08	23691
831.219	23794
831.357	23870
831.496	23977
831.635	23611
831.774	23592
831.913	23608
832.051	23524
832.19	23539
832.329	23395
832.467	23528
832.606	23353
832.744	23402
832.883	23322
833.022	23269
833.16	23292
833.299	23467
833.437	23379
833.576	23463
833.714	23592
833.852	23520
833.991	23440
834.129	23490
834.267	23570
834.406	23497
834.544	23455
834.682	23459
834.821	23486
834.959	23535
835.097	23383
835.235	23463
835.373	23600
835.511	23414
835.65	23368
835.788	23250
835.926	23132
836.064	23044
836.202	23261
836.34	23372
836.478	23337
836.615	23280
836.753	23162
836.891	23315
837.029	23315
837.167	23189
837.305	23056
837.443	23280
837.58	23121
837.718	23242
837.856	23208
837.993	23075
838.131	23193
838.269	23147
838.406	23048
838.544	23003
838.681	22805
838.819	22797
838.956	22592
839.094	22599
839.231	22622
839.369	22759
839.506	22942
839.643	22835
839.781	22675
839.918	22580
840.055	22607
840.193	22542
840.33	22622
840.467	22557
840.604	22660
840.742	22702
840.879	22424
841.016	22497
841.153	22447
841.29	22565
841.427	22523
841.564	22622
841.701	22451
841.838	22485
841.975	22303
842.112	22481
842.249	22363
842.385	22451
842.522	22557
842.659	22497
842.796	22398
842.933	22341
843.069	22314
843.206	22306
843.343	22261
843.479	22337
843.616	22230
843.752	22063
843.889	22158
844.025	22303
844.162	22025
844.298	22173
844.435	22067
844.571	22181
844.708	21987
844.844	22223
844.98	22242
845.117	22295
845.253	22128
845.389	21854
845.525	21937
845.661	22010
845.798	21717
845.934	21956
846.07	21854
846.206	21861
846.342	21987
846.478	21648
846.614	21648
846.75	21492
846.886	21519
847.022	21599
847.158	21633
847.294	21443
847.429	21610
847.565	21526
847.701	21800
847.837	21199
847.972	21275
848.108	21287
848.244	21374
848.379	21180
848.515	21203
848.65	21123
848.786	21241
848.921	21211
849.057	21222
849.192	21226
849.328	21230
849.463	21192
849.598	21039
849.734	21085
849.869	20990
850.004	20990
850.14	20921
850.275	20986
850.41	20823
850.545	20883
850.68	20765
850.815	20937
850.95	20948
851.085	21180
851.22	21017
851.355	20960
851.49	20883
851.625	20872
851.76	20902
851.895	20792
852.03	20838
852.165	20899
852.299	21066
852.434	21036
852.569	20883
852.703	20864
852.838	20967
852.973	21032
853.107	20998
853.242	20758
853.376	20678
853.511	20644
853.645	20689
853.78	20830
853.914	20781
854.048	20686
854.183	20697
854.317	20758
854.451	20960
854.585	20712
854.72	20777
854.854	20765
854.988	20518
855.122	20739
855.256	20606
855.39	20705
855.524	20819
855.658	20727
855.792	20762
855.926	20735
856.06	20670
856.194	20891
856.327	20667
856.461	20697
856.595	20739
856.729	20655
856.862	20864
856.996	20746
857.13	20769
857.263	20880
857.397	20792
857.53	20743
857.664	20739
857.797	20861
857.931	20815
858.064	20716
858.197	20956
858.331	20781
858.464	20724
858.597	20689
858.731	20689
858.864	20720
858.997	20720
859.13	20686
859.263	20792
859.396	20853
859.529	20670
859.662	20606
859.795	20648
859.928	20842
860.061	20902
860.194	20838
860.327	20686
860.46	20739
860.592	20785
860.725	20857
860.858	20796
860.99	20701
861.123	20575
861.256	20663
861.388	20743
861.521	21336
861.653	20609
861.786	20511
861.918	20636
862.05	20629
862.183	20689
862.315	20674
862.447	20712
862.58	20716
862.712	20533
862.844	20446
862.976	20499
863.108	20541
863.24	20887
863.372	20427
863.504	20488
863.636	20355
863.768	20552
863.9	20571
864.032	20412
864.164	20423
864.296	20514
864.428	20564
864.559	20412
864.691	20533
864.823	20469
864.954	20324
865.086	20320
865.217	20480
865.349	20282
865.48	20377
865.612	20210
865.743	20583
865.875	20533
866.006	20301
866.137	20271
866.269	20381
866.4	20461
866.531	20290
866.662	20278
866.793	20229
866.924	20362
867.055	20267
867.186	20259
867.317	20149
867.448	20210
867.579	20221
867.71	20199
867.841	20282
867.972	20320
868.103	20309
868.233	20415
868.364	20233
868.495	20404
868.625	20495
868.756	20640
868.886	20412
869.017	20537
869.147	20651
869.278	20651
869.408	20571
869.539	20427
869.669	20602
869.799	20727
869.929	20724
870.06	20640
870.19	21005
870.32	20777
870.45	20781
870.58	20845
870.71	21043
870.84	21146
870.97	21013
871.1	20861
871.23	21039
871.36	21199
871.489	21180
871.619	21085
871.749	21127
871.879	21214
872.008	21237
872.138	21032
872.267	21085
872.397	20785
872.526	20956
872.656	21024
872.785	20963
872.915	21123
873.044	21207
873.173	21100
873.303	21104
873.432	21222
873.561	21249
873.69	21093
873.819	21214
873.948	21188
874.077	21226
874.206	21096
874.335	21127
874.464	21370
874.593	21294
874.722	21382
874.851	21458
874.979	21462
875.108	21462
875.237	21351
875.365	21260
875.494	21279
875.623	21504
875.751	21397
875.88	21416
876.008	21549
876.136	21717
876.265	21930
876.393	21930
876.521	21854
876.65	21899
876.778	21842
876.906	21759
877.034	21671
877.162	21861
877.29	21675
877.418	21873
877.546	21869
877.674	21842
877.802	21797
877.93	21781
878.058	21610
878.185	21591
878.313	21675
878.441	21663
878.568	21614
878.696	21774
878.824	21698
878.951	21857
879.079	21983
879.206	22006
879.333	21922
879.461	21869
879.588	21865
879.715	21930
879.842	22017
879.97	21941
880.097	21466
880.224	21587
880.351	21576
880.478	21599
880.605	21610
880.732	21549
880.859	21774
880.986	21671
881.112	21606
881.239	21348
881.366	21329
881.493	21329
881.619	21214
881.746	21214
881.872	21135
881.999	21150
882.125	21051
882.252	21176
882.378	21169
882.505	21218
882.631	21100
882.757	20979
882.883	20994
883.01	20861
883.136	20880
883.262	20743
883.388	20682
883.514	20868
883.64	21081
883.766	20785
883.892	20674
884.018	20682
884.143	20891
884.269	20872
884.395	20655
884.52	20495
884.646	20560
884.772	20438
884.897	20469
885.023	20564
885.148	20609
885.274	20701
885.399	20693
885.524	20465
885.65	20480
885.775	20526
885.9	20454
886.025	20659
886.15	20606
886.275	20381
886.4	20488
886.525	20514
886.65	20381
886.775	20415
886.9	20693
887.025	20602
887.149	20492
887.274	20313
887.399	20366
887.523	20298
887.648	20195
887.773	20202
887.897	20381
888.021	20275
888.146	20187
888.27	20218
888.395	20317
888.519	20240
888.643	20301
888.767	20240
888.891	20206
889.015	20058
889.139	20145
889.263	20039
889.387	20218
889.511	20206
889.635	20290
889.759	19993
889.883	20122
890.006	20119
890.13	20267
890.254	20008
890.377	20046
890.501	19898
890.624	19879
890.748	19830
890.871	19795
890.995	19685
891.118	19666
891.241	19609
891.364	19776
891.488	19814
891.611	19734
891.734	19578
891.857	19769
891.98	19670
892.103	19776
892.226	19616
892.349	19708
892.471	19369
892.594	19483
892.717	19613
892.839	19514
892.962	19635
893.085	19693
893.207	19609
893.33	19453
893.452	19464
893.575	19620
893.697	19613
893.819	19772
893.941	19757
894.064	19738
894.186	19639
894.308	19544
894.43	19605
894.552	19799
894.674	19632
894.796	19529
894.918	19537
895.04	19460
895.161	19548
895.283	19658
895.405	19464
895.526	19540
895.648	19563
895.769	19613
895.891	19647
896.012	19700
896.134	19670
896.255	19738
896.376	19506
896.498	19616
896.619	19658
896.74	19643
896.861	19578
896.982	19860
897.103	20039
897.224	19894
897.345	19837
897.466	19742
897.587	19875
897.708	19970
897.828	19986
897.949	19765
898.07	19571
898.19	19753
898.311	19887
898.431	19753
898.552	19940
898.672	19799
898.792	19963
898.913	19837
899.033	19753
899.153	19575
899.273	19514
899.393	19655
899.513	19575
899.633	19537
899.753	19609
899.873	19613
899.993	19662
900.113	19624
900.232	19582
900.352	19525
900.472	19419
900.591	19426
900.711	19384
900.83	19308
900.95	19434
901.069	19518
901.189	19225
901.308	19072
901.427	18993
901.546	18920
901.665	19118
901.784	18932
901.904	18886
902.023	18722
902.141	18525
902.26	18521
902.379	18498
902.498	18532
902.617	18270
902.735	18525
902.854	18555
902.973	18346
903.091	18106
903.21	18152
903.328	18209
903.446	18091
903.565	18083
903.683	17931
903.801	17813
903.919	17901
904.038	17843
904.156	17847
904.274	17885
904.392	17680
904.51	17703
904.627	17726
904.745	17710
904.863	17851
904.981	17604
905.098	17395
905.216	17433
905.334	17414
905.451	17372
905.569	17440
905.686	17410
905.803	17398
905.921	17079
906.038	17303
906.155	17174
906.272	17193
906.389	17067
906.506	16908
906.623	16930
906.74	16927
906.857	16824
906.974	16820
907.091	16946
907.208	17121
907.324	17045
907.441	16816
907.557	16767
907.674	16664
907.79	16565
907.907	16641
908.023	16630
908.139	16603
908.256	16561
908.372	16584
908.488	16512
908.604	16421
908.72	16314
908.836	16367
908.952	16348
909.068	16447
909.184	16569
909.3	16337
909.415	16428
909.531	16337
909.647	16196
909.762	16059
909.878	16048
909.993	16090
910.108	16017
910.224	16093
910.339	16013
910.454	15968
910.57	15934
910.685	15831
910.8	16074
910.915	15975
911.03	15922
911.145	15755
911.259	15762
911.374	15648
911.489	15614
911.604	15622
911.718	15492
911.833	15507
911.947	15420
912.062	15340
912.176	15568
912.291	15504
912.405	15561
912.519	15686
912.633	15732
912.748	15511
912.862	15424
912.976	15275
913.09	15199
913.204	15157
913.318	15260
913.431	15367
913.545	15378
913.659	15469
913.772	15230
913.886	15169
914	15024
914.113	15146
914.226	15211
914.34	15150
914.453	14960
914.566	15005
914.68	14857
914.793	14944
914.906	14724
915.019	14648
915.132	14606
915.245	14598
915.358	14583
915.47	14686
915.583	14625
915.696	14632
915.809	14807
915.921	14804
916.034	14670
916.146	14560
916.259	14549
916.371	14659
916.483	14640
916.595	14518
916.708	14602
916.82	14526
916.932	14484
917.044	14450
917.156	14492
917.268	14351
917.38	14423
917.491	14370
917.603	14393
917.715	14450
917.826	14450
917.938	14328
918.049	14229
918.161	14324
918.272	14484
918.384	14415
918.495	14366
918.606	14123
918.717	14046
918.828	14138
918.939	14149
919.05	14111
919.161	14103
919.272	13913
919.383	14062
919.494	14202
919.604	14294
919.715	14115
919.826	14073
919.936	14024
920.047	14164
920.157	14115
920.267	14271
920.378	14161
920.488	14183
920.598	14252
920.708	14427
920.818	14248
920.928	14248
921.038	14396
921.148	14267
921.258	14088
921.368	13940
921.477	13788
921.587	13860
921.697	13639
921.806	13898
921.916	13715
922.025	13487
922.134	13518
922.244	13415
922.353	13559
922.462	13434
922.571	13327
922.68	13213
922.789	13141
922.898	13202
923.007	13217
923.116	13213
923.224	13152
923.333	13095
923.442	12981
923.55	12985
923.659	13057
923.767	12962
923.876	12935
923.984	13069
924.092	12909
924.201	12890
924.309	12958
924.417	12871
924.525	12833
924.633	12764
924.741	13849
924.849	12631
924.956	12768
925.064	12620
925.172	12418
925.279	12563
925.387	12601
925.494	12589
925.602	12738
925.709	12662
925.816	12437
925.924	12563
926.031	12627
926.138	12540
926.245	12635
926.352	12475
926.459	12570
926.566	12566
926.673	12506
926.779	12273
926.886	12414
926.993	12155
927.099	12159
927.206	12133
927.312	12110
927.419	12201
927.525	12155
927.631	12235
927.737	12041
927.843	11980
927.95	11920
928.056	12003
928.162	11916
928.267	12041
928.373	12589
928.479	12045
928.585	11885
928.69	11977
928.796	11935
928.901	11904
929.007	11798
929.112	11847
929.218	11775
929.323	11783
929.428	11771
929.533	11847
929.638	11604
929.743	11608
929.848	11737
929.953	11653
930.058	11653
930.163	11372
930.267	11421
930.372	11600
930.477	11387
930.581	11619
930.685	11497
930.79	11315
930.894	11337
930.998	11360
931.103	11360
931.207	11132
931.311	10968
931.415	10892
931.519	10790
931.623	10702
