Data from test_V78500241_2029.txt Node
Date: Fri Mar 25 15:23:59 CST 2022
User: usil
Spectrometer: V785-0024
Trigger mode: 0
Integration Time (sec): 4.000000E-1
Scans to average: 1
Nonlinearity correction enabled: false
Boxcar width: 0
Storing dark spectrum: false
XAxis mode: Wavelengths
Number of Pixels in Spectrum: 1024
>>>>>Begin Spectral Data<<<<<
801.071	27918
801.214	27797
801.356	27591
801.499	27629
801.641	27355
801.783	27405
801.926	27466
802.068	27329
802.211	27325
802.353	27283
802.496	27096
802.638	27070
802.78	27024
802.923	26948
803.065	26902
803.208	26861
803.35	27100
803.492	27135
803.635	27393
803.777	27302
803.919	27180
804.061	27618
804.204	27264
804.346	27374
804.488	27089
804.63	27218
804.773	27294
804.915	27279
805.057	27359
805.199	27218
805.341	27272
805.483	27405
805.626	27306
805.768	27256
805.91	27420
806.052	27351
806.194	27226
806.336	27557
806.478	27348
806.62	27386
806.762	27416
806.904	27591
807.046	27876
807.188	27766
807.33	27819
807.472	27774
807.614	27667
807.756	27641
807.898	27686
808.04	27728
808.182	27591
808.324	27694
808.465	27739
808.607	27914
808.749	28143
808.891	28013
809.033	28158
809.174	28135
809.316	28044
809.458	27911
809.6	28013
809.741	28025
809.883	28211
810.025	28337
810.166	28303
810.308	28295
810.45	28230
810.591	28185
810.733	27987
810.875	27960
811.016	27998
811.158	27861
811.299	28051
811.441	28105
811.582	28070
811.724	27953
811.865	28078
812.007	27899
812.148	28044
812.29	27998
812.431	28082
812.573	28398
812.714	28615
812.855	28314
812.997	28596
813.138	28729
813.279	28542
813.421	28447
813.562	28485
813.703	28337
813.845	28226
813.986	27865
814.127	27880
814.268	27770
814.41	27835
814.551	27614
814.692	27869
814.833	27580
814.974	27675
815.115	27835
815.256	27614
815.397	27629
815.539	27477
815.68	27511
815.821	27454
815.962	27488
816.103	27431
816.244	27424
816.385	27317
816.526	27226
816.666	27055
816.807	27108
816.948	27009
817.089	27169
817.23	27070
817.371	27024
817.512	26971
817.653	26948
817.793	26929
817.934	26971
818.075	26967
818.216	26979
818.356	26940
818.497	26804
818.638	26697
818.778	26579
818.919	26804
819.06	26758
819.2	26982
819.341	26864
819.481	26921
819.622	27085
819.762	27241
819.903	27173
820.043	27275
820.184	27051
820.324	27093
820.465	27112
820.605	27169
820.746	26921
820.886	27009
821.026	26990
821.167	26971
821.307	26929
821.447	26944
821.588	26929
821.728	26880
821.868	26575
822.008	26415
822.149	26484
822.289	26442
822.429	26256
822.569	26183
822.709	26122
822.849	25986
822.99	26001
823.13	25860
823.27	25879
823.41	25708
823.55	25578
823.69	25791
823.83	25719
823.97	25719
824.11	25464
824.25	25537
824.389	25624
824.529	25609
824.669	25495
824.809	25586
824.949	25624
825.089	25655
825.228	25529
825.368	25441
825.508	25369
825.648	25499
825.787	25499
825.927	25438
826.067	25499
826.206	25358
826.346	25457
826.485	25548
826.625	25457
826.765	25597
826.904	25438
827.044	25183
827.183	25175
827.323	25209
827.462	25148
827.601	25160
827.741	25225
827.88	25095
828.02	25042
828.159	25019
828.298	25187
828.437	25232
828.577	25217
828.716	25278
828.855	25027
828.994	24768
829.134	24951
829.273	24947
829.412	24757
829.551	24825
829.69	24760
829.829	24897
829.968	24901
830.107	24916
830.246	24840
830.385	24878
830.524	24688
830.663	24604
830.802	24635
830.941	24509
831.08	24517
831.219	24631
831.357	24589
831.496	24593
831.635	24490
831.774	24433
831.913	24285
832.051	24361
832.19	24281
832.329	24186
832.467	24083
832.606	24155
832.744	24095
832.883	24125
833.022	24129
833.16	24106
833.299	24106
833.437	24178
833.576	24140
833.714	24152
833.852	24182
833.991	24224
834.129	24087
834.267	24304
834.406	24224
834.544	24072
834.682	24133
834.821	24190
834.959	24247
835.097	24072
835.235	24311
835.373	24076
835.511	24125
835.65	24011
835.788	24060
835.926	23901
836.064	23931
836.202	23904
836.34	23950
836.478	24133
836.615	24106
836.753	24098
836.891	24159
837.029	24038
837.167	23935
837.305	23950
837.443	23893
837.58	23889
837.718	23885
837.856	23927
837.993	23893
838.131	23832
838.269	23942
838.406	23794
838.544	23699
838.681	23429
838.819	23505
838.956	23284
839.094	23406
839.231	23372
839.369	23524
839.506	23718
839.643	23665
839.781	23364
839.918	23341
840.055	23227
840.193	23254
840.33	23292
840.467	23277
840.604	23216
840.742	23535
840.879	23136
841.016	23254
841.153	23109
841.29	23284
841.427	23261
841.564	23299
841.701	23140
841.838	23296
841.975	23181
842.112	23197
842.249	23083
842.385	23086
842.522	23193
842.659	23162
842.796	23010
842.933	22938
843.069	23003
843.206	23022
843.343	23067
843.479	23079
843.616	22923
843.752	22828
843.889	22854
844.025	22858
844.162	22809
844.298	22957
844.435	22744
844.571	22752
844.708	22744
844.844	22908
844.98	23056
845.117	22828
845.253	22698
845.389	22645
845.525	22694
845.661	22809
845.798	22447
845.934	22618
846.07	22489
846.206	22516
846.342	22691
846.478	22481
846.614	22310
846.75	22242
846.886	22261
847.022	22306
847.158	22196
847.294	22181
847.429	22287
847.565	22211
847.701	22493
847.837	22067
847.972	21956
848.108	22128
848.244	22063
848.379	21819
848.515	21865
848.65	21926
848.786	21827
848.921	21850
849.057	21934
849.192	21945
849.328	21880
849.463	21781
849.598	21766
849.734	21713
849.869	21739
850.004	21576
850.14	21675
850.275	21648
850.41	21576
850.545	21393
850.68	21545
850.815	21561
850.95	21644
851.085	21717
851.22	21698
851.355	21717
851.49	21679
851.625	21557
851.76	21595
851.895	21523
852.03	21359
852.165	21568
852.299	21675
852.434	21663
852.569	21690
852.703	21580
852.838	21580
852.973	21705
853.107	21698
853.242	21576
853.376	21496
853.511	21279
853.645	21416
853.78	21580
853.914	21431
854.048	21492
854.183	21393
854.317	21545
854.451	21641
854.585	21374
854.72	21317
854.854	21447
854.988	21306
855.122	21542
855.256	21283
855.39	21458
855.524	21473
855.658	21564
855.792	21496
855.926	21363
856.06	21359
856.194	21454
856.327	21355
856.461	21412
856.595	21447
856.729	21450
856.862	21466
856.996	21538
857.13	21405
857.263	21458
857.397	21485
857.53	21466
857.664	21519
857.797	21462
857.931	21549
858.064	21591
858.197	21488
858.331	21443
858.464	21302
858.597	21218
858.731	21291
858.864	21313
858.997	21294
859.13	21485
859.263	21511
859.396	21545
859.529	21382
859.662	21462
859.795	21291
859.928	21397
860.061	21618
860.194	21610
860.327	21466
860.46	21401
860.592	21481
860.725	21515
860.858	21450
860.99	21348
861.123	21454
861.256	21393
861.388	21359
861.521	22078
861.653	21260
861.786	21272
861.918	21211
862.05	21249
862.183	21458
862.315	21245
862.447	21359
862.58	21313
862.712	21199
862.844	21074
862.976	21207
863.108	21306
863.24	21412
863.372	21093
863.504	21142
863.636	21218
863.768	21188
863.9	21043
864.032	21100
864.164	21150
864.296	21116
864.428	21275
864.559	21230
864.691	21226
864.823	21169
864.954	21176
865.086	21157
865.217	21062
865.349	20998
865.48	21024
865.612	21028
865.743	21131
865.875	21096
866.006	20998
866.137	20929
866.269	21116
866.4	20956
866.531	20918
866.662	20925
866.793	20933
866.924	21009
867.055	20952
867.186	20990
867.317	20986
867.448	20925
867.579	20914
867.71	20967
867.841	20929
867.972	20918
868.103	20902
868.233	21013
868.364	21024
868.495	21127
868.625	21237
868.756	21287
868.886	21146
869.017	21264
869.147	21344
869.278	21272
869.408	21283
869.539	21222
869.669	21176
869.799	21180
869.929	21382
870.06	21382
870.19	21549
870.32	21435
870.45	21485
870.58	21496
870.71	21671
870.84	21614
870.97	21561
871.1	21473
871.23	21743
871.36	21762
871.489	21732
871.619	21770
871.749	21739
871.879	21823
872.008	21915
872.138	21793
872.267	21774
872.397	21797
872.526	21804
872.656	21618
872.785	21542
872.915	21812
873.044	21918
873.173	21960
873.303	21911
873.432	21892
873.561	21846
873.69	21800
873.819	21854
873.948	21918
874.077	21751
874.206	21690
874.335	21686
874.464	21956
874.593	22017
874.722	22044
874.851	22128
874.979	22032
875.108	21895
875.237	21960
875.365	21934
875.494	21873
875.623	22048
875.751	22036
875.88	22124
876.008	22265
876.136	22196
876.265	22569
876.393	22561
876.521	22531
876.65	22535
876.778	22409
876.906	22333
877.034	22447
877.162	22306
877.29	22276
877.418	22272
877.546	22421
877.674	22386
877.802	22295
877.93	22413
878.058	22398
878.185	22238
878.313	22291
878.441	22382
878.568	22150
878.696	22318
878.824	22375
878.951	22363
879.079	22485
879.206	22683
879.333	22736
879.461	22352
879.588	22535
879.715	22554
879.842	22584
879.97	22375
880.097	22284
880.224	22215
880.351	22249
880.478	22249
880.605	22219
880.732	22154
880.859	22504
880.986	22158
881.112	22112
881.239	22002
881.366	21949
881.493	21899
881.619	21759
881.746	21823
881.872	21686
881.999	21812
882.125	21637
882.252	21823
882.378	21675
882.505	21892
882.631	21667
882.757	21477
882.883	21564
883.01	21462
883.136	21408
883.262	21370
883.388	21230
883.514	21412
883.64	21473
883.766	21412
883.892	21074
884.018	21294
884.143	21481
884.269	21435
884.395	21108
884.52	21066
884.646	21161
884.772	21047
884.897	21074
885.023	21119
885.148	21218
885.274	21279
885.399	21165
885.524	21245
885.65	21157
885.775	21154
885.9	21039
886.025	21165
886.15	21138
886.275	21142
886.4	21047
886.525	20998
886.65	21096
886.775	21013
886.9	21302
887.025	21321
887.149	21077
887.274	20910
887.399	20792
887.523	20876
887.648	20800
887.773	20777
887.897	20956
888.021	20861
888.146	20876
888.27	20979
888.395	20921
888.519	20864
888.643	20891
888.767	20979
888.891	20864
889.015	20750
889.139	20686
889.263	20571
889.387	20720
889.511	20956
889.635	20800
889.759	20785
889.883	20655
890.006	20625
890.13	20701
890.254	20659
890.377	20590
890.501	20423
890.624	20385
890.748	20514
890.871	20328
890.995	20298
891.118	20233
891.241	20225
891.364	20183
891.488	20507
891.611	20313
891.734	20275
891.857	20290
891.98	20305
892.103	20259
892.226	20263
892.349	20221
892.471	19989
892.594	20130
892.717	20313
892.839	20122
892.962	20187
893.085	20313
893.207	20252
893.33	20176
893.452	20153
893.575	20225
893.697	20168
893.819	20290
893.941	20393
894.064	20309
894.186	20031
894.308	20027
894.43	20191
894.552	20286
894.674	20115
894.796	20122
894.918	20046
895.04	20096
895.161	20176
895.283	20191
895.405	20195
895.526	20176
895.648	20176
895.769	20088
895.891	20119
896.012	20301
896.134	20278
896.255	20111
896.376	20050
896.498	20130
896.619	20202
896.74	20111
896.861	20176
896.982	20355
897.103	20552
897.224	20568
897.345	20351
897.466	20282
897.587	20298
897.708	20469
897.828	20431
897.949	20393
898.07	20187
898.19	20267
898.311	20507
898.431	20271
898.552	20431
898.672	20454
898.792	20457
898.913	20450
899.033	20347
899.153	20054
899.273	20084
899.393	20092
899.513	20069
899.633	20092
899.753	20145
899.873	20081
899.993	20107
900.113	20073
900.232	20005
900.352	20081
900.472	20031
900.591	19936
900.711	19890
900.83	19822
900.95	19925
901.069	19925
901.189	19864
901.308	19605
901.427	19506
901.546	19445
901.665	19525
901.784	19571
901.904	19293
902.023	19263
902.141	19160
902.26	19000
902.379	19038
902.498	18977
902.617	18951
902.735	19110
902.854	18977
902.973	18837
903.091	18673
903.21	18673
903.328	18654
903.446	18589
903.565	18532
903.683	18490
903.801	18403
903.919	18388
904.038	18372
904.156	18167
904.274	18376
904.392	18216
904.51	18285
904.627	18220
904.745	18281
904.863	18277
904.981	18007
905.098	17870
905.216	17897
905.334	18022
905.451	17851
905.569	17946
905.686	17878
905.803	17904
905.921	17760
906.038	17752
906.155	17627
906.272	17649
906.389	17589
906.506	17455
906.623	17429
906.74	17425
906.857	17402
906.974	17349
907.091	17562
907.208	17528
907.324	17516
907.441	17345
907.557	17166
907.674	17117
907.79	17151
907.907	17117
908.023	17235
908.139	17185
908.256	17071
908.372	17045
908.488	16923
908.604	16972
908.72	16885
908.836	16877
908.952	16904
909.068	16919
909.184	16923
909.3	16866
909.415	16881
909.531	16835
909.647	16565
909.762	16634
909.878	16603
909.993	16466
910.108	16512
910.224	16489
910.339	16565
910.454	16382
910.57	16398
910.685	16253
910.8	16656
910.915	16538
911.03	16299
911.145	16219
911.259	16166
911.374	16268
911.489	16154
911.604	16021
911.718	15827
911.833	15972
911.947	15835
912.062	15766
912.176	15823
912.291	15831
912.405	15895
912.519	16090
912.633	16109
912.748	15907
912.862	15850
912.976	15694
913.09	15553
913.204	15720
913.318	15720
913.431	15819
913.545	15857
913.659	15785
913.772	15743
913.886	15641
914	15393
914.113	15511
914.226	15637
914.34	15663
914.453	15340
914.566	15603
914.68	15405
914.793	15443
914.906	15199
915.019	15112
915.132	15055
915.245	15085
915.358	15055
915.47	15169
915.583	15112
915.696	15077
915.809	15188
915.921	15268
916.034	14975
916.146	15108
916.259	15043
916.371	15085
916.483	15100
916.595	15039
916.708	14960
916.82	15005
916.932	14868
917.044	14895
917.156	14906
917.268	14773
917.38	14792
917.491	14826
917.603	14804
917.715	14941
917.826	14857
917.938	14750
918.049	14659
918.161	14667
918.272	14952
918.384	14849
918.495	14682
918.606	14518
918.717	14556
918.828	14541
918.939	14484
919.05	14469
919.161	14522
919.272	14347
919.383	14450
919.494	14552
919.604	14769
919.715	14514
919.826	14522
919.936	14526
920.047	14625
920.157	14511
920.267	14678
920.378	14518
920.488	14377
920.598	14716
920.708	14804
920.818	14499
920.928	14560
921.038	14834
921.148	14712
921.258	14442
921.368	14370
921.477	14271
921.587	14244
921.697	14065
921.806	14259
921.916	14130
922.025	14008
922.134	13841
922.244	13837
922.353	13841
922.462	13742
922.571	13772
922.68	13559
922.789	13468
922.898	13552
923.007	13506
923.116	13525
923.224	13559
923.333	13365
923.442	13449
923.55	13426
923.659	13400
923.767	13510
923.876	13346
923.984	13346
924.092	13225
924.201	13304
924.309	13247
924.417	13304
924.525	13206
924.633	13152
924.741	13959
924.849	12924
924.956	13076
925.064	13008
925.172	12913
925.279	12886
925.387	12996
925.494	12924
925.602	13072
925.709	13027
925.816	12916
925.924	12859
926.031	12962
926.138	12935
926.245	12852
926.352	12700
926.459	12913
926.566	12973
926.673	12814
926.779	12711
926.886	12669
926.993	12544
927.099	12570
927.206	12513
927.312	12467
927.419	12589
927.525	12483
927.631	12448
927.737	12372
927.843	12384
927.95	12262
928.056	12334
928.162	12311
928.267	12346
928.373	13038
928.479	12464
928.585	12213
928.69	12266
928.796	12346
928.901	12159
929.007	12064
929.112	12205
929.218	12178
929.323	12083
929.428	12007
929.533	12144
929.638	11954
929.743	12015
929.848	12026
929.953	12053
930.058	11897
930.163	11707
930.267	11756
930.372	11870
930.477	11718
930.581	11927
930.685	11783
930.79	11623
930.894	11665
930.998	11615
931.103	11733
931.207	11376
931.311	11353
931.415	11166
931.519	11025
931.623	10984
