Data from test_V78500241_2668.txt Node
Date: Fri Mar 25 15:28:26 CST 2022
User: usil
Spectrometer: V785-0024
Trigger mode: 0
Integration Time (sec): 4.000000E-1
Scans to average: 1
Nonlinearity correction enabled: false
Boxcar width: 0
Storing dark spectrum: false
XAxis mode: Wavelengths
Number of Pixels in Spectrum: 1024
>>>>>Begin Spectral Data<<<<<
801.071	27066
801.214	26986
801.356	26845
801.499	26880
801.641	26655
801.783	26674
801.926	26632
802.068	26667
802.211	26473
802.353	26503
802.496	26305
802.638	26415
802.78	26385
802.923	26126
803.065	26267
803.208	26244
803.35	26419
803.492	26332
803.635	26560
803.777	26301
803.919	26339
804.061	26663
804.204	26438
804.346	26423
804.488	26336
804.63	26404
804.773	26339
804.915	26480
805.057	26427
805.199	26275
805.341	26396
805.483	26564
805.626	26568
805.768	26434
805.91	26632
806.052	26549
806.194	26431
806.336	26701
806.478	26526
806.62	26461
806.762	26549
806.904	26804
807.046	26998
807.188	26967
807.33	26994
807.472	27070
807.614	26712
807.756	26826
807.898	26792
808.04	26674
808.182	26705
808.324	26689
808.465	26849
808.607	27047
808.749	27112
808.891	27142
809.033	27218
809.174	27195
809.316	27203
809.458	27081
809.6	27230
809.741	27329
809.883	27264
810.025	27424
810.166	27359
810.308	27473
810.45	27408
810.591	27321
810.733	27112
810.875	27036
811.016	27077
811.158	27047
811.299	27233
811.441	27306
811.582	27264
811.724	27218
811.865	27058
812.007	27009
812.148	27070
812.29	27062
812.431	27207
812.573	27348
812.714	27515
812.855	27633
812.997	27637
813.138	27823
813.279	27614
813.421	27648
813.562	27458
813.703	27355
813.845	27283
813.986	27142
814.127	26819
814.268	26811
814.41	26887
814.551	26724
814.692	26857
814.833	26807
814.974	26678
815.115	26686
815.256	26613
815.397	26640
815.539	26735
815.68	26507
815.821	26514
815.962	26549
816.103	26450
816.244	26400
816.385	26233
816.526	26278
816.666	26103
816.807	25913
816.948	26054
817.089	26096
817.23	26043
817.371	25982
817.512	26100
817.653	26084
817.793	25928
817.934	26005
818.075	26054
818.216	26081
818.356	26016
818.497	25807
818.638	25715
818.778	25772
818.919	25837
819.06	25833
819.2	25890
819.341	26046
819.481	26092
819.622	26256
819.762	26355
819.903	26252
820.043	26134
820.184	26294
820.324	26077
820.465	26161
820.605	26062
820.746	26183
820.886	25993
821.026	26126
821.167	26149
821.307	26191
821.447	25974
821.588	25875
821.728	25708
821.868	25647
822.008	25514
822.149	25506
822.289	25502
822.429	25266
822.569	25270
822.709	25255
822.849	25145
822.99	24962
823.13	24954
823.27	24928
823.41	24814
823.55	24707
823.69	24867
823.83	24848
823.97	24840
824.11	24661
824.25	24623
824.389	24456
824.529	24616
824.669	24604
824.809	24601
824.949	24760
825.089	24684
825.228	24741
825.368	24547
825.508	24471
825.648	24509
825.787	24464
825.927	24635
826.067	24422
826.206	24490
826.346	24570
826.485	24521
826.625	24467
826.765	24719
826.904	24433
827.044	24350
827.183	24239
827.323	24155
827.462	24194
827.601	24315
827.741	24129
827.88	24323
828.02	23996
828.159	24167
828.298	24266
828.437	24186
828.577	24171
828.716	24384
828.855	24152
828.994	23916
829.134	23878
829.273	23958
829.412	23901
829.551	23866
829.69	23809
829.829	23980
829.968	23958
830.107	23923
830.246	23786
830.385	23863
830.524	23882
830.663	23752
830.802	23649
830.941	23585
831.08	23486
831.219	23623
831.357	23581
831.496	23817
831.635	23623
831.774	23360
831.913	23406
832.051	23398
832.19	23303
832.329	23292
832.467	23200
832.606	23098
832.744	23121
832.883	23166
833.022	23136
833.16	23220
833.299	23269
833.437	23292
833.576	23330
833.714	23227
833.852	23311
833.991	23406
834.129	23337
834.267	23284
834.406	23376
834.544	23292
834.682	23227
834.821	23128
834.959	23387
835.097	23242
835.235	23379
835.373	23246
835.511	23204
835.65	23151
835.788	23136
835.926	22911
836.064	22793
836.202	23044
836.34	23086
836.478	23250
836.615	23052
836.753	23189
836.891	23250
837.029	23109
837.167	22999
837.305	23079
837.443	22919
837.58	22854
837.718	23124
837.856	23033
837.993	22923
838.131	22820
838.269	22930
838.406	22923
838.544	22854
838.681	22603
838.819	22531
838.956	22519
839.094	22424
839.231	22474
839.369	22569
839.506	22881
839.643	22618
839.781	22538
839.918	22341
840.055	22527
840.193	22341
840.33	22405
840.467	22421
840.604	22367
840.742	22596
840.879	22310
841.016	22280
841.153	22276
841.29	22523
841.427	22333
841.564	22394
841.701	22360
841.838	22318
841.975	22272
842.112	22310
842.249	22261
842.385	22276
842.522	22447
842.659	22295
842.796	22185
842.933	22112
843.069	22097
843.206	22082
843.343	22154
843.479	22139
843.616	22215
843.752	21987
843.889	21846
844.025	22074
844.162	22010
844.298	21895
844.435	21930
844.571	21869
844.708	21972
844.844	21987
844.98	22074
845.117	22040
845.253	21785
845.389	21724
845.525	21686
845.661	21793
845.798	21679
845.934	21785
846.07	21671
846.206	21614
846.342	21755
846.478	21587
846.614	21492
846.75	21344
846.886	21397
847.022	21313
847.158	21469
847.294	21469
847.429	21450
847.565	21329
847.701	21625
847.837	21150
847.972	21112
848.108	21256
848.244	21222
848.379	21005
848.515	21112
848.65	20910
848.786	21055
848.921	20876
849.057	20944
849.192	21188
849.328	21039
849.463	20914
849.598	21032
849.734	20872
849.869	20845
850.004	20800
850.14	20819
850.275	20644
850.41	20697
850.545	20678
850.68	20804
850.815	20746
850.95	20754
851.085	20902
851.22	20823
851.355	20895
851.49	20617
851.625	20727
851.76	20705
851.895	20674
852.03	20705
852.165	20826
852.299	20849
852.434	20880
852.569	20743
852.703	20689
852.838	20739
852.973	20872
853.107	20925
853.242	20750
853.376	20629
853.511	20473
853.645	20495
853.78	20629
853.914	20663
854.048	20609
854.183	20575
854.317	20739
854.451	20697
854.585	20651
854.72	20644
854.854	20663
854.988	20594
855.122	20606
855.256	20484
855.39	20568
855.524	20613
855.658	20568
855.792	20693
855.926	20655
856.06	20655
856.194	20609
856.327	20526
856.461	20480
856.595	20526
856.729	20560
856.862	20705
856.996	20701
857.13	20724
857.263	20682
857.397	20674
857.53	20518
857.664	20670
857.797	20686
857.931	20769
858.064	20598
858.197	20629
858.331	20526
858.464	20556
858.597	20507
858.731	20587
858.864	20571
858.997	20507
859.13	20484
859.263	20514
859.396	20712
859.529	20495
859.662	20488
859.795	20583
859.928	20655
860.061	20640
860.194	20758
860.327	20731
860.46	20568
860.592	20773
860.725	20800
860.858	20746
860.99	20549
861.123	20446
861.256	20560
861.388	20556
861.521	21325
861.653	20476
861.786	20366
861.918	20381
862.05	20434
862.183	20480
862.315	20526
862.447	20590
862.58	20579
862.712	20313
862.844	20278
862.976	20465
863.108	20355
863.24	20769
863.372	20157
863.504	20355
863.636	20301
863.768	20343
863.9	20328
864.032	20145
864.164	20366
864.296	20309
864.428	20465
864.559	20347
864.691	20362
864.823	20343
864.954	20480
865.086	20240
865.217	20225
865.349	20153
865.48	20149
865.612	20149
865.743	20290
865.875	20202
866.006	20176
866.137	20210
866.269	20267
866.4	20065
866.531	20103
866.662	20126
866.793	20111
866.924	20077
867.055	20206
867.186	20259
867.317	20172
867.448	20096
867.579	20115
867.71	20054
867.841	20142
867.972	20122
868.103	20206
868.233	20069
868.364	20164
868.495	20256
868.625	20339
868.756	20469
868.886	20328
869.017	20358
869.147	20533
869.278	20503
869.408	20400
869.539	20336
869.669	20423
869.799	20408
869.929	20476
870.06	20552
870.19	20762
870.32	20670
870.45	20693
870.58	20834
870.71	20979
870.84	20883
870.97	20743
871.1	20807
871.23	20914
871.36	20891
871.489	20876
871.619	21020
871.749	20967
871.879	20971
872.008	21055
872.138	21036
872.267	20883
872.397	20838
872.526	20674
872.656	20872
872.785	20906
872.915	20826
873.044	21058
873.173	20960
873.303	21081
873.432	20921
873.561	21028
873.69	21066
873.819	21066
873.948	21005
874.077	21085
874.206	20944
874.335	21032
874.464	21104
874.593	21230
874.722	21226
874.851	21150
874.979	21340
875.108	21222
875.237	21180
875.365	21165
875.494	21192
875.623	21302
875.751	21131
875.88	21340
876.008	21378
876.136	21408
876.265	21652
876.393	21751
876.521	21701
876.65	21770
876.778	21591
876.906	21633
877.034	21648
877.162	21599
877.29	21500
877.418	21526
877.546	21500
877.674	21701
877.802	21603
877.93	21603
878.058	21466
878.185	21519
878.313	21614
878.441	21500
878.568	21374
878.696	21454
878.824	21583
878.951	21694
879.079	21755
879.206	21884
879.333	21690
879.461	21618
879.588	21724
879.715	21793
879.842	21797
879.97	21705
880.097	21458
880.224	21458
880.351	21504
880.478	21374
880.605	21359
880.732	21507
880.859	21580
880.986	21507
881.112	21469
881.239	21157
881.366	21169
881.493	21074
881.619	20975
881.746	21089
881.872	21020
881.999	21024
882.125	20986
882.252	20956
882.378	20982
882.505	21230
882.631	20944
882.757	20823
882.883	20781
883.01	20743
883.136	20739
883.262	20667
883.388	20644
883.514	20845
883.64	20739
883.766	20655
883.892	20537
884.018	20598
884.143	20568
884.269	20773
884.395	20545
884.52	20339
884.646	20423
884.772	20298
884.897	20259
885.023	20427
885.148	20473
885.274	20503
885.399	20609
885.524	20362
885.65	20317
885.775	20404
885.9	20370
886.025	20545
886.15	20423
886.275	20298
886.4	20355
886.525	20256
886.65	20248
886.775	20278
886.9	20396
887.025	20476
887.149	20377
887.274	20267
887.399	20065
887.523	20161
887.648	20027
887.773	20069
887.897	20138
888.021	20248
888.146	20081
888.27	20282
888.395	20256
888.519	20294
888.643	20229
888.767	20119
888.891	20073
889.015	19986
889.139	20043
889.263	19951
889.387	19982
889.511	20126
889.635	20145
889.759	19841
889.883	19955
890.006	20024
890.13	20031
890.254	19894
890.377	19898
890.501	19704
890.624	19662
890.748	19738
890.871	19635
890.995	19483
891.118	19544
891.241	19502
891.364	19548
891.488	19712
891.611	19514
891.734	19537
891.857	19529
891.98	19525
892.103	19544
892.226	19518
892.349	19476
892.471	19270
892.594	19521
892.717	19464
892.839	19396
892.962	19430
893.085	19449
893.207	19487
893.33	19320
893.452	19396
893.575	19514
893.697	19388
893.819	19628
893.941	19601
894.064	19578
894.186	19483
894.308	19377
894.43	19556
894.552	19559
894.674	19537
894.796	19457
894.918	19506
895.04	19468
895.161	19525
895.283	19495
895.405	19392
895.526	19411
895.648	19441
895.769	19449
895.891	19495
896.012	19556
896.134	19647
896.255	19419
896.376	19483
896.498	19468
896.619	19449
896.74	19525
896.861	19499
896.982	19753
897.103	20008
897.224	19712
897.345	19643
897.466	19616
897.587	19750
897.708	19841
897.828	19780
897.949	19586
898.07	19548
898.19	19590
898.311	19734
898.431	19620
898.552	19609
898.672	19731
898.792	19757
898.913	19712
899.033	19639
899.153	19502
899.273	19422
899.393	19514
899.513	19567
899.633	19411
899.753	19388
899.873	19392
899.993	19491
900.113	19438
900.232	19331
900.352	19179
900.472	19289
900.591	19194
900.711	19316
900.83	19255
900.95	19331
901.069	19419
901.189	19145
901.308	18951
901.427	18810
901.546	18817
901.665	18779
901.784	18821
901.904	18745
902.023	18589
902.141	18426
902.26	18426
902.379	18544
902.498	18388
902.617	18342
902.735	18422
902.854	18266
902.973	18350
903.091	18072
903.21	17980
903.328	17984
903.446	17893
903.565	17923
903.683	17836
903.801	17851
903.919	17813
904.038	17729
904.156	17638
904.274	17577
904.392	17611
904.51	17589
904.627	17634
904.745	17566
904.863	17581
904.981	17349
905.098	17330
905.216	17273
905.334	17341
905.451	17250
905.569	17265
905.686	17341
905.803	17193
905.921	17048
906.038	17094
906.155	17083
906.272	17010
906.389	17045
906.506	16850
906.623	16889
906.74	16885
906.857	16786
906.974	16698
907.091	16927
907.208	16938
907.324	16858
907.441	16611
907.557	16645
907.674	16561
907.79	16577
907.907	16459
908.023	16603
908.139	16588
908.256	16504
908.372	16451
908.488	16462
908.604	16295
908.72	16223
908.836	16322
908.952	16310
909.068	16249
909.184	16348
909.3	16177
909.415	16329
909.531	16272
909.647	16071
909.762	16010
909.878	15880
909.993	16021
910.108	16010
910.224	15979
910.339	15854
910.454	15850
910.57	15698
910.685	15709
910.8	16112
910.915	15823
911.03	15800
911.145	15656
911.259	15660
911.374	15576
911.489	15572
911.604	15477
911.718	15321
911.833	15355
911.947	15313
912.062	15188
912.176	15378
912.291	15420
912.405	15397
912.519	15614
912.633	15420
912.748	15412
912.862	15325
912.976	15199
913.09	14998
913.204	15100
913.318	15135
913.431	15272
913.545	15214
913.659	15275
913.772	15104
913.886	15070
914	15039
914.113	15028
914.226	14982
914.34	15032
914.453	14838
914.566	15097
914.68	14914
914.793	14845
914.906	14701
915.019	14579
915.132	14579
915.245	14511
915.358	14617
915.47	14621
915.583	14655
915.696	14636
915.809	14708
915.921	14758
916.034	14579
916.146	14492
916.259	14469
916.371	14560
916.483	14560
916.595	14507
916.708	14446
916.82	14450
916.932	14393
917.044	14419
917.156	14267
917.268	14267
917.38	14343
917.491	14309
917.603	14294
917.715	14343
917.826	14328
917.938	14107
918.049	14103
918.161	14252
918.272	14374
918.384	14389
918.495	14180
918.606	14020
918.717	14012
918.828	14145
918.939	14153
919.05	13944
919.161	14020
919.272	13898
919.383	13852
919.494	14043
919.604	14237
919.715	14100
919.826	13967
919.936	13982
920.047	14130
920.157	13963
920.267	14145
920.378	14035
920.488	13978
920.598	14103
920.708	14206
920.818	14176
920.928	14149
921.038	14328
921.148	14164
921.258	14016
921.368	13928
921.477	13723
921.587	13693
921.697	13609
921.806	13727
921.916	13613
922.025	13491
922.134	13430
922.244	13343
922.353	13449
922.462	13247
922.571	13232
922.68	13118
922.789	13171
922.898	13034
923.007	12958
923.116	13076
923.224	13110
923.333	13103
923.442	12939
923.55	12787
923.659	12939
923.767	12890
923.876	12810
923.984	12939
924.092	12738
924.201	12859
924.309	12894
924.417	12829
924.525	12795
924.633	12722
924.741	13689
924.849	12513
924.956	12700
925.064	12544
925.172	12418
925.279	12422
925.387	12601
925.494	12467
925.602	12589
925.709	12570
925.816	12388
925.924	12422
926.031	12467
926.138	12429
926.245	12414
926.352	12380
926.459	12490
926.566	12448
926.673	12388
926.779	12292
926.886	12243
926.993	12159
927.099	12133
927.206	12095
927.312	12068
927.419	12114
927.525	12064
927.631	12125
927.737	11885
927.843	11920
927.95	11828
928.056	11935
928.162	11939
928.267	11954
928.373	12467
928.479	11942
928.585	11783
928.69	11836
928.796	11954
928.901	11805
929.007	11783
929.112	11745
929.218	11752
929.323	11649
929.428	11596
929.533	11794
929.638	11596
929.743	11577
929.848	11596
929.953	11585
930.058	11490
930.163	11383
930.267	11356
930.372	11509
930.477	11383
930.581	11524
930.685	11353
930.79	11174
930.894	11292
930.998	11250
931.103	11246
931.207	10999
931.311	10911
931.415	10850
931.519	10675
931.623	10653
