Data from test_V78500241_1910.txt Node
Date: Fri Mar 25 15:23:09 CST 2022
User: usil
Spectrometer: V785-0024
Trigger mode: 0
Integration Time (sec): 4.000000E-1
Scans to average: 1
Nonlinearity correction enabled: false
Boxcar width: 0
Storing dark spectrum: false
XAxis mode: Wavelengths
Number of Pixels in Spectrum: 1024
>>>>>Begin Spectral Data<<<<<
801.071	27393
801.214	27351
801.356	27093
801.499	27112
801.641	26979
801.783	26899
801.926	26975
802.068	27020
802.211	27020
802.353	26796
802.496	26594
802.638	26701
802.78	26625
802.923	26465
803.065	26530
803.208	26400
803.35	26655
803.492	26621
803.635	26872
803.777	26602
803.919	26640
804.061	27199
804.204	26963
804.346	26705
804.488	26678
804.63	26670
804.773	26735
804.915	26769
805.057	26925
805.199	26579
805.341	26880
805.483	26857
805.626	26857
805.768	26891
805.91	26880
806.052	26918
806.194	26815
806.336	27104
806.478	26800
806.62	26838
806.762	27028
806.904	27123
807.046	27222
807.188	27237
807.33	27393
807.472	27275
807.614	27370
807.756	27211
807.898	27119
808.04	27150
808.182	27081
808.324	27119
808.465	27294
808.607	27226
808.749	27420
808.891	27561
809.033	27717
809.174	27507
809.316	27443
809.458	27427
809.6	27469
809.741	27610
809.883	27496
810.025	27762
810.166	27884
810.308	27785
810.45	27808
810.591	27648
810.733	27549
810.875	27538
811.016	27408
811.158	27321
811.299	27576
811.441	27504
811.582	27812
811.724	27382
811.865	27306
812.007	27477
812.148	27427
812.29	27576
812.431	27648
812.573	27736
812.714	27842
812.855	27972
812.997	28097
813.138	28249
813.279	28124
813.421	27991
813.562	27876
813.703	27766
813.845	27656
813.986	27454
814.127	27336
814.268	27161
814.41	27317
814.551	27161
814.692	27138
814.833	26929
814.974	27009
815.115	27154
815.256	27089
815.397	26910
815.539	27089
815.68	26864
815.821	26849
815.962	26998
816.103	26849
816.244	26842
816.385	26686
816.526	26659
816.666	26453
816.807	26343
816.948	26374
817.089	26602
817.23	26537
817.371	26355
817.512	26343
817.653	26408
817.793	26278
817.934	26438
818.075	26469
818.216	26492
818.356	26244
818.497	26229
818.638	26233
818.778	26240
818.919	26122
819.06	26161
819.2	26347
819.341	26377
819.481	26499
819.622	26457
819.762	26678
819.903	26613
820.043	26549
820.184	26438
820.324	26446
820.465	26613
820.605	26579
820.746	26617
820.886	26362
821.026	26362
821.167	26522
821.307	26480
821.447	26370
821.588	26206
821.728	26195
821.868	26084
822.008	25860
822.149	25936
822.289	25936
822.429	25594
822.569	25582
822.709	25544
822.849	25407
822.99	25441
823.13	25457
823.27	25415
823.41	25232
823.55	25126
823.69	25190
823.83	25255
823.97	25274
824.11	25031
824.25	24981
824.389	25046
824.529	25107
824.669	25069
824.809	25069
824.949	25046
825.089	25046
825.228	25107
825.368	24867
825.508	24920
825.648	25023
825.787	24939
825.927	24928
826.067	24722
826.206	24810
826.346	24875
826.485	24977
826.625	24890
826.765	24932
826.904	24973
827.044	24734
827.183	24612
827.323	24593
827.462	24479
827.601	24593
827.741	24707
827.88	24585
828.02	24544
828.159	24540
828.298	24665
828.437	24757
828.577	24559
828.716	24620
828.855	24616
828.994	24429
829.134	24372
829.273	24338
829.412	24365
829.551	24426
829.69	24376
829.829	24357
829.968	24315
830.107	24437
830.246	24273
830.385	24388
830.524	24270
830.663	24273
830.802	24060
830.941	23939
831.08	23996
831.219	23980
831.357	24038
831.496	24068
831.635	23965
831.774	23863
831.913	23863
832.051	23733
832.19	23707
832.329	23661
832.467	23627
832.606	23524
832.744	23543
832.883	23524
833.022	23707
833.16	23752
833.299	23783
833.437	23589
833.576	23668
833.714	23649
833.852	23710
833.991	23634
834.129	23726
834.267	23748
834.406	23668
834.544	23729
834.682	23615
834.821	23779
834.959	23718
835.097	23646
835.235	23741
835.373	23615
835.511	23638
835.65	23524
835.788	23505
835.926	23368
836.064	23284
836.202	23490
836.34	23467
836.478	23600
836.615	23433
836.753	23604
836.891	23589
837.029	23516
837.167	23497
837.305	23535
837.443	23391
837.58	23254
837.718	23414
837.856	23395
837.993	23296
838.131	23368
838.269	23178
838.406	23337
838.544	23083
838.681	22965
838.819	22953
838.956	22850
839.094	22877
839.231	22740
839.369	23128
839.506	23216
839.643	23022
839.781	22858
839.918	22771
840.055	22786
840.193	22934
840.33	22736
840.467	22740
840.604	22744
840.742	23022
840.879	22554
841.016	22649
841.153	22725
841.29	22854
841.427	22691
841.564	22782
841.701	22866
841.838	22733
841.975	22607
842.112	22713
842.249	22603
842.385	22546
842.522	22691
842.659	22447
842.796	22641
842.933	22546
843.069	22500
843.206	22527
843.343	22653
843.479	22542
843.616	22481
843.752	22215
843.889	22276
844.025	22386
844.162	22299
844.298	22478
844.435	22371
844.571	22276
844.708	22314
844.844	22417
844.98	22386
845.117	22478
845.253	22219
845.389	22219
845.525	22238
845.661	22238
845.798	22090
845.934	22177
846.07	21964
846.206	22105
846.342	22105
846.478	21945
846.614	21781
846.75	21812
846.886	21876
847.022	21918
847.158	21953
847.294	21831
847.429	21770
847.565	21720
847.701	22070
847.837	21542
847.972	21561
848.108	21511
848.244	21504
848.379	21382
848.515	21351
848.65	21439
848.786	21355
848.921	21466
849.057	21511
849.192	21351
849.328	21355
849.463	21374
849.598	21302
849.734	21306
849.869	21260
850.004	21180
850.14	21085
850.275	21165
850.41	21055
850.545	21214
850.68	21176
850.815	21283
850.95	21188
851.085	21252
851.22	21325
851.355	21146
851.49	21093
851.625	21165
851.76	21036
851.895	20982
852.03	21077
852.165	21077
852.299	21116
852.434	21245
852.569	21233
852.703	21131
852.838	21249
852.973	21157
853.107	21222
853.242	21036
853.376	20971
853.511	20944
853.645	20933
853.78	21127
853.914	21047
854.048	20796
854.183	20956
854.317	20921
854.451	21218
854.585	20944
854.72	21066
854.854	21013
854.988	20876
855.122	20906
855.256	20773
855.39	20895
855.524	21036
855.658	21028
855.792	21024
855.926	20960
856.06	20975
856.194	20967
856.327	20925
856.461	20906
856.595	20895
856.729	20986
856.862	21131
856.996	21119
857.13	20937
857.263	21070
857.397	21036
857.53	20853
857.664	21024
857.797	20963
857.931	21039
858.064	20925
858.197	20994
858.331	20883
858.464	20777
858.597	20876
858.731	20754
858.864	20944
858.997	21039
859.13	20902
859.263	21142
859.396	20982
859.529	20899
859.662	20906
859.795	20895
859.928	20948
860.061	21058
860.194	21039
860.327	21020
860.46	21017
860.592	21093
860.725	21138
860.858	21058
860.99	20963
861.123	20876
861.256	20887
861.388	20872
861.521	21618
861.653	20864
861.786	20682
861.918	20800
862.05	20811
862.183	20868
862.315	20956
862.447	20914
862.58	20842
862.712	20773
862.844	20575
862.976	20743
863.108	20781
863.24	21047
863.372	20644
863.504	20731
863.636	20720
863.768	20712
863.9	20708
864.032	20693
864.164	20549
864.296	20689
864.428	20701
864.559	20735
864.691	20883
864.823	20678
864.954	20571
865.086	20746
865.217	20606
865.349	20484
865.48	20613
865.612	20579
865.743	20701
865.875	20541
866.006	20522
866.137	20575
866.269	20606
866.4	20537
866.531	20533
866.662	20606
866.793	20442
866.924	20518
867.055	20461
867.186	20514
867.317	20522
867.448	20385
867.579	20469
867.71	20396
867.841	20362
867.972	20473
868.103	20454
868.233	20499
868.364	20473
868.495	20545
868.625	20670
868.756	20731
868.886	20697
869.017	20804
869.147	20864
869.278	20880
869.408	20727
869.539	20804
869.669	20762
869.799	20921
869.929	20807
870.06	20857
870.19	21043
870.32	21024
870.45	20990
870.58	21108
870.71	21161
870.84	21294
870.97	21207
871.1	21180
871.23	21386
871.36	21306
871.489	21176
871.619	21340
871.749	21344
871.879	21359
872.008	21363
872.138	21454
872.267	21389
872.397	21195
872.526	21272
872.656	21100
872.785	21165
872.915	21382
873.044	21310
873.173	21473
873.303	21420
873.432	21561
873.561	21511
873.69	21367
873.819	21283
873.948	21420
874.077	21424
874.206	21313
874.335	21351
874.464	21477
874.593	21686
874.722	21485
874.851	21694
874.979	21656
875.108	21679
875.237	21492
875.365	21507
875.494	21603
875.623	21694
875.751	21553
875.88	21618
876.008	21766
876.136	21911
876.265	22063
876.393	22154
876.521	22025
876.65	22109
876.778	21987
876.906	22002
877.034	21949
877.162	22013
877.29	21907
877.418	21953
877.546	21915
877.674	21888
877.802	21892
877.93	21876
878.058	21892
878.185	21937
878.313	21949
878.441	21865
878.568	21759
878.696	21915
878.824	21964
878.951	21956
879.079	22116
879.206	22265
879.333	22097
879.461	22051
879.588	22097
879.715	22078
879.842	22253
879.97	21975
880.097	21759
880.224	21778
880.351	21793
880.478	21759
880.605	21682
880.732	21755
880.859	21937
880.986	21797
881.112	21781
881.239	21660
881.366	21583
881.493	21580
881.619	21382
881.746	21317
881.872	21393
881.999	21340
882.125	21222
882.252	21458
882.378	21389
882.505	21519
882.631	21112
882.757	21127
882.883	21211
883.01	21093
883.136	20853
883.262	21001
883.388	20864
883.514	21127
883.64	20994
883.766	20979
883.892	20800
884.018	20891
884.143	20948
884.269	21100
884.395	20864
884.52	20750
884.646	20636
884.772	20613
884.897	20587
885.023	20678
885.148	20682
885.274	20857
885.399	20727
885.524	20724
885.65	20686
885.775	20739
885.9	20651
886.025	20800
886.15	20670
886.275	20720
886.4	20716
886.525	20727
886.65	20587
886.775	20609
886.9	20792
887.025	20979
887.149	20655
887.274	20511
887.399	20476
887.523	20469
887.648	20377
887.773	20381
887.897	20667
888.021	20461
888.146	20530
888.27	20590
888.395	20549
888.519	20469
888.643	20457
888.767	20564
888.891	20286
889.015	20400
889.139	20248
889.263	20324
889.387	20385
889.511	20404
889.635	20362
889.759	20240
889.883	20278
890.006	20202
890.13	20347
890.254	20317
890.377	20202
890.501	19986
890.624	20069
890.748	19989
890.871	19959
890.995	19799
891.118	19818
891.241	19917
891.364	19890
891.488	19928
891.611	19955
891.734	19909
891.857	20024
891.98	19742
892.103	19791
892.226	19860
892.349	19765
892.471	19620
892.594	19833
892.717	19879
892.839	19674
892.962	19750
893.085	19757
893.207	19731
893.33	19662
893.452	19658
893.575	19826
893.697	19715
893.819	19837
893.941	20027
894.064	19879
894.186	19620
894.308	19765
894.43	19974
894.552	19951
894.674	19871
894.796	19601
894.918	19826
895.04	19788
895.161	19898
895.283	19818
895.405	19666
895.526	19822
895.648	19643
895.769	19723
895.891	19677
896.012	19811
896.134	19826
896.255	19639
896.376	19795
896.498	19715
896.619	19811
896.74	19830
896.861	19978
896.982	20115
897.103	20180
897.224	20027
897.345	20008
897.466	19944
897.587	19936
897.708	20130
897.828	20005
897.949	19970
898.07	19860
898.19	19906
898.311	20039
898.431	19986
898.552	19967
898.672	20043
898.792	19974
898.913	20008
899.033	19890
899.153	19852
899.273	19647
899.393	19776
899.513	19811
899.633	19746
899.753	19753
899.873	19696
899.993	19803
900.113	19727
900.232	19738
900.352	19670
900.472	19529
900.591	19540
900.711	19575
900.83	19457
900.95	19601
901.069	19624
901.189	19434
901.308	19137
901.427	19084
901.546	19145
901.665	19133
901.784	19129
901.904	18985
902.023	18913
902.141	18700
902.26	18631
902.379	18688
902.498	18639
902.617	18559
902.735	18661
902.854	18646
902.973	18494
903.091	18338
903.21	18372
903.328	18372
903.446	18266
903.565	18213
903.683	18072
903.801	17912
903.919	18091
904.038	18087
904.156	17923
904.274	17935
904.392	17916
904.51	17969
904.627	17764
904.745	17889
904.863	17897
904.981	17718
905.098	17429
905.216	17638
905.334	17520
905.451	17547
905.569	17528
905.686	17493
905.803	17497
905.921	17258
906.038	17490
906.155	17463
906.272	17239
906.389	17311
906.506	17136
906.623	17166
906.74	17239
906.857	17067
906.974	16999
907.091	17178
907.208	17223
907.324	17071
907.441	17083
907.557	16771
907.674	16790
907.79	16774
907.907	16801
908.023	16774
908.139	16816
908.256	16733
908.372	16774
908.488	16733
908.604	16523
908.72	16558
908.836	16596
908.952	16569
909.068	16596
909.184	16599
909.3	16550
909.415	16554
909.531	16569
909.647	16280
909.762	16188
909.878	16333
909.993	16318
910.108	16249
910.224	16166
910.339	16268
910.454	16135
910.57	16078
910.685	16010
910.8	16295
910.915	16188
911.03	16036
911.145	15720
911.259	15797
911.374	15880
911.489	15762
911.604	15694
911.718	15561
911.833	15686
911.947	15523
912.062	15507
912.176	15454
912.291	15549
912.405	15622
912.519	15713
912.633	15720
912.748	15675
912.862	15534
912.976	15435
913.09	15291
913.204	15389
913.318	15428
913.431	15439
913.545	15412
913.659	15500
913.772	15386
913.886	15173
914	15222
914.113	15230
914.226	15344
914.34	15329
914.453	15127
914.566	15241
914.68	15089
914.793	14998
914.906	14956
915.019	14826
915.132	14773
915.245	14861
915.358	14872
915.47	14785
915.583	14838
915.696	14849
915.809	14899
915.921	14929
916.034	14727
916.146	14796
916.259	14777
916.371	14804
916.483	14701
916.595	14693
916.708	14746
916.82	14587
916.932	14674
917.044	14571
917.156	14560
917.268	14518
917.38	14564
917.491	14438
917.603	14465
917.715	14613
917.826	14549
917.938	14415
918.049	14396
918.161	14370
918.272	14590
918.384	14560
918.495	14465
918.606	14256
918.717	14191
918.828	14263
918.939	14339
919.05	14138
919.161	14229
919.272	13967
919.383	14058
919.494	14347
919.604	14400
919.715	14275
919.826	14183
919.936	14225
920.047	14282
920.157	14187
920.267	14309
920.378	14221
920.488	14210
920.598	14374
920.708	14450
920.818	14286
920.928	14309
921.038	14492
921.148	14423
921.258	14210
921.368	14119
921.477	13989
921.587	14005
921.697	13887
921.806	14020
921.916	13860
922.025	13616
922.134	13552
922.244	13567
922.353	13605
922.462	13453
922.571	13438
922.68	13312
922.789	13293
922.898	13247
923.007	13202
923.116	13274
923.224	13217
923.333	13175
923.442	13118
923.55	13038
923.659	13008
923.767	13118
923.876	13080
923.984	13107
924.092	12947
924.201	13046
924.309	13053
924.417	12958
924.525	12970
924.633	12939
924.741	13757
924.849	12741
924.956	12848
925.064	12719
925.172	12681
925.279	12688
925.387	12654
925.494	12700
925.602	12840
925.709	12749
925.816	12612
925.924	12642
926.031	12745
926.138	12627
926.245	12711
926.352	12563
926.459	12669
926.566	12745
926.673	12574
926.779	12498
926.886	12521
926.993	12308
927.099	12315
927.206	12220
927.312	12247
927.419	12304
927.525	12281
927.631	12323
927.737	12133
927.843	12098
927.95	12022
928.056	12076
928.162	12152
928.267	12133
928.373	12684
928.479	12182
928.585	11942
928.69	11999
928.796	12076
928.901	11920
929.007	11760
929.112	11946
929.218	11961
929.323	11885
929.428	11851
929.533	11950
929.638	11707
929.743	11760
929.848	11920
929.953	11718
930.058	11642
930.163	11577
930.267	11520
930.372	11615
930.477	11402
930.581	11760
930.685	11486
930.79	11410
930.894	11395
930.998	11433
931.103	11501
931.207	11132
931.311	11022
931.415	11045
931.519	10839
931.623	10877
