Data from test_V78500241_872.txt Node
Date: Fri Mar 25 15:15:55 CST 2022
User: usil
Spectrometer: V785-0024
Trigger mode: 0
Integration Time (sec): 4.000000E-1
Scans to average: 1
Nonlinearity correction enabled: false
Boxcar width: 0
Storing dark spectrum: false
XAxis mode: Wavelengths
Number of Pixels in Spectrum: 1024
>>>>>Begin Spectral Data<<<<<
801.071	28067
801.214	28147
801.356	27876
801.499	27922
801.641	27766
801.783	27644
801.926	27701
802.068	27701
802.211	27622
802.353	27595
802.496	27405
802.638	27313
802.78	27427
802.923	27367
803.065	27203
803.208	27370
803.35	27386
803.492	27405
803.635	27523
803.777	27504
803.919	27614
804.061	27770
804.204	27660
804.346	27458
804.488	27542
804.63	27443
804.773	27549
804.915	27701
805.057	27766
805.199	27656
805.341	27568
805.483	27679
805.626	27759
805.768	27671
805.91	27694
806.052	27736
806.194	27644
806.336	27979
806.478	27774
806.62	27934
806.762	27857
806.904	28010
807.046	28356
807.188	28226
807.33	28021
807.472	28181
807.614	28097
807.756	28188
807.898	28048
808.04	27876
808.182	27880
808.324	28097
808.465	28036
808.607	28253
808.749	28398
808.891	28424
809.033	28462
809.174	28405
809.316	28432
809.458	28466
809.6	28356
809.741	28379
809.883	28569
810.025	28740
810.166	28592
810.308	28664
810.45	28588
810.591	28580
810.733	28398
810.875	28481
811.016	28333
811.158	28242
811.299	28512
811.441	28607
811.582	28508
811.724	28226
811.865	28287
812.007	28462
812.148	28459
812.29	28398
812.431	28497
812.573	28736
812.714	28721
812.855	29033
812.997	29037
813.138	29231
813.279	29018
813.421	28980
813.562	28942
813.703	28790
813.845	28679
813.986	28417
814.127	28086
814.268	28143
814.41	28158
814.551	28070
814.692	28131
814.833	28074
814.974	28196
815.115	28177
815.256	27907
815.397	27922
815.539	27949
815.68	27892
815.821	27762
815.962	28006
816.103	27918
816.244	27819
816.385	27625
816.526	27713
816.666	27660
816.807	27291
816.948	27427
817.089	27622
817.23	27397
817.371	27427
817.512	27397
817.653	27492
817.793	27310
817.934	27450
818.075	27534
818.216	27466
818.356	27355
818.497	27272
818.638	27127
818.778	27146
818.919	27256
819.06	27237
819.2	27252
819.341	27389
819.481	27332
819.622	27564
819.762	27781
819.903	27694
820.043	27583
820.184	27515
820.324	27618
820.465	27568
820.605	27561
820.746	27591
820.886	27450
821.026	27466
821.167	27427
821.307	27545
821.447	27519
821.588	27439
821.728	27237
821.868	27116
822.008	26895
822.149	26864
822.289	26933
822.429	26743
822.569	26556
822.709	26514
822.849	26453
822.99	26389
823.13	26431
823.27	26537
823.41	26199
823.55	26024
823.69	26225
823.83	26237
823.97	26240
824.11	26062
824.25	26039
824.389	26005
824.529	26202
824.669	26027
824.809	26142
824.949	26149
825.089	26240
825.228	26142
825.368	25966
825.508	25902
825.648	26039
825.787	25986
825.927	26081
826.067	25917
826.206	25951
826.346	26039
826.485	25993
826.625	25978
826.765	25955
826.904	25906
827.044	25791
827.183	25677
827.323	25674
827.462	25670
827.601	25655
827.741	25594
827.88	25708
828.02	25419
828.159	25731
828.298	25723
828.437	25666
828.577	25582
828.716	25750
828.855	25601
828.994	25419
829.134	25358
829.273	25453
829.412	25293
829.551	25263
829.69	25335
829.829	25240
829.968	25495
830.107	25483
830.246	25388
830.385	25411
830.524	25141
830.663	25179
830.802	25034
830.941	24837
831.08	24935
831.219	25107
831.357	24935
831.496	25198
831.635	24947
831.774	24882
831.913	24817
832.051	24700
832.19	24821
832.329	24760
832.467	24631
832.606	24654
832.744	24684
832.883	24585
833.022	24456
833.16	24639
833.299	24665
833.437	24627
833.576	24707
833.714	24806
833.852	24821
833.991	24776
834.129	24852
834.267	24859
834.406	24741
834.544	24715
834.682	24658
834.821	24745
834.959	24928
835.097	24661
835.235	24589
835.373	24726
835.511	24677
835.65	24513
835.788	24578
835.926	24521
836.064	24391
836.202	24304
836.34	24513
836.478	24620
836.615	24532
836.753	24540
836.891	24593
837.029	24544
837.167	24498
837.305	24433
837.443	24418
837.58	24330
837.718	24509
837.856	24479
837.993	24399
838.131	24285
838.269	24247
838.406	24171
838.544	24163
838.681	23980
838.819	24030
838.956	23836
839.094	23878
839.231	23931
839.369	23901
839.506	24304
839.643	23988
839.781	23923
839.918	23748
840.055	23889
840.193	23786
840.33	23710
840.467	23775
840.604	23882
840.742	23977
840.879	23516
841.016	23687
841.153	23512
841.29	23786
841.427	23668
841.564	23764
841.701	23741
841.838	23786
841.975	23707
842.112	23573
842.249	23490
842.385	23444
842.522	23737
842.659	23615
842.796	23379
842.933	23638
843.069	23505
843.206	23444
843.343	23611
843.479	23547
843.616	23604
843.752	23292
843.889	23318
844.025	23311
844.162	23269
844.298	23417
844.435	23197
844.571	23258
844.708	23360
844.844	23334
844.98	23440
845.117	23334
845.253	23242
845.389	23037
845.525	23083
845.661	23200
845.798	23044
845.934	23006
846.07	23052
846.206	23094
846.342	23044
846.478	23022
846.614	22847
846.75	22809
846.886	22744
847.022	22831
847.158	22733
847.294	22828
847.429	22717
847.565	22736
847.701	22862
847.837	22474
847.972	22493
848.108	22512
848.244	22497
848.379	22409
848.515	22291
848.65	22295
848.786	22276
848.921	22455
849.057	22500
849.192	22462
849.328	22398
849.463	22402
849.598	22246
849.734	22272
849.869	22055
850.004	22185
850.14	22101
850.275	22158
850.41	22044
850.545	22036
850.68	22131
850.815	22074
850.95	22063
851.085	22322
851.22	22109
851.355	22219
851.49	22044
851.625	22116
851.76	22044
851.895	22017
852.03	22021
852.165	22051
852.299	22303
852.434	22181
852.569	22074
852.703	22059
852.838	22154
852.973	22215
853.107	22200
853.242	22139
853.376	21880
853.511	21861
853.645	21876
853.78	22017
853.914	21983
854.048	21888
854.183	21759
854.317	21915
854.451	22139
854.585	21918
854.72	21979
854.854	22010
854.988	21888
855.122	22040
855.256	21922
855.39	21880
855.524	21941
855.658	21850
855.792	21907
855.926	21873
856.06	21922
856.194	22048
856.327	21831
856.461	21930
856.595	21838
856.729	22032
856.862	22131
856.996	21865
857.13	21899
857.263	21979
857.397	21975
857.53	21892
857.664	21987
857.797	22051
857.931	22029
858.064	21983
858.197	21930
858.331	21884
858.464	21876
858.597	21770
858.731	21804
858.864	21804
858.997	21960
859.13	21941
859.263	21926
859.396	21953
859.529	21865
859.662	21865
859.795	21915
859.928	21960
860.061	21998
860.194	22112
860.327	21937
860.46	21861
860.592	22051
860.725	22044
860.858	22070
860.99	21964
861.123	21899
861.256	21812
861.388	22010
861.521	22656
861.653	21846
861.786	21747
861.918	21755
862.05	21903
862.183	21869
862.315	21781
862.447	21930
862.58	21846
862.712	21572
862.844	21644
862.976	21686
863.108	21793
863.24	22093
863.372	21583
863.504	21587
863.636	21504
863.768	21667
863.9	21629
864.032	21618
864.164	21599
864.296	21648
864.428	21766
864.559	21720
864.691	21686
864.823	21603
864.954	21454
865.086	21660
865.217	21466
865.349	21500
865.48	21545
865.612	21561
865.743	21622
865.875	21515
866.006	21359
866.137	21466
866.269	21466
866.4	21462
866.531	21435
866.662	21428
866.793	21523
866.924	21519
867.055	21481
867.186	21538
867.317	21393
867.448	21351
867.579	21519
867.71	21439
867.841	21306
867.972	21416
868.103	21313
868.233	21477
868.364	21336
868.495	21591
868.625	21671
868.756	21880
868.886	21614
869.017	21690
869.147	21808
869.278	21717
869.408	21686
869.539	21644
869.669	21717
869.799	21808
869.929	21755
870.06	21732
870.19	21956
870.32	21880
870.45	21975
870.58	22086
870.71	22128
870.84	22169
870.97	22036
871.1	22093
871.23	22234
871.36	22253
871.489	22200
871.619	22329
871.749	22169
871.879	22192
872.008	22348
872.138	22147
872.267	22215
872.397	22128
872.526	22112
872.656	22120
872.785	22116
872.915	22242
873.044	22356
873.173	22284
873.303	22542
873.432	22230
873.561	22356
873.69	22329
873.819	22310
873.948	22341
874.077	22356
874.206	22223
874.335	22363
874.464	22360
874.593	22645
874.722	22527
874.851	22607
874.979	22523
875.108	22478
875.237	22485
875.365	22272
875.494	22459
875.623	22561
875.751	22466
875.88	22561
876.008	22618
876.136	22725
876.265	22984
876.393	22858
876.521	22946
876.65	22896
876.778	22873
876.906	22835
877.034	22881
877.162	22831
877.29	22710
877.418	22835
877.546	22911
877.674	22877
877.802	22915
877.93	22828
878.058	22687
878.185	22736
878.313	22786
878.441	22744
878.568	22725
878.696	22812
878.824	22820
878.951	22923
879.079	22953
879.206	23113
879.333	22953
879.461	22805
879.588	22949
879.715	22961
879.842	23128
879.97	22885
880.097	22683
880.224	22767
880.351	22721
880.478	22596
880.605	22607
880.732	22554
880.859	22972
880.986	22683
881.112	22698
881.239	22497
881.366	22371
881.493	22409
881.619	22325
881.746	22196
881.872	22192
881.999	22215
882.125	22246
882.252	22265
882.378	22196
882.505	22188
882.631	22090
882.757	21873
882.883	21926
883.01	21899
883.136	21903
883.262	21759
883.388	21637
883.514	21895
883.64	21922
883.766	21869
883.892	21652
884.018	21698
884.143	21861
884.269	21831
884.395	21660
884.52	21633
884.646	21504
884.772	21542
884.897	21393
885.023	21568
885.148	21564
885.274	21755
885.399	21656
885.524	21526
885.65	21648
885.775	21519
885.9	21549
886.025	21739
886.15	21610
886.275	21523
886.4	21428
886.525	21488
886.65	21431
886.775	21488
886.9	21637
887.025	21705
887.149	21549
887.274	21359
887.399	21275
887.523	21477
887.648	21211
887.773	21184
887.897	21397
888.021	21332
888.146	21173
888.27	21382
888.395	21363
888.519	21340
888.643	21382
888.767	21351
888.891	21287
889.015	21070
889.139	21214
889.263	21176
889.387	21222
889.511	21279
889.635	21272
889.759	21051
889.883	21081
890.006	21146
890.13	21180
890.254	21142
890.377	21096
890.501	20948
890.624	20796
890.748	20796
890.871	20701
890.995	20648
891.118	20674
891.241	20686
891.364	20781
891.488	20807
891.611	20724
891.734	20617
891.857	20636
891.98	20594
892.103	20731
892.226	20629
892.349	20689
892.471	20613
892.594	20621
892.717	20659
892.839	20606
892.962	20636
893.085	20636
893.207	20640
893.33	20400
893.452	20533
893.575	20560
893.697	20507
893.819	20678
893.941	20906
894.064	20743
894.186	20545
894.308	20587
894.43	20663
894.552	20655
894.674	20659
894.796	20469
894.918	20571
895.04	20613
895.161	20686
895.283	20689
895.405	20461
895.526	20602
895.648	20488
895.769	20583
895.891	20499
896.012	20743
896.134	20651
896.255	20568
896.376	20419
896.498	20568
896.619	20716
896.74	20583
896.861	20541
896.982	20876
897.103	21032
897.224	20853
897.345	20830
897.466	20762
897.587	20754
897.708	20948
897.828	20785
897.949	20727
898.07	20602
898.19	20758
898.311	20861
898.431	20651
898.552	20796
898.672	20819
898.792	20902
898.913	20830
899.033	20655
899.153	20659
899.273	20484
899.393	20434
899.513	20636
899.633	20514
899.753	20560
899.873	20526
899.993	20514
900.113	20488
900.232	20575
900.352	20351
900.472	20317
900.591	20240
900.711	20271
900.83	20161
900.95	20385
901.069	20389
901.189	20328
901.308	19944
901.427	19879
901.546	19894
901.665	19852
901.784	19856
901.904	19708
902.023	19746
902.141	19392
902.26	19438
902.379	19502
902.498	19308
902.617	19335
902.735	19331
902.854	19396
902.973	19324
903.091	18939
903.21	19050
903.328	19046
903.446	19126
903.565	18661
903.683	18916
903.801	18810
903.919	18844
904.038	18783
904.156	18688
904.274	18757
904.392	18673
904.51	18749
904.627	18563
904.745	18654
904.863	18608
904.981	18403
905.098	18296
905.216	18338
905.334	18376
905.451	18365
905.569	18152
905.686	18369
905.803	18308
905.921	18079
906.038	18182
906.155	18152
906.272	17969
906.389	17931
906.506	17885
906.623	17824
906.74	17843
906.857	17764
906.974	17665
907.091	17939
907.208	17946
907.324	17767
907.441	17680
907.557	17535
907.674	17532
907.79	17444
907.907	17368
908.023	17467
908.139	17528
908.256	17619
908.372	17459
908.488	17452
908.604	17288
908.72	17258
908.836	17200
908.952	17193
909.068	17212
909.184	17356
909.3	17178
909.415	17307
909.531	17235
909.647	16923
909.762	16987
909.878	16957
909.993	16972
910.108	16953
910.224	16869
910.339	16881
910.454	16793
910.57	16782
910.685	16767
910.8	16953
910.915	16915
911.03	16889
911.145	16607
911.259	16542
911.374	16546
911.489	16432
911.604	16421
911.718	16230
911.833	16261
911.947	16188
912.062	16086
912.176	16166
912.291	16276
912.405	16238
912.519	16432
912.633	16516
912.748	16310
912.862	16310
912.976	16169
913.09	16021
913.204	16059
913.318	16139
913.431	16162
913.545	16211
913.659	16143
913.772	16074
913.886	15915
914	15915
914.113	16029
914.226	15991
914.34	15888
914.453	15762
914.566	15903
914.68	15793
914.793	15880
914.906	15584
915.019	15458
915.132	15393
915.245	15587
915.358	15496
915.47	15545
915.583	15507
915.696	15542
915.809	15572
915.921	15591
916.034	15405
916.146	15291
916.259	15355
916.371	15447
916.483	15424
916.595	15370
916.708	15306
916.82	15226
916.932	15249
917.044	15268
917.156	15268
917.268	15157
917.38	15245
917.491	15013
917.603	15154
917.715	15157
917.826	15214
917.938	14979
918.049	14998
918.161	15089
918.272	15199
918.384	15070
918.495	15112
918.606	15024
918.717	14849
918.828	14891
918.939	14929
919.05	14804
919.161	14834
919.272	14640
919.383	14708
919.494	14880
919.604	15043
919.715	14864
919.826	14792
919.936	14773
920.047	14887
920.157	14861
920.267	15066
920.378	14872
920.488	14773
920.598	14933
920.708	15093
920.818	14952
920.928	15001
921.038	15150
921.148	15089
921.258	14765
921.368	14693
921.477	14511
921.587	14632
921.697	14488
921.806	14575
921.916	14377
922.025	14229
922.134	14225
922.244	14134
922.353	14233
922.462	14069
922.571	14054
922.68	13833
922.789	13826
922.898	13940
923.007	13780
923.116	13841
923.224	13818
923.333	13879
923.442	13727
923.55	13632
923.659	13681
923.767	13784
923.876	13559
923.984	13597
924.092	13521
924.201	13651
924.309	13594
924.417	13662
924.525	13510
924.633	13487
924.741	14233
924.849	13278
924.956	13521
925.064	13354
925.172	13209
925.279	13263
925.387	13259
925.494	13259
925.602	13419
925.709	13240
925.816	13160
925.924	13175
926.031	13316
926.138	13156
926.245	13114
926.352	13126
926.459	13141
926.566	13369
926.673	13065
926.779	13012
926.886	13015
926.993	12829
927.099	12719
927.206	12711
927.312	12730
927.419	12886
927.525	12726
927.631	12715
927.737	12593
927.843	12540
927.95	12502
928.056	12662
928.162	12620
928.267	12821
928.373	13141
928.479	12684
928.585	12418
928.69	12540
928.796	12578
928.901	12502
929.007	12391
929.112	12490
929.218	12494
929.323	12334
929.428	12239
929.533	12513
929.638	12205
929.743	12239
929.848	12334
929.953	12247
930.058	12148
930.163	11908
930.267	12057
930.372	12228
930.477	11988
930.581	12178
930.685	12068
930.79	11901
930.894	11946
930.998	11840
931.103	11950
931.207	11691
931.311	11551
931.415	11543
931.519	11269
931.623	11311
