Data from test_V78500241_665.txt Node
Date: Fri Mar 25 15:14:29 CST 2022
User: usil
Spectrometer: V785-0024
Trigger mode: 0
Integration Time (sec): 4.000000E-1
Scans to average: 1
Nonlinearity correction enabled: false
Boxcar width: 0
Storing dark spectrum: false
XAxis mode: Wavelengths
Number of Pixels in Spectrum: 1024
>>>>>Begin Spectral Data<<<<<
801.071	27743
801.214	27914
801.356	27416
801.499	27557
801.641	27367
801.783	27420
801.926	27450
802.068	27313
802.211	27283
802.353	27222
802.496	27165
802.638	27116
802.78	27180
802.923	27058
803.065	26960
803.208	27058
803.35	27184
803.492	27226
803.635	27051
803.777	27009
803.919	27146
804.061	27416
804.204	27317
804.346	27146
804.488	27146
804.63	27131
804.773	27081
804.915	27294
805.057	27340
805.199	27275
805.341	27279
805.483	27496
805.626	27427
805.768	27249
805.91	27294
806.052	27321
806.194	27325
806.336	27500
806.478	27427
806.62	27306
806.762	27431
806.904	27523
807.046	27918
807.188	27800
807.33	27743
807.472	27797
807.614	27850
807.756	27751
807.898	27614
808.04	27515
808.182	27701
808.324	27694
808.465	27622
808.607	27884
808.749	27975
808.891	27994
809.033	28040
809.174	27960
809.316	28074
809.458	28021
809.6	28032
809.741	28188
809.883	28303
810.025	28284
810.166	28379
810.308	28318
810.45	28249
810.591	28204
810.733	27930
810.875	27998
811.016	27903
811.158	27979
811.299	28139
811.441	28337
811.582	28188
811.724	27968
811.865	27994
812.007	27968
812.148	27873
812.29	28090
812.431	28223
812.573	28341
812.714	28554
812.855	28588
812.997	28706
813.138	28911
813.279	28702
813.421	28538
813.562	28561
813.703	28527
813.845	28344
813.986	27991
814.127	27899
814.268	27694
814.41	27762
814.551	27724
814.692	27785
814.833	27751
814.974	27755
815.115	27759
815.256	27644
815.397	27690
815.539	27576
815.68	27534
815.821	27397
815.962	27507
816.103	27507
816.244	27420
816.385	27317
816.526	27321
816.666	27173
816.807	26838
816.948	27112
817.089	27161
817.23	26967
817.371	27104
817.512	26979
817.653	27100
817.793	26967
817.934	26937
818.075	26921
818.216	27017
818.356	27017
818.497	26990
818.638	26792
818.778	26838
818.919	26705
819.06	26830
819.2	26853
819.341	27138
819.481	27127
819.622	27211
819.762	27340
819.903	27321
820.043	27287
820.184	27138
820.324	27135
820.465	27112
820.605	27195
820.746	27127
820.886	26940
821.026	27180
821.167	26982
821.307	27074
821.447	27100
821.588	26880
821.728	26815
821.868	26678
822.008	26457
822.149	26507
822.289	26370
822.429	26237
822.569	26134
822.709	26145
822.849	25966
822.99	25993
823.13	25940
823.27	25909
823.41	25868
823.55	25715
823.69	25890
823.83	25753
823.97	25753
824.11	25643
824.25	25518
824.389	25556
824.529	25742
824.669	25628
824.809	25822
824.949	25837
825.089	25864
825.228	25715
825.368	25510
825.508	25544
825.648	25525
825.787	25559
825.927	25639
826.067	25563
826.206	25438
826.346	25601
826.485	25571
826.625	25476
826.765	25559
826.904	25658
827.044	25384
827.183	25350
827.323	25069
827.462	25240
827.601	25244
827.741	25107
827.88	25285
828.02	25118
828.159	25160
828.298	25122
828.437	25308
828.577	25107
828.716	25430
828.855	25209
828.994	24943
829.134	24947
829.273	24878
829.412	24913
829.551	24947
829.69	24989
829.829	24962
829.968	25095
830.107	25118
830.246	24962
830.385	24844
830.524	24897
830.663	24745
830.802	24802
830.941	24585
831.08	24551
831.219	24578
831.357	24650
831.496	24722
831.635	24540
831.774	24464
831.913	24486
832.051	24369
832.19	24403
832.329	24323
832.467	24163
832.606	24232
832.744	24140
832.883	24232
833.022	24296
833.16	24182
833.299	24171
833.437	24205
833.576	24350
833.714	24232
833.852	24372
833.991	24243
834.129	24395
834.267	24327
834.406	24311
834.544	24296
834.682	24391
834.821	24346
834.959	24528
835.097	24095
835.235	24330
835.373	24262
835.511	24270
835.65	24209
835.788	24114
835.926	24053
836.064	23942
836.202	23988
836.34	24007
836.478	24114
836.615	24102
836.753	24076
836.891	24213
837.029	24159
837.167	24011
837.305	24102
837.443	23992
837.58	23916
837.718	24098
837.856	24152
837.993	23977
838.131	23901
838.269	23783
838.406	23870
838.544	23783
838.681	23535
838.819	23600
838.956	23376
839.094	23501
839.231	23524
839.369	23615
839.506	23821
839.643	23573
839.781	23356
839.918	23406
840.055	23376
840.193	23402
840.33	23383
840.467	23379
840.604	23341
840.742	23501
840.879	23208
841.016	23349
841.153	23220
841.29	23311
841.427	23284
841.564	23391
841.701	23284
841.838	23296
841.975	23299
842.112	23162
842.249	23041
842.385	23155
842.522	23231
842.659	23178
842.796	23060
842.933	23128
843.069	23044
843.206	23037
843.343	23258
843.479	23121
843.616	23079
843.752	22923
843.889	22873
844.025	22987
844.162	22889
844.298	22968
844.435	22729
844.571	22850
844.708	22938
844.844	23033
844.98	22968
845.117	22999
845.253	22896
845.389	22752
845.525	22763
845.661	22778
845.798	22599
845.934	22710
846.07	22588
846.206	22710
846.342	22790
846.478	22668
846.614	22398
846.75	22303
846.886	22226
847.022	22428
847.158	22451
847.294	22447
847.429	22386
847.565	22462
847.701	22580
847.837	22078
847.972	22067
848.108	22109
848.244	22101
848.379	21994
848.515	21945
848.65	21937
848.786	22010
848.921	21895
849.057	22055
849.192	21998
849.328	21960
849.463	21899
849.598	21861
849.734	21846
849.869	21922
850.004	21679
850.14	21705
850.275	21747
850.41	21587
850.545	21663
850.68	21618
850.815	21755
850.95	21732
851.085	21778
851.22	21766
851.355	21724
851.49	21625
851.625	21720
851.76	21648
851.895	21599
852.03	21595
852.165	21690
852.299	21656
852.434	21709
852.569	21793
852.703	21774
852.838	21781
852.973	21793
853.107	21698
853.242	21439
853.376	21488
853.511	21348
853.645	21431
853.78	21564
853.914	21519
854.048	21523
854.183	21405
854.317	21507
854.451	21682
854.585	21549
854.72	21633
854.854	21496
854.988	21496
855.122	21473
855.256	21477
855.39	21473
855.524	21549
855.658	21599
855.792	21492
855.926	21454
856.06	21515
856.194	21572
856.327	21545
856.461	21458
856.595	21340
856.729	21557
856.862	21698
856.996	21504
857.13	21618
857.263	21542
857.397	21599
857.53	21424
857.664	21507
857.797	21587
857.931	21690
858.064	21561
858.197	21739
858.331	21477
858.464	21454
858.597	21386
858.731	21435
858.864	21473
858.997	21519
859.13	21523
859.263	21469
859.396	21534
859.529	21416
859.662	21523
859.795	21363
859.928	21477
860.061	21622
860.194	21663
860.327	21523
860.46	21500
860.592	21625
860.725	21622
860.858	21644
860.99	21542
861.123	21389
861.256	21519
861.388	21443
861.521	22196
861.653	21435
861.786	21313
861.918	21443
862.05	21424
862.183	21454
862.315	21557
862.447	21473
862.58	21424
862.712	21283
862.844	21173
862.976	21367
863.108	21325
863.24	21724
863.372	21108
863.504	21302
863.636	21264
863.768	21237
863.9	21165
864.032	21199
864.164	21173
864.296	21218
864.428	21336
864.559	21378
864.691	21332
864.823	21104
864.954	21207
865.086	21207
865.217	21176
865.349	21119
865.48	21146
865.612	21116
865.743	21283
865.875	21055
866.006	20925
866.137	21169
866.269	21062
866.4	21184
866.531	21017
866.662	20971
866.793	21036
866.924	21104
867.055	21028
867.186	21070
867.317	21093
867.448	20994
867.579	20986
867.71	20971
867.841	21005
867.972	21093
868.103	20967
868.233	20994
868.364	21051
868.495	21028
868.625	21291
868.756	21275
868.886	21256
869.017	21329
869.147	21466
869.278	21386
869.408	21370
869.539	21275
869.669	21348
869.799	21431
869.929	21367
870.06	21386
870.19	21450
870.32	21599
870.45	21572
870.58	21648
870.71	21797
870.84	21739
870.97	21637
871.1	21709
871.23	21915
871.36	21816
871.489	21675
871.619	21838
871.749	21831
871.879	21888
872.008	22070
872.138	21800
872.267	21865
872.397	21774
872.526	21679
872.656	21603
872.785	21816
872.915	21876
873.044	21972
873.173	21903
873.303	21918
873.432	21937
873.561	22059
873.69	21880
873.819	21937
873.948	21903
874.077	21876
874.206	21812
874.335	21895
874.464	21975
874.593	22086
874.722	22048
874.851	22207
874.979	22166
875.108	22090
875.237	22109
875.365	21895
875.494	22097
875.623	22032
875.751	22139
875.88	22211
876.008	22200
876.136	22204
876.265	22478
876.393	22542
876.521	22569
876.65	22596
876.778	22565
876.906	22390
877.034	22451
877.162	22474
877.29	22325
877.418	22466
877.546	22375
877.674	22554
877.802	22516
877.93	22436
878.058	22341
878.185	22306
878.313	22443
878.441	22322
878.568	22303
878.696	22287
878.824	22618
878.951	22493
879.079	22630
879.206	22790
879.333	22607
879.461	22546
879.588	22504
879.715	22702
879.842	22793
879.97	22664
880.097	22348
880.224	22322
880.351	22386
880.478	22295
880.605	22234
880.732	22261
880.859	22557
880.986	22303
881.112	22303
881.239	22265
881.366	21861
881.493	21994
881.619	21846
881.746	21800
881.872	21835
881.999	22013
882.125	21915
882.252	21755
882.378	21743
882.505	22070
882.631	21800
882.757	21553
882.883	21610
883.01	21523
883.136	21454
883.262	21511
883.388	21401
883.514	21469
883.64	21652
883.766	21507
883.892	21351
884.018	21416
884.143	21492
884.269	21580
884.395	21416
884.52	21176
884.646	21218
884.772	21138
884.897	21180
885.023	21135
885.148	21386
885.274	21313
885.399	21332
885.524	21279
885.65	21180
885.775	21218
885.9	21184
886.025	21348
886.15	21302
886.275	21108
886.4	21032
886.525	21093
886.65	21142
886.775	21317
886.9	21344
887.025	21386
887.149	21051
887.274	21013
887.399	20918
887.523	20994
887.648	20986
887.773	20986
887.897	21020
888.021	21024
888.146	20990
888.27	21017
888.395	21039
888.519	21017
888.643	20994
888.767	21047
888.891	21009
889.015	20895
889.139	20910
889.263	20773
889.387	20872
889.511	20994
889.635	21013
889.759	20720
889.883	20868
890.006	20811
890.13	20849
890.254	20613
890.377	20640
890.501	20564
890.624	20438
890.748	20598
890.871	20427
890.995	20381
891.118	20267
891.241	20377
891.364	20301
891.488	20594
891.611	20278
891.734	20164
891.857	20492
891.98	20358
892.103	20476
892.226	20408
892.349	20286
892.471	20103
892.594	20176
892.717	20172
892.839	20263
892.962	20221
893.085	20294
893.207	20214
893.33	20111
893.452	20122
893.575	20248
893.697	20142
893.819	20412
893.941	20336
894.064	20366
894.186	20122
894.308	20153
894.43	20343
894.552	20339
894.674	20301
894.796	20176
894.918	20176
895.04	20172
895.161	20339
895.283	20305
895.405	20176
895.526	20252
895.648	20180
895.769	20267
895.891	20294
896.012	20381
896.134	20214
896.255	20271
896.376	20069
896.498	20176
896.619	20309
896.74	20271
896.861	20225
896.982	20522
897.103	20636
897.224	20514
897.345	20476
897.466	20469
897.587	20503
897.708	20552
897.828	20412
897.949	20419
898.07	20183
898.19	20336
898.311	20423
898.431	20351
898.552	20393
898.672	20541
898.792	20431
898.913	20503
899.033	20389
899.153	20145
899.273	20134
899.393	20259
899.513	20347
899.633	20172
899.753	20225
899.873	20130
899.993	20199
900.113	20084
900.232	20233
900.352	20084
900.472	19909
900.591	20005
900.711	19917
900.83	19856
900.95	20054
901.069	20024
901.189	19898
901.308	19571
901.427	19719
901.546	19499
901.665	19578
901.784	19586
901.904	19350
902.023	19236
902.141	19031
902.26	19008
902.379	19179
902.498	19076
902.617	19091
902.735	19126
902.854	19088
902.973	19050
903.091	18814
903.21	18745
903.328	18703
903.446	18646
903.565	18551
903.683	18536
903.801	18483
903.919	18445
904.038	18521
904.156	18266
904.274	18254
904.392	18353
904.51	18224
904.627	18304
904.745	18361
904.863	18395
904.981	18155
905.098	18022
905.216	18068
905.334	18068
905.451	18049
905.569	17882
905.686	17996
905.803	17980
905.921	17687
906.038	17878
906.155	17771
906.272	17707
906.389	17703
906.506	17547
906.623	17474
906.74	17497
906.857	17425
906.974	17444
907.091	17562
907.208	17684
907.324	17436
907.441	17330
907.557	17277
907.674	17170
907.79	17143
907.907	17143
908.023	17265
908.139	17395
908.256	17185
908.372	17117
908.488	17140
908.604	16934
908.72	16949
908.836	16949
908.952	16934
909.068	16820
909.184	17105
909.3	17010
909.415	16984
909.531	16930
909.647	16755
909.762	16660
909.878	16622
909.993	16584
910.108	16611
910.224	16664
910.339	16618
910.454	16459
910.57	16489
910.685	16424
910.8	16660
910.915	16577
911.03	16523
911.145	16257
911.259	16268
911.374	16257
911.489	16188
911.604	16177
911.718	15960
911.833	16002
911.947	15953
912.062	15842
912.176	16006
912.291	15915
912.405	15968
912.519	16051
912.633	16082
912.748	15956
912.862	15930
912.976	15732
913.09	15766
913.204	15789
913.318	15850
913.431	15861
913.545	15861
913.659	15793
913.772	15720
913.886	15595
914	15580
914.113	15709
914.226	15751
914.34	15667
914.453	15500
914.566	15584
914.68	15538
914.793	15481
914.906	15283
915.019	15192
915.132	15268
915.245	15237
915.358	15123
915.47	15222
915.583	15230
915.696	15195
915.809	15264
915.921	15317
916.034	15154
916.146	15157
916.259	15005
916.371	15135
916.483	15146
916.595	15070
916.708	15081
916.82	15074
916.932	15066
917.044	15028
917.156	14929
917.268	14857
917.38	14857
917.491	14815
917.603	14804
917.715	14868
917.826	14986
917.938	14823
918.049	14800
918.161	14739
918.272	14952
918.384	14864
918.495	14796
918.606	14678
918.717	14499
918.828	14617
918.939	14651
919.05	14568
919.161	14571
919.272	14442
919.383	14461
919.494	14613
919.604	14861
919.715	14583
919.826	14522
919.936	14511
920.047	14632
920.157	14644
920.267	14731
920.378	14568
920.488	14549
920.598	14861
920.708	14861
920.818	14651
920.928	14712
921.038	14811
921.148	14815
921.258	14469
921.368	14400
921.477	14374
921.587	14343
921.697	14267
921.806	14336
921.916	14161
922.025	14077
922.134	13928
922.244	13738
922.353	13921
922.462	13780
922.571	13738
922.68	13586
922.789	13544
922.898	13658
923.007	13544
923.116	13613
923.224	13552
923.333	13540
923.442	13449
923.55	13464
923.659	13388
923.767	13540
923.876	13422
923.984	13533
924.092	13255
924.201	13324
924.309	13381
924.417	13346
924.525	13331
924.633	13400
924.741	14024
924.849	13088
924.956	13179
925.064	13027
925.172	12867
925.279	12977
925.387	13091
925.494	13000
925.602	13103
925.709	13046
925.816	12913
925.924	12962
926.031	13042
926.138	13019
926.245	13080
926.352	12848
926.459	12951
926.566	13053
926.673	12886
926.779	12730
926.886	12753
926.993	12612
927.099	12608
927.206	12506
927.312	12563
927.419	12623
927.525	12646
927.631	12631
927.737	12441
927.843	12327
927.95	12289
928.056	12342
928.162	12384
928.267	12486
928.373	12954
928.479	12479
928.585	12273
928.69	12277
928.796	12384
928.901	12220
929.007	12136
929.112	12285
929.218	12129
929.323	12133
929.428	12117
929.533	12270
929.638	12076
929.743	12068
929.848	12133
929.953	12098
930.058	11882
930.163	11790
930.267	11684
930.372	11920
930.477	11729
930.581	11980
930.685	11817
930.79	11672
930.894	11767
930.998	11653
931.103	11832
931.207	11433
931.311	11395
931.415	11299
931.519	11124
931.623	11147
