Data from test_V78500241_2303.txt Node
Date: Fri Mar 25 15:25:53 CST 2022
User: usil
Spectrometer: V785-0024
Trigger mode: 0
Integration Time (sec): 4.000000E-1
Scans to average: 1
Nonlinearity correction enabled: false
Boxcar width: 0
Storing dark spectrum: false
XAxis mode: Wavelengths
Number of Pixels in Spectrum: 1024
>>>>>Begin Spectral Data<<<<<
801.071	27675
801.214	27637
801.356	27363
801.499	27355
801.641	27169
801.783	27260
801.926	27355
802.068	27184
802.211	27165
802.353	27241
802.496	26876
802.638	26880
802.78	26769
802.923	26838
803.065	26693
803.208	26667
803.35	26940
803.492	27104
803.635	27055
803.777	26948
803.919	26956
804.061	27256
804.204	27085
804.346	26994
804.488	27005
804.63	27195
804.773	27047
804.915	26952
805.057	27195
805.199	26998
805.341	27161
805.483	27112
805.626	27237
805.768	27077
805.91	27207
806.052	27142
806.194	27135
806.336	27207
806.478	27161
806.62	27161
806.762	27317
806.904	27458
807.046	27648
807.188	27618
807.33	27686
807.472	27629
807.614	27500
807.756	27583
807.898	27401
808.04	27462
808.182	27393
808.324	27549
808.465	27530
808.607	27675
808.749	27831
808.891	27918
809.033	27991
809.174	27884
809.316	27671
809.458	27827
809.6	27743
809.741	27960
809.883	27956
810.025	27914
810.166	28051
810.308	27926
810.45	27987
810.591	27861
810.733	27876
810.875	27800
811.016	27766
811.158	27759
811.299	27835
811.441	27892
811.582	27949
811.724	27835
811.865	27762
812.007	27736
812.148	27854
812.29	27884
812.431	27960
812.573	28124
812.714	28211
812.855	28238
812.997	28363
813.138	28508
813.279	28527
813.421	28291
813.562	28128
813.703	28082
813.845	28036
813.986	27694
814.127	27515
814.268	27412
814.41	27492
814.551	27370
814.692	27515
814.833	27443
814.974	27492
815.115	27507
815.256	27329
815.397	27382
815.539	27367
815.68	27260
815.821	27127
815.962	27252
816.103	27241
816.244	27070
816.385	27135
816.526	27058
816.666	26765
816.807	26682
816.948	26826
817.089	26826
817.23	26914
817.371	26716
817.512	26682
817.653	26712
817.793	26727
817.934	26670
818.075	26735
818.216	26785
818.356	26785
818.497	26648
818.638	26396
818.778	26556
818.919	26514
819.06	26526
819.2	26735
819.341	26750
819.481	26815
819.622	26823
819.762	27047
819.903	27051
820.043	27070
820.184	26857
820.324	26994
820.465	26838
820.605	26887
820.746	26982
820.886	26754
821.026	26868
821.167	26769
821.307	26781
821.447	26819
821.588	26765
821.728	26594
821.868	26381
822.008	26161
822.149	26161
822.289	26294
822.429	25978
822.569	25947
822.709	25883
822.849	25757
822.99	25708
823.13	25788
823.27	25674
823.41	25540
823.55	25476
823.69	25597
823.83	25472
823.97	25533
824.11	25225
824.25	25358
824.389	25384
824.529	25396
824.669	25335
824.809	25422
824.949	25479
825.089	25320
825.228	25430
825.368	25160
825.508	25152
825.648	25255
825.787	25369
825.927	25266
826.067	25255
826.206	25247
826.346	25324
826.485	25350
826.625	25362
826.765	25415
826.904	25232
827.044	25012
827.183	25034
827.323	24905
827.462	24981
827.601	24901
827.741	24970
827.88	24973
828.02	24798
828.159	24825
828.298	24928
828.437	24905
828.577	24897
828.716	25031
828.855	25000
828.994	24703
829.134	24646
829.273	24673
829.412	24650
829.551	24532
829.69	24715
829.829	24639
829.968	24817
830.107	24692
830.246	24661
830.385	24620
830.524	24692
830.663	24612
830.802	24448
830.941	24376
831.08	24277
831.219	24338
831.357	24403
831.496	24414
831.635	24350
831.774	24121
831.913	24129
832.051	23870
832.19	24102
832.329	24144
832.467	23923
832.606	23893
832.744	23771
832.883	23878
833.022	23973
833.16	23722
833.299	23927
833.437	23954
833.576	23939
833.714	23980
833.852	24022
833.991	24117
834.129	24022
834.267	24079
834.406	24045
834.544	24178
834.682	23984
834.821	23939
834.959	24190
835.097	24030
835.235	24003
835.373	24015
835.511	23908
835.65	23927
835.788	23916
835.926	23687
836.064	23570
836.202	23760
836.34	23828
836.478	23939
836.615	23805
836.753	23726
836.891	23893
837.029	23847
837.167	23828
837.305	23722
837.443	23634
837.58	23668
837.718	23657
837.856	23630
837.993	23604
838.131	23554
838.269	23429
838.406	23726
838.544	23452
838.681	23242
838.819	23284
838.956	23117
839.094	23090
839.231	23166
839.369	23372
839.506	23657
839.643	23429
839.781	23178
839.918	23056
840.055	23064
840.193	23166
840.33	23117
840.467	22965
840.604	23067
840.742	23200
840.879	22946
841.016	22972
841.153	23079
841.29	23075
841.427	23056
841.564	23056
841.701	22934
841.838	22980
841.975	22984
842.112	22896
842.249	22797
842.385	22740
842.522	23094
842.659	22843
842.796	22793
842.933	22793
843.069	22748
843.206	22744
843.343	22805
843.479	22824
843.616	22805
843.752	22535
843.889	22573
844.025	22725
844.162	22725
844.298	22641
844.435	22550
844.571	22698
844.708	22733
844.844	22790
844.98	22725
845.117	22679
845.253	22580
845.389	22504
845.525	22535
845.661	22459
845.798	22306
845.934	22371
846.07	22379
846.206	22348
846.342	22504
846.478	22257
846.614	22002
846.75	21979
846.886	22063
847.022	22196
847.158	22147
847.294	22196
847.429	22109
847.565	22017
847.701	22265
847.837	21827
847.972	21717
848.108	21983
848.244	21793
848.379	21572
848.515	21625
848.65	21629
848.786	21606
848.921	21724
849.057	21724
849.192	21667
849.328	21652
849.463	21713
849.598	21561
849.734	21397
849.869	21477
850.004	21492
850.14	21443
850.275	21507
850.41	21374
850.545	21298
850.68	21420
850.815	21408
850.95	21344
851.085	21538
851.22	21519
851.355	21317
851.49	21412
851.625	21458
851.76	21313
851.895	21321
852.03	21294
852.165	21340
852.299	21477
852.434	21454
852.569	21378
852.703	21614
852.838	21329
852.973	21481
853.107	21485
853.242	21291
853.376	21230
853.511	21058
853.645	21184
853.78	21355
853.914	21245
854.048	21195
854.183	21184
854.317	21359
854.451	21401
854.585	21226
854.72	21180
854.854	21237
854.988	21119
855.122	21131
855.256	21161
855.39	21245
855.524	21374
855.658	21294
855.792	21154
855.926	21310
856.06	21310
856.194	21306
856.327	21077
856.461	21157
856.595	21146
856.729	21180
856.862	21306
856.996	21123
857.13	21222
857.263	21389
857.397	21321
857.53	21256
857.664	21279
857.797	21382
857.931	21386
858.064	21348
858.197	21336
858.331	21127
858.464	21146
858.597	21100
858.731	21218
858.864	21176
858.997	21199
859.13	21260
859.263	21272
859.396	21294
859.529	21173
859.662	21131
859.795	21112
859.928	21332
860.061	21329
860.194	21428
860.327	21237
860.46	21237
860.592	21412
860.725	21268
860.858	21313
860.99	21283
861.123	21176
861.256	21165
861.388	21230
861.521	21873
861.653	21154
861.786	21173
861.918	21074
862.05	21089
862.183	21131
862.315	21127
862.447	21214
862.58	21131
862.712	20895
862.844	20944
862.976	21013
863.108	21070
863.24	21492
863.372	20845
863.504	20918
863.636	20960
863.768	20826
863.9	20937
864.032	20910
864.164	20872
864.296	20921
864.428	21161
864.559	20960
864.691	20986
864.823	21104
864.954	20785
865.086	20929
865.217	20815
865.349	20712
865.48	20857
865.612	20868
865.743	20921
865.875	20914
866.006	20777
866.137	20781
866.269	20815
866.4	20697
866.531	20849
866.662	20792
866.793	20739
866.924	20640
867.055	20834
867.186	20731
867.317	20750
867.448	20659
867.579	20735
867.71	20640
867.841	20670
867.972	20804
868.103	20796
868.233	20872
868.364	20712
868.495	20811
868.625	20967
868.756	21119
868.886	21009
869.017	20975
869.147	21188
869.278	21119
869.408	21043
869.539	20948
869.669	21039
869.799	20990
869.929	21138
870.06	21119
870.19	21321
870.32	21310
870.45	21363
870.58	21306
870.71	21462
870.84	21500
870.97	21431
871.1	21397
871.23	21564
871.36	21545
871.489	21344
871.619	21595
871.749	21523
871.879	21583
872.008	21743
872.138	21637
872.267	21698
872.397	21321
872.526	21443
872.656	21336
872.785	21405
872.915	21694
873.044	21660
873.173	21663
873.303	21572
873.432	21561
873.561	21679
873.69	21728
873.819	21580
873.948	21698
874.077	21652
874.206	21713
874.335	21488
874.464	21785
874.593	21926
874.722	21701
874.851	21819
874.979	21937
875.108	22036
875.237	21762
875.365	21720
875.494	21762
875.623	21895
875.751	21793
875.88	21975
876.008	22029
876.136	21922
876.265	22200
876.393	22325
876.521	22341
876.65	22493
876.778	22211
876.906	22074
877.034	22158
877.162	22341
877.29	22139
877.418	22158
877.546	22150
877.674	22284
877.802	22261
877.93	22150
878.058	22204
878.185	22128
878.313	22246
878.441	22234
878.568	22040
878.696	22143
878.824	22188
878.951	22261
879.079	22341
879.206	22455
879.333	22299
879.461	22185
879.588	22226
879.715	22344
879.842	22428
879.97	22375
880.097	22032
880.224	22025
880.351	22070
880.478	21979
880.605	22055
880.732	22044
880.859	22230
880.986	21968
881.112	22105
881.239	21816
881.366	21759
881.493	21686
881.619	21671
881.746	21675
881.872	21507
881.999	21519
882.125	21568
882.252	21549
882.378	21542
882.505	21629
882.631	21401
882.757	21389
882.883	21363
883.01	21272
883.136	21218
883.262	21146
883.388	21043
883.514	21420
883.64	21283
883.766	21264
883.892	20967
884.018	21116
884.143	21195
884.269	21252
884.395	21070
884.52	20887
884.646	20956
884.772	20868
884.897	20826
885.023	20918
885.148	21024
885.274	21036
885.399	21017
885.524	20887
885.65	21017
885.775	21013
885.9	20887
886.025	21108
886.15	21047
886.275	20864
886.4	20781
886.525	20998
886.65	20883
886.775	20868
886.9	21096
887.025	21184
887.149	20918
887.274	20735
887.399	20583
887.523	20720
887.648	20587
887.773	20621
887.897	20773
888.021	20754
888.146	20598
888.27	20830
888.395	20872
888.519	20731
888.643	20739
888.767	20693
888.891	20526
889.015	20549
889.139	20720
889.263	20484
889.387	20606
889.511	20651
889.635	20594
889.759	20678
889.883	20454
890.006	20549
890.13	20495
890.254	20400
890.377	20495
890.501	20225
890.624	20305
890.748	20252
890.871	20214
890.995	20027
891.118	20092
891.241	20065
891.364	20050
891.488	20237
891.611	20062
891.734	20111
891.857	20092
891.98	20092
892.103	20149
892.226	20058
892.349	20008
892.471	19784
892.594	19928
892.717	20062
892.839	19963
892.962	19906
893.085	20103
893.207	19936
893.33	20046
893.452	19795
893.575	20020
893.697	19982
893.819	20081
893.941	20130
894.064	20115
894.186	20039
894.308	19894
894.43	19993
894.552	20130
894.674	20065
894.796	19841
894.918	19921
895.04	19970
895.161	20103
895.283	20058
895.405	19883
895.526	19978
895.648	19909
895.769	20039
895.891	19982
896.012	20024
896.134	20027
896.255	19932
896.376	19883
896.498	19856
896.619	20100
896.74	19947
896.861	20046
896.982	20259
897.103	20412
897.224	20199
897.345	20233
897.466	20103
897.587	20183
897.708	20370
897.828	20180
897.949	20168
898.07	19993
898.19	20164
898.311	20259
898.431	20084
898.552	20271
898.672	20180
898.792	20244
898.913	20358
899.033	20122
899.153	19936
899.273	19837
899.393	19932
899.513	19913
899.633	19849
899.753	19906
899.873	19909
899.993	19871
900.113	19871
900.232	19925
900.352	19894
900.472	19887
900.591	19761
900.711	19738
900.83	19643
900.95	19826
901.069	19902
901.189	19643
901.308	19297
901.427	19354
901.546	19343
901.665	19320
901.784	19266
901.904	19133
902.023	19061
902.141	18878
902.26	18916
902.379	18939
902.498	18859
902.617	18787
902.735	18817
902.854	18844
902.973	18810
903.091	18551
903.21	18479
903.328	18483
903.446	18361
903.565	18372
903.683	18388
903.801	18163
903.919	18361
904.038	18163
904.156	18110
904.274	18251
904.392	18121
904.51	18155
904.627	18007
904.745	18072
904.863	18258
904.981	17813
905.098	17764
905.216	17832
905.334	17729
905.451	17714
905.569	17836
905.686	17783
905.803	17699
905.921	17562
906.038	17520
906.155	17524
906.272	17463
906.389	17520
906.506	17315
906.623	17288
906.74	17318
906.857	17147
906.974	17318
907.091	17258
907.208	17376
907.324	17261
907.441	17204
907.557	16957
907.674	16987
907.79	16991
907.907	16965
908.023	17022
908.139	17102
908.256	16942
908.372	16831
908.488	16839
908.604	16774
908.72	16702
908.836	16831
908.952	16668
909.068	16706
909.184	16858
909.3	16713
909.415	16733
909.531	16710
909.647	16611
909.762	16390
909.878	16348
909.993	16367
910.108	16402
910.224	16348
910.339	16466
910.454	16325
910.57	16211
910.685	16086
910.8	16436
910.915	16284
911.03	16223
911.145	15907
911.259	16055
911.374	16097
911.489	16021
911.604	15907
911.718	15675
911.833	15762
911.947	15698
912.062	15591
912.176	15717
912.291	15743
912.405	15705
912.519	15911
912.633	15838
912.748	15797
912.862	15671
912.976	15519
913.09	15469
913.204	15462
913.318	15576
913.431	15580
913.545	15644
913.659	15732
913.772	15466
913.886	15386
914	15401
914.113	15408
914.226	15519
914.34	15431
914.453	15393
914.566	15450
914.68	15256
914.793	15294
914.906	15047
915.019	15013
915.132	14857
915.245	14967
915.358	14891
915.47	15001
915.583	15005
915.696	15070
915.809	15047
915.921	15108
916.034	14899
916.146	14918
916.259	14872
916.371	14883
916.483	14925
916.595	14872
916.708	14788
916.82	14834
916.932	14724
917.044	14788
917.156	14705
917.268	14636
917.38	14769
917.491	14686
917.603	14674
917.715	14754
917.826	14765
917.938	14655
918.049	14579
918.161	14522
918.272	14823
918.384	14682
918.495	14621
918.606	14511
918.717	14328
918.828	14522
918.939	14374
919.05	14355
919.161	14381
919.272	14218
919.383	14324
919.494	14469
919.604	14564
919.715	14377
919.826	14351
919.936	14320
920.047	14454
920.157	14317
920.267	14537
920.378	14457
920.488	14396
920.598	14564
920.708	14678
920.818	14514
920.928	14621
921.038	14670
921.148	14629
921.258	14298
921.368	14221
921.477	14199
921.587	14100
921.697	14012
921.806	14218
921.916	13944
922.025	13845
922.134	13719
922.244	13677
922.353	13750
922.462	13624
922.571	13582
922.68	13487
922.789	13388
922.898	13480
923.007	13289
923.116	13441
923.224	13434
923.333	13384
923.442	13168
923.55	13171
923.659	13263
923.767	13350
923.876	13255
923.984	13384
924.092	13107
924.201	13152
924.309	13149
924.417	13084
924.525	13126
924.633	13091
924.741	14039
924.849	12970
924.956	13050
925.064	12909
925.172	12810
925.279	12783
925.387	12806
925.494	12859
925.602	12932
925.709	12897
925.816	12768
925.924	12825
926.031	12878
926.138	12810
926.245	12791
926.352	12734
926.459	12795
926.566	12852
926.673	12760
926.779	12673
926.886	12563
926.993	12486
927.099	12330
927.206	12445
927.312	12342
927.419	12433
927.525	12311
927.631	12490
927.737	12304
927.843	12292
927.95	12163
928.056	12220
928.162	12209
928.267	12311
928.373	12707
928.479	12296
928.585	12011
928.69	12175
928.796	12281
928.901	12079
929.007	11885
929.112	12121
929.218	11973
929.323	11996
929.428	11973
929.533	11992
929.638	11950
929.743	11920
929.848	11882
929.953	11920
930.058	11722
930.163	11581
930.267	11585
930.372	11756
930.477	11672
930.581	11767
930.685	11741
930.79	11471
930.894	11562
930.998	11414
931.103	11672
931.207	11231
931.311	11197
931.415	11162
931.519	10953
931.623	10801
