Data from test_V78500241_261.txt Node
Date: Fri Mar 25 15:11:40 CST 2022
User: usil
Spectrometer: V785-0024
Trigger mode: 0
Integration Time (sec): 4.000000E-1
Scans to average: 1
Nonlinearity correction enabled: false
Boxcar width: 0
Storing dark spectrum: false
XAxis mode: Wavelengths
Number of Pixels in Spectrum: 1024
>>>>>Begin Spectral Data<<<<<
801.071	28356
801.214	28200
801.356	28063
801.499	28116
801.641	27922
801.783	27785
801.926	27865
802.068	27732
802.211	27762
802.353	27629
802.496	27580
802.638	27534
802.78	27507
802.923	27397
803.065	27439
803.208	27367
803.35	27606
803.492	27618
803.635	27656
803.777	27580
803.919	27770
804.061	27918
804.204	27610
804.346	27686
804.488	27485
804.63	27690
804.773	27545
804.915	27778
805.057	27671
805.199	27580
805.341	27781
805.483	27732
805.626	27709
805.768	27762
805.91	27743
806.052	27679
806.194	27705
806.336	27998
806.478	27797
806.62	27732
806.762	27922
806.904	28044
807.046	28173
807.188	28135
807.33	28188
807.472	28166
807.614	28093
807.756	28143
807.898	27968
808.04	27987
808.182	27876
808.324	28017
808.465	27857
808.607	28048
808.749	28417
808.891	28428
809.033	28535
809.174	28493
809.316	28424
809.458	28200
809.6	28325
809.741	28394
809.883	28413
810.025	28531
810.166	28672
810.308	28500
810.45	28527
810.591	28470
810.733	28291
810.875	28333
811.016	28135
811.158	28177
811.299	28432
811.441	28424
811.582	28318
811.724	28177
811.865	28268
812.007	28306
812.148	28226
812.29	28325
812.431	28466
812.573	28531
812.714	28656
812.855	28797
812.997	28881
813.138	29102
813.279	28885
813.421	28839
813.562	28630
813.703	28641
813.845	28542
813.986	28166
814.127	27934
814.268	28086
814.41	27941
814.551	27960
814.692	27960
814.833	27949
814.974	27911
815.115	27850
815.256	27747
815.397	27797
815.539	27667
815.68	27762
815.821	27766
815.962	27907
816.103	27644
816.244	27610
816.385	27538
816.526	27523
816.666	27370
816.807	27306
816.948	27199
817.089	27291
817.23	27291
817.371	27157
817.512	26998
817.653	27112
817.793	27127
817.934	27192
818.075	27233
818.216	27226
818.356	27081
818.497	27047
818.638	26948
818.778	26925
818.919	26914
819.06	27009
819.2	26872
819.341	27146
819.481	27173
819.622	27268
819.762	27420
819.903	27355
820.043	27154
820.184	27203
820.324	27241
820.465	27310
820.605	27260
820.746	27169
820.886	27233
821.026	27241
821.167	27272
821.307	27256
821.447	27074
821.588	26986
821.728	26796
821.868	26792
822.008	26549
822.149	26590
822.289	26564
822.429	26271
822.569	26290
822.709	26225
822.849	26149
822.99	26062
823.13	25932
823.27	25936
823.41	25936
823.55	25746
823.69	25826
823.83	25784
823.97	25845
824.11	25677
824.25	25567
824.389	25712
824.529	25788
824.669	25624
824.809	25727
824.949	25757
825.089	25765
825.228	25757
825.368	25438
825.508	25449
825.648	25491
825.787	25552
825.927	25681
826.067	25438
826.206	25434
826.346	25502
826.485	25426
826.625	25506
826.765	25620
826.904	25540
827.044	25187
827.183	25221
827.323	25270
827.462	25358
827.601	25304
827.741	25057
827.88	25171
828.02	25194
828.159	25251
828.298	25228
828.437	25270
828.577	25099
828.716	25289
828.855	25145
828.994	24897
829.134	24837
829.273	24977
829.412	24897
829.551	24954
829.69	24958
829.829	24916
829.968	25027
830.107	24935
830.246	24935
830.385	24722
830.524	24791
830.663	24688
830.802	24772
830.941	24502
831.08	24479
831.219	24475
831.357	24627
831.496	24684
831.635	24441
831.774	24483
831.913	24471
832.051	24163
832.19	24437
832.329	24369
832.467	24254
832.606	24098
832.744	24209
832.883	24304
833.022	24171
833.16	24228
833.299	24163
833.437	24060
833.576	24232
833.714	24270
833.852	24243
833.991	24194
834.129	24243
834.267	24155
834.406	24152
834.544	24205
834.682	24171
834.821	24159
834.959	24216
835.097	24114
835.235	24197
835.373	24102
835.511	24117
835.65	24049
835.788	24136
835.926	23984
836.064	23851
836.202	23794
836.34	23969
836.478	24228
836.615	24129
836.753	24079
836.891	24034
837.029	24121
837.167	24022
837.305	23920
837.443	23912
837.58	23832
837.718	23870
837.856	23904
837.993	23802
838.131	23882
838.269	23722
838.406	23653
838.544	23611
838.681	23474
838.819	23448
838.956	23273
839.094	23197
839.231	23486
839.369	23497
839.506	23828
839.643	23604
839.781	23250
839.918	23254
840.055	23311
840.193	23398
840.33	23170
840.467	23326
840.604	23220
840.742	23482
840.879	23212
841.016	23162
841.153	23102
841.29	23261
841.427	23185
841.564	23258
841.701	23132
841.838	23166
841.975	23102
842.112	23064
842.249	22961
842.385	22900
842.522	23143
842.659	22771
842.796	22866
842.933	22854
843.069	22858
843.206	22828
843.343	23052
843.479	22984
843.616	22881
843.752	22854
843.889	22626
844.025	22713
844.162	22713
844.298	22774
844.435	22668
844.571	22569
844.708	22660
844.844	22744
844.98	22820
845.117	22717
845.253	22622
845.389	22592
845.525	22508
845.661	22497
845.798	22497
845.934	22497
846.07	22428
846.206	22432
846.342	22573
846.478	22306
846.614	22242
846.75	22082
846.886	22173
847.022	22207
847.158	22234
847.294	22101
847.429	22253
847.565	22048
847.701	22348
847.837	21892
847.972	21911
848.108	21972
848.244	21903
848.379	21789
848.515	21732
848.65	21690
848.786	21671
848.921	21667
849.057	21884
849.192	21888
849.328	21762
849.463	21785
849.598	21580
849.734	21488
849.869	21644
850.004	21488
850.14	21469
850.275	21523
850.41	21416
850.545	21405
850.68	21431
850.815	21568
850.95	21374
851.085	21660
851.22	21629
851.355	21557
851.49	21443
851.625	21481
851.76	21504
851.895	21317
852.03	21378
852.165	21428
852.299	21473
852.434	21591
852.569	21447
852.703	21462
852.838	21557
852.973	21648
853.107	21523
853.242	21462
853.376	21176
853.511	21161
853.645	21313
853.78	21355
853.914	21294
854.048	21256
854.183	21283
854.317	21435
854.451	21378
854.585	21317
854.72	21218
854.854	21302
854.988	21123
855.122	21214
855.256	21199
855.39	21192
855.524	21233
855.658	21249
855.792	21260
855.926	21450
856.06	21386
856.194	21306
856.327	21302
856.461	21203
856.595	21214
856.729	21203
856.862	21439
856.996	21241
857.13	21275
857.263	21321
857.397	21336
857.53	21325
857.664	21355
857.797	21256
857.931	21405
858.064	21211
858.197	21363
858.331	21272
858.464	21039
858.597	21161
858.731	21184
858.864	21214
858.997	21169
859.13	21195
859.263	21245
859.396	21275
859.529	21233
859.662	21283
859.795	21249
859.928	21233
860.061	21405
860.194	21477
860.327	21313
860.46	21207
860.592	21363
860.725	21412
860.858	21291
860.99	21207
861.123	21287
861.256	21252
861.388	21291
861.521	21911
861.653	21195
861.786	21047
861.918	21123
862.05	21176
862.183	21230
862.315	21291
862.447	21313
862.58	21146
862.712	20937
862.844	21051
862.976	21055
863.108	21066
863.24	21515
863.372	21058
863.504	20876
863.636	21028
863.768	21055
863.9	20887
864.032	21074
864.164	20731
864.296	20971
864.428	20941
864.559	20895
864.691	21043
864.823	20960
864.954	20986
865.086	20845
865.217	20838
865.349	20746
865.48	20914
865.612	20868
865.743	21009
865.875	20941
866.006	20826
866.137	20773
866.269	20785
866.4	20815
866.531	20868
866.662	20838
866.793	20750
866.924	20754
867.055	20960
867.186	20781
867.317	20842
867.448	20659
867.579	20701
867.71	20651
867.841	20625
867.972	20758
868.103	20735
868.233	20788
868.364	20754
868.495	20773
868.625	20990
868.756	21142
868.886	20918
869.017	20986
869.147	21081
869.278	21108
869.408	21055
869.539	20967
869.669	21070
869.799	21043
869.929	21074
870.06	21093
870.19	21359
870.32	21382
870.45	21294
870.58	21374
870.71	21450
870.84	21515
870.97	21450
871.1	21526
871.23	21561
871.36	21439
871.489	21481
871.619	21462
871.749	21462
871.879	21660
872.008	21755
872.138	21690
872.267	21625
872.397	21469
872.526	21462
872.656	21492
872.785	21283
872.915	21568
873.044	21671
873.173	21701
873.303	21572
873.432	21599
873.561	21743
873.69	21705
873.819	21648
873.948	21694
874.077	21717
874.206	21523
874.335	21542
874.464	21694
874.593	21800
874.722	21789
874.851	21865
874.979	21934
875.108	21994
875.237	21770
875.365	21732
875.494	21956
875.623	21934
875.751	21728
875.88	21793
876.008	21922
876.136	22063
876.265	22318
876.393	22417
876.521	22333
876.65	22314
876.778	22181
876.906	22318
877.034	22051
877.162	22185
877.29	22078
877.418	22200
877.546	22173
877.674	22204
877.802	22116
877.93	22109
878.058	22219
878.185	22150
878.313	22120
878.441	22196
878.568	22040
878.696	22063
878.824	22219
878.951	22265
879.079	22352
879.206	22462
879.333	22299
879.461	22261
879.588	22253
879.715	22306
879.842	22538
879.97	22272
880.097	22036
880.224	21975
880.351	21941
880.478	22070
880.605	22002
880.732	21991
880.859	22200
880.986	22116
881.112	21983
881.239	21861
881.366	21827
881.493	21770
881.619	21568
881.746	21690
881.872	21690
881.999	21549
882.125	21526
882.252	21641
882.378	21667
882.505	21728
882.631	21477
882.757	21336
882.883	21420
883.01	21355
883.136	21252
883.262	21211
883.388	21138
883.514	21291
883.64	21226
883.766	21237
883.892	21062
884.018	21089
884.143	21256
884.269	21332
884.395	20963
884.52	20925
884.646	20891
884.772	20883
884.897	20826
885.023	20857
885.148	21104
885.274	21051
885.399	21146
885.524	21028
885.65	20868
885.775	20933
885.9	20883
886.025	20994
886.15	21066
886.275	20918
886.4	20906
886.525	20876
886.65	21039
886.775	20804
886.9	20899
887.025	21230
887.149	20986
887.274	20777
887.399	20777
887.523	20750
887.648	20663
887.773	20678
887.897	20724
888.021	20735
888.146	20701
888.27	20648
888.395	20975
888.519	20686
888.643	20632
888.767	20693
888.891	20693
889.015	20503
889.139	20552
889.263	20575
889.387	20598
889.511	20621
889.635	20617
889.759	20427
889.883	20514
890.006	20415
890.13	20667
890.254	20351
890.377	20393
890.501	20263
890.624	20202
890.748	20286
890.871	20161
890.995	19997
891.118	20050
891.241	20084
891.364	20107
891.488	20214
891.611	20058
891.734	20145
891.857	20081
891.98	20077
892.103	20130
892.226	20088
892.349	19917
892.471	19955
892.594	19978
892.717	19970
892.839	20031
892.962	20077
893.085	20031
893.207	20012
893.33	19833
893.452	19875
893.575	20103
893.697	19936
893.819	20145
893.941	20225
894.064	20119
894.186	19883
894.308	19974
894.43	20016
894.552	20180
894.674	20096
894.796	19856
894.918	19894
895.04	19947
895.161	20035
895.283	20119
895.405	19788
895.526	19887
895.648	19921
895.769	19974
895.891	19967
896.012	20122
896.134	19967
896.255	20035
896.376	20054
896.498	19959
896.619	20069
896.74	20035
896.861	20005
896.982	20370
897.103	20362
897.224	20328
897.345	20195
897.466	20130
897.587	20168
897.708	20290
897.828	20309
897.949	20153
898.07	20005
898.19	20233
898.311	20309
898.431	20084
898.552	20138
898.672	20317
898.792	20244
898.913	20229
899.033	20103
899.153	19898
899.273	19875
899.393	19898
899.513	19887
899.633	19928
899.753	19852
899.873	19974
899.993	20016
900.113	19807
900.232	19830
900.352	19830
900.472	19769
900.591	19731
900.711	19746
900.83	19628
900.95	19822
901.069	19784
901.189	19647
901.308	19422
901.427	19324
901.546	19293
901.665	19346
901.784	19384
901.904	19145
902.023	18932
902.141	18989
902.26	18863
902.379	18920
902.498	18692
902.617	18825
902.735	18764
902.854	18787
902.973	18677
903.091	18532
903.21	18483
903.328	18410
903.446	18327
903.565	18220
903.683	18315
903.801	18171
903.919	18209
904.038	18194
904.156	18057
904.274	18174
904.392	18060
904.51	18064
904.627	18003
904.745	18019
904.863	18060
904.981	17798
905.098	17634
905.216	17672
905.334	17756
905.451	17638
905.569	17646
905.686	17783
905.803	17703
905.921	17551
906.038	17649
906.155	17532
906.272	17417
906.389	17353
906.506	17265
906.623	17246
906.74	17208
906.857	17143
906.974	17181
907.091	17292
907.208	17383
907.324	17250
907.441	17151
907.557	16957
907.674	17022
907.79	16828
907.907	16869
908.023	16946
908.139	16923
908.256	16984
908.372	16774
908.488	16831
908.604	16615
908.72	16607
908.836	16558
908.952	16664
909.068	16641
909.184	16858
909.3	16538
909.415	16542
909.531	16542
909.647	16379
909.762	16367
909.878	16318
909.993	16443
910.108	16348
910.224	16306
910.339	16375
910.454	16177
910.57	16196
910.685	16105
910.8	16371
910.915	16272
911.03	16173
911.145	16109
911.259	15987
911.374	15953
911.489	15907
911.604	15842
911.718	15633
911.833	15603
911.947	15675
912.062	15401
912.176	15595
912.291	15679
912.405	15747
912.519	15823
912.633	15816
912.748	15755
912.862	15580
912.976	15523
913.09	15401
913.204	15359
913.318	15580
913.431	15534
913.545	15648
913.659	15488
913.772	15458
913.886	15245
914	15332
914.113	15458
914.226	15370
914.34	15329
914.453	15173
914.566	15344
914.68	15116
914.793	15100
914.906	14963
915.019	14921
915.132	14788
915.245	14891
915.358	14994
915.47	14906
915.583	15005
915.696	14960
915.809	15024
915.921	14979
916.034	14876
916.146	14815
916.259	14819
916.371	14830
916.483	14842
916.595	14830
916.708	14765
916.82	14727
916.932	14632
917.044	14689
917.156	14648
917.268	14568
917.38	14632
917.491	14651
917.603	14568
917.715	14648
917.826	14632
917.938	14549
918.049	14514
918.161	14583
918.272	14636
918.384	14556
918.495	14461
918.606	14389
918.717	14282
918.828	14320
918.939	14427
919.05	14282
919.161	14317
919.272	14103
919.383	14195
919.494	14415
919.604	14450
919.715	14370
919.826	14180
919.936	14351
920.047	14301
920.157	14305
920.267	14476
920.378	14298
920.488	14256
920.598	14488
920.708	14594
920.818	14396
920.928	14404
921.038	14621
921.148	14552
921.258	14259
921.368	14172
921.477	14100
921.587	13989
921.697	13887
921.806	14092
921.916	13852
922.025	13605
922.134	13624
922.244	13624
922.353	13666
922.462	13609
922.571	13468
922.68	13274
922.789	13343
922.898	13316
923.007	13190
923.116	13266
923.224	13316
923.333	13190
923.442	13149
923.55	13099
923.659	13099
923.767	13149
923.876	13122
923.984	13061
924.092	13019
924.201	13000
924.309	13031
924.417	13080
924.525	12989
924.633	12970
924.741	13757
924.849	12749
924.956	12935
925.064	12734
925.172	12669
925.279	12745
925.387	12703
925.494	12776
925.602	12741
925.709	12840
925.816	12555
925.924	12566
926.031	12787
926.138	12711
926.245	12776
926.352	12521
926.459	12730
926.566	12768
926.673	12585
926.779	12479
926.886	12506
926.993	12277
927.099	12315
927.206	12266
927.312	12258
927.419	12357
927.525	12300
927.631	12445
927.737	12159
927.843	12064
927.95	12068
928.056	12144
928.162	12064
928.267	12133
928.373	12673
928.479	12163
928.585	11935
928.69	12102
928.796	12117
928.901	12091
929.007	11843
929.112	11996
929.218	11870
929.323	11863
929.428	11908
929.533	11920
929.638	11870
929.743	11767
929.848	11904
929.953	11794
930.058	11710
930.163	11585
930.267	11505
930.372	11653
930.477	11471
930.581	11691
930.685	11566
930.79	11368
930.894	11364
930.998	11429
931.103	11543
931.207	11220
931.311	11083
931.415	11006
931.519	10809
931.623	10820
