Data from test_V78500241_2744.txt Node
Date: Fri Mar 25 15:28:58 CST 2022
User: usil
Spectrometer: V785-0024
Trigger mode: 0
Integration Time (sec): 4.000000E-1
Scans to average: 1
Nonlinearity correction enabled: false
Boxcar width: 0
Storing dark spectrum: false
XAxis mode: Wavelengths
Number of Pixels in Spectrum: 1024
>>>>>Begin Spectral Data<<<<<
801.071	27157
801.214	27081
801.356	26883
801.499	26792
801.641	26758
801.783	26564
801.926	26648
802.068	26644
802.211	26465
802.353	26495
802.496	26393
802.638	26282
802.78	26202
802.923	26153
803.065	26176
803.208	26187
803.35	26355
803.492	26453
803.635	26488
803.777	26358
803.919	26415
804.061	26800
804.204	26545
804.346	26469
804.488	26423
804.63	26484
804.773	26278
804.915	26495
805.057	26461
805.199	26370
805.341	26488
805.483	26556
805.626	26514
805.768	26556
805.91	26507
806.052	26495
806.194	26396
806.336	26625
806.478	26617
806.62	26556
806.762	26716
806.904	26674
807.046	27032
807.188	27013
807.33	26994
807.472	27081
807.614	26952
807.756	26948
807.898	26720
808.04	26560
808.182	26712
808.324	26826
808.465	26792
808.607	26929
808.749	27055
808.891	27135
809.033	27427
809.174	27241
809.316	27100
809.458	27287
809.6	27093
809.741	27218
809.883	27344
810.025	27553
810.166	27367
810.308	27329
810.45	27500
810.591	27408
810.733	27165
810.875	27089
811.016	27104
811.158	27047
811.299	27157
811.441	27351
811.582	27192
811.724	27218
811.865	27096
812.007	27028
812.148	27127
812.29	27055
812.431	27363
812.573	27545
812.714	27564
812.855	27667
812.997	27842
813.138	27789
813.279	27690
813.421	27633
813.562	27561
813.703	27401
813.845	27260
813.986	27032
814.127	26940
814.268	26724
814.41	26872
814.551	26796
814.692	26864
814.833	26621
814.974	26853
815.115	26800
815.256	26712
815.397	26678
815.539	26503
815.68	26625
815.821	26499
815.962	26655
816.103	26549
816.244	26541
816.385	26347
816.526	26343
816.666	26115
816.807	26065
816.948	26164
817.089	26096
817.23	26096
817.371	26027
817.512	26008
817.653	25993
817.793	25986
817.934	25997
818.075	25974
818.216	26008
818.356	26001
818.497	25860
818.638	25677
818.778	25639
818.919	25635
819.06	25746
819.2	25970
819.341	26027
819.481	26134
819.622	26290
819.762	26385
819.903	26301
820.043	26187
820.184	26336
820.324	26214
820.465	26259
820.605	26218
820.746	26111
820.886	26054
821.026	26073
821.167	26218
821.307	26199
821.447	26058
821.588	26107
821.728	25868
821.868	25693
822.008	25563
822.149	25552
822.289	25396
822.429	25255
822.569	25164
822.709	25232
822.849	24989
822.99	25004
823.13	24954
823.27	24966
823.41	24878
823.55	24871
823.69	24806
823.83	24776
823.97	24856
824.11	24620
824.25	24620
824.389	24661
824.529	24844
824.669	24677
824.809	24696
824.949	24627
825.089	24730
825.228	24665
825.368	24521
825.508	24517
825.648	24517
825.787	24460
825.927	24525
826.067	24494
826.206	24563
826.346	24574
826.485	24528
826.625	24585
826.765	24623
826.904	24460
827.044	24289
827.183	24174
827.323	24205
827.462	24330
827.601	24235
827.741	24273
827.88	24338
828.02	24186
828.159	24155
828.298	24239
828.437	24159
828.577	24178
828.716	24235
828.855	24049
828.994	23874
829.134	23817
829.273	23824
829.412	23821
829.551	23836
829.69	23923
829.829	23942
829.968	23988
830.107	23920
830.246	23855
830.385	23897
830.524	23824
830.663	23802
830.802	23726
830.941	23570
831.08	23478
831.219	23535
831.357	23535
831.496	23939
831.635	23551
831.774	23497
831.913	23440
832.051	23299
832.19	23315
832.329	23368
832.467	23242
832.606	23090
832.744	23147
832.883	23185
833.022	23208
833.16	23227
833.299	23280
833.437	23273
833.576	23349
833.714	23341
833.852	23254
833.991	23288
834.129	23410
834.267	23299
834.406	23254
834.544	23349
834.682	23258
834.821	23250
834.959	23467
835.097	23174
835.235	23341
835.373	23239
835.511	23181
835.65	23200
835.788	23056
835.926	23014
836.064	22908
836.202	23025
836.34	23162
836.478	23178
836.615	23010
836.753	23102
836.891	23162
837.029	23075
837.167	23098
837.305	23029
837.443	22980
837.58	22938
837.718	23064
837.856	22991
837.993	22927
838.131	22942
838.269	22896
838.406	22835
838.544	22672
838.681	22668
838.819	22683
838.956	22508
839.094	22462
839.231	22459
839.369	22607
839.506	22896
839.643	22641
839.781	22474
839.918	22428
840.055	22459
840.193	22402
840.33	22344
840.467	22447
840.604	22470
840.742	22748
840.879	22181
841.016	22329
841.153	22207
841.29	22386
841.427	22344
841.564	22371
841.701	22314
841.838	22417
841.975	22242
842.112	22284
842.249	22078
842.385	22284
842.522	22382
842.659	22314
842.796	22082
842.933	22196
843.069	22215
843.206	22021
843.343	22090
843.479	22128
843.616	22154
843.752	21922
843.889	21911
844.025	22070
844.162	21835
844.298	21880
844.435	21827
844.571	21842
844.708	22070
844.844	22013
844.98	22086
845.117	21968
845.253	21838
845.389	21819
845.525	21804
845.661	21728
845.798	21629
845.934	21629
846.07	21622
846.206	21778
846.342	21728
846.478	21629
846.614	21416
846.75	21348
846.886	21450
847.022	21405
847.158	21443
847.294	21405
847.429	21519
847.565	21370
847.701	21694
847.837	21112
847.972	21119
848.108	21146
848.244	21249
848.379	21051
848.515	20929
848.65	20929
848.786	20902
848.921	20986
849.057	21142
849.192	21055
849.328	20990
849.463	21013
849.598	20963
849.734	20872
849.869	20857
850.004	20697
850.14	20746
850.275	20758
850.41	20769
850.545	20689
850.68	20735
850.815	20686
850.95	20693
851.085	20979
851.22	20807
851.355	20735
851.49	20800
851.625	20743
851.76	20765
851.895	20629
852.03	20678
852.165	20720
852.299	20739
852.434	20842
852.569	20659
852.703	20708
852.838	20880
852.973	20906
853.107	20906
853.242	20708
853.376	20518
853.511	20575
853.645	20514
853.78	20777
853.914	20602
854.048	20526
854.183	20530
854.317	20644
854.451	20788
854.585	20594
854.72	20594
854.854	20590
854.988	20549
855.122	20579
855.256	20431
855.39	20507
855.524	20617
855.658	20648
855.792	20587
855.926	20667
856.06	20602
856.194	20609
856.327	20659
856.461	20511
856.595	20488
856.729	20552
856.862	20689
856.996	20659
857.13	20606
857.263	20720
857.397	20659
857.53	20609
857.664	20598
857.797	20609
857.931	20613
858.064	20625
858.197	20720
858.331	20594
858.464	20556
858.597	20434
858.731	20613
858.864	20385
858.997	20465
859.13	20651
859.263	20522
859.396	20686
859.529	20560
859.662	20632
859.795	20499
859.928	20583
860.061	20629
860.194	20670
860.327	20640
860.46	20632
860.592	20667
860.725	20765
860.858	20727
860.99	20568
861.123	20552
861.256	20560
861.388	20484
861.521	21188
861.653	20355
861.786	20377
861.918	20385
862.05	20454
862.183	20598
862.315	20537
862.447	20507
862.58	20473
862.712	20267
862.844	20343
862.976	20294
863.108	20408
863.24	20636
863.372	20328
863.504	20324
863.636	20309
863.768	20454
863.9	20259
864.032	20301
864.164	20221
864.296	20229
864.428	20473
864.559	20278
864.691	20423
864.823	20290
864.954	20313
865.086	20267
865.217	20282
865.349	20126
865.48	20256
865.612	20187
865.743	20332
865.875	20187
866.006	20149
866.137	20195
866.269	20138
866.4	20195
866.531	20039
866.662	20088
866.793	20202
866.924	20176
867.055	20275
867.186	20111
867.317	20130
867.448	20115
867.579	20084
867.71	20069
867.841	20138
867.972	20275
868.103	20263
868.233	20180
868.364	20145
868.495	20278
868.625	20351
868.756	20533
868.886	20324
869.017	20320
869.147	20427
869.278	20617
869.408	20374
869.539	20343
869.669	20514
869.799	20332
869.929	20549
870.06	20454
870.19	20777
870.32	20682
870.45	20750
870.58	20853
870.71	20811
870.84	20883
870.97	20739
871.1	20785
871.23	20891
871.36	20960
871.489	20872
871.619	20895
871.749	21009
871.879	21119
872.008	21070
872.138	20982
872.267	20914
872.397	20823
872.526	20716
872.656	20826
872.785	20754
872.915	21089
873.044	21123
873.173	21005
873.303	20979
873.432	21119
873.561	21104
873.69	20967
873.819	21089
873.948	21165
874.077	21032
874.206	20941
874.335	21028
874.464	21047
874.593	21226
874.722	21222
874.851	21237
874.979	21203
875.108	21340
875.237	21142
875.365	21070
875.494	21230
875.623	21264
875.751	21237
875.88	21370
876.008	21424
876.136	21424
876.265	21671
876.393	21770
876.521	21770
876.65	21701
876.778	21504
876.906	21633
877.034	21561
877.162	21720
877.29	21523
877.418	21587
877.546	21679
877.674	21545
877.802	21538
877.93	21595
878.058	21526
878.185	21397
878.313	21557
878.441	21568
878.568	21462
878.696	21485
878.824	21618
878.951	21717
879.079	21842
879.206	21861
879.333	21800
879.461	21523
879.588	21774
879.715	21682
879.842	21812
879.97	21614
880.097	21424
880.224	21428
880.351	21424
880.478	21450
880.605	21466
880.732	21382
880.859	21698
880.986	21382
881.112	21477
881.239	21268
881.366	21192
881.493	21165
881.619	20998
881.746	21077
881.872	21017
881.999	21005
882.125	20990
882.252	21032
882.378	21005
882.505	21089
882.631	20845
882.757	20758
882.883	20819
883.01	20746
883.136	20560
883.262	20556
883.388	20606
883.514	20693
883.64	20781
883.766	20632
883.892	20522
884.018	20438
884.143	20613
884.269	20720
884.395	20404
884.52	20256
884.646	20393
884.772	20286
884.897	20218
885.023	20366
885.148	20465
885.274	20526
885.399	20476
885.524	20393
885.65	20347
885.775	20347
885.9	20423
886.025	20469
886.15	20438
886.275	20221
886.4	20343
886.525	20282
886.65	20313
886.775	20240
886.9	20473
887.025	20583
887.149	20347
887.274	20145
887.399	20012
887.523	20035
887.648	19967
887.773	20084
887.897	20259
888.021	20195
888.146	20031
888.27	20195
888.395	20244
888.519	20126
888.643	20157
888.767	20142
888.891	19974
889.015	19936
889.139	20024
889.263	19799
889.387	20065
889.511	20077
889.635	19967
889.759	19902
889.883	19856
890.006	19944
890.13	19989
890.254	19860
890.377	19921
890.501	19712
890.624	19658
890.748	19651
890.871	19578
890.995	19616
891.118	19422
891.241	19571
891.364	19571
891.488	19609
891.611	19578
891.734	19609
891.857	19529
891.98	19540
892.103	19586
892.226	19529
892.349	19441
892.471	19362
892.594	19464
892.717	19480
892.839	19480
892.962	19415
893.085	19575
893.207	19453
893.33	19278
893.452	19320
893.575	19457
893.697	19476
893.819	19514
893.941	19696
894.064	19464
894.186	19407
894.308	19396
894.43	19514
894.552	19643
894.674	19552
894.796	19316
894.918	19499
895.04	19377
895.161	19491
895.283	19396
895.405	19324
895.526	19460
895.648	19388
895.769	19392
895.891	19499
896.012	19616
896.134	19495
896.255	19445
896.376	19350
896.498	19426
896.619	19468
896.74	19499
896.861	19658
896.982	19780
897.103	19940
897.224	19674
897.345	19746
897.466	19670
897.587	19761
897.708	19765
897.828	19658
897.949	19613
898.07	19632
898.19	19529
898.311	19708
898.431	19632
898.552	19712
898.672	19723
898.792	19833
898.913	19746
899.033	19537
899.153	19438
899.273	19362
899.393	19457
899.513	19403
899.633	19381
899.753	19521
899.873	19430
899.993	19468
900.113	19430
900.232	19457
900.352	19327
900.472	19293
900.591	19141
900.711	19324
900.83	19095
900.95	19187
901.069	19316
901.189	19095
901.308	18882
901.427	18810
901.546	18814
901.665	18768
901.784	18882
901.904	18719
902.023	18517
902.141	18422
902.26	18372
902.379	18464
902.498	18338
902.617	18361
902.735	18365
902.854	18323
902.973	18289
903.091	17973
903.21	17988
903.328	18049
903.446	17863
903.565	17927
903.683	17847
903.801	17695
903.919	17722
904.038	17821
904.156	17722
904.274	17790
904.392	17532
904.51	17615
904.627	17619
904.745	17733
904.863	17608
904.981	17493
905.098	17337
905.216	17227
905.334	17284
905.451	17280
905.569	17204
905.686	17368
905.803	17284
905.921	17094
906.038	17189
906.155	17105
906.272	16961
906.389	17014
906.506	16869
906.623	16904
906.74	16869
906.857	16752
906.974	16694
907.091	16934
907.208	16866
907.324	16862
907.441	16660
907.557	16565
907.674	16531
907.79	16497
907.907	16421
908.023	16493
908.139	16527
908.256	16470
908.372	16462
908.488	16344
908.604	16344
908.72	16181
908.836	16219
908.952	16219
909.068	16276
909.184	16344
909.3	16272
909.415	16310
909.531	16344
909.647	16029
909.762	15918
909.878	15876
909.993	16051
910.108	15964
910.224	15915
910.339	15998
910.454	15861
910.57	15857
910.685	15701
910.8	15979
910.915	15926
911.03	15835
911.145	15679
911.259	15671
911.374	15637
911.489	15557
911.604	15523
911.718	15424
911.833	15332
911.947	15325
912.062	15237
912.176	15291
912.291	15336
912.405	15408
912.519	15542
912.633	15477
912.748	15473
912.862	15363
912.976	15207
913.09	15146
913.204	15062
913.318	15131
913.431	15203
913.545	15313
913.659	15173
913.772	15112
913.886	14895
914	15047
914.113	15032
914.226	15138
914.34	15047
914.453	14895
914.566	14918
914.68	14838
914.793	14830
914.906	14625
915.019	14625
915.132	14499
915.245	14594
915.358	14518
915.47	14602
915.583	14545
915.696	14610
915.809	14697
915.921	14765
916.034	14499
916.146	14461
916.259	14431
916.371	14587
916.483	14507
916.595	14438
916.708	14454
916.82	14492
916.932	14351
917.044	14355
917.156	14309
917.268	14309
917.38	14252
917.491	14229
917.603	14225
917.715	14351
917.826	14313
917.938	14244
918.049	14153
918.161	14191
918.272	14210
918.384	14256
918.495	14126
918.606	14161
918.717	14069
918.828	14005
918.939	13936
919.05	13936
919.161	13959
919.272	13795
919.383	13913
919.494	14062
919.604	14195
919.715	14012
919.826	13928
919.936	13986
920.047	14096
920.157	13963
920.267	14145
920.378	13982
920.488	14035
920.598	14123
920.708	14248
920.818	14111
920.928	14210
921.038	14294
921.148	14278
921.258	13947
921.368	13997
921.477	13803
921.587	13712
921.697	13643
921.806	13849
921.916	13704
922.025	13468
922.134	13377
922.244	13297
922.353	13457
922.462	13278
922.571	13278
922.68	13099
922.789	12981
922.898	13088
923.007	12985
923.116	13034
923.224	13015
923.333	13031
923.442	12920
923.55	12856
923.659	12802
923.767	12977
923.876	12772
923.984	12882
924.092	12817
924.201	12764
924.309	12821
924.417	12711
924.525	12662
924.633	12662
924.741	13605
924.849	12555
924.956	12585
925.064	12559
925.172	12464
925.279	12410
925.387	12536
925.494	12437
925.602	12525
925.709	12513
925.816	12365
925.924	12422
926.031	12555
926.138	12422
926.245	12460
926.352	12357
926.459	12456
926.566	12547
926.673	12445
926.779	12228
926.886	12171
926.993	12209
927.099	12144
927.206	12053
927.312	12034
927.419	12098
927.525	12072
927.631	12095
927.737	11912
927.843	11950
927.95	11760
928.056	11874
928.162	11965
928.267	12041
928.373	12418
928.479	11965
928.585	11745
928.69	11912
928.796	11904
928.901	11878
929.007	11634
929.112	11794
929.218	11718
929.323	11794
929.428	11638
929.533	11760
929.638	11653
929.743	11600
929.848	11657
929.953	11558
930.058	11444
930.163	11402
930.267	11364
930.372	11562
930.477	11326
930.581	11528
930.685	11387
930.79	11231
930.894	11254
930.998	11208
931.103	11463
931.207	11098
931.311	11018
931.415	10908
931.519	10740
931.623	10630
