Data from test_V78500241_1778.txt Node
Date: Fri Mar 25 15:22:14 CST 2022
User: usil
Spectrometer: V785-0024
Trigger mode: 0
Integration Time (sec): 4.000000E-1
Scans to average: 1
Nonlinearity correction enabled: false
Boxcar width: 0
Storing dark spectrum: false
XAxis mode: Wavelengths
Number of Pixels in Spectrum: 1024
>>>>>Begin Spectral Data<<<<<
801.071	27918
801.214	27918
801.356	27686
801.499	27648
801.641	27614
801.783	27622
801.926	27709
802.068	27686
802.211	27511
802.353	27386
802.496	27340
802.638	27096
802.78	27165
802.923	27081
803.065	27100
803.208	27157
803.35	27389
803.492	27427
803.635	27496
803.777	27275
803.919	27473
804.061	27732
804.204	27492
804.346	27439
804.488	27298
804.63	27344
804.773	27195
804.915	27515
805.057	27564
805.199	27370
805.341	27435
805.483	27454
805.626	27724
805.768	27367
805.91	27526
806.052	27599
806.194	27523
806.336	27751
806.478	27587
806.62	27576
806.762	27629
806.904	27816
807.046	27983
807.188	27949
807.33	28078
807.472	28109
807.614	27835
807.756	27922
807.898	27835
808.04	27903
808.182	27724
808.324	27785
808.465	27926
808.607	28067
808.749	28192
808.891	28219
809.033	28223
809.174	28310
809.316	28204
809.458	28112
809.6	28177
809.741	28382
809.883	28367
810.025	28531
810.166	28516
810.308	28443
810.45	28382
810.591	28474
810.733	28276
810.875	28162
811.016	28147
811.158	27991
811.299	28234
811.441	28356
811.582	28234
811.724	28177
811.865	28131
812.007	28090
812.148	28139
812.29	28287
812.431	28375
812.573	28337
812.714	28592
812.855	28778
812.997	28752
813.138	28843
813.279	28782
813.421	28687
813.562	28592
813.703	28554
813.845	28462
813.986	28249
814.127	27899
814.268	27880
814.41	27899
814.551	27846
814.692	27793
814.833	27854
814.974	27975
815.115	27907
815.256	27766
815.397	27728
815.539	27739
815.68	27682
815.821	27576
815.962	27747
816.103	27637
816.244	27591
816.385	27431
816.526	27302
816.666	27245
816.807	27154
816.948	27325
817.089	27176
817.23	27214
817.371	27043
817.512	27150
817.653	27237
817.793	27081
817.934	27150
818.075	27237
818.216	27211
818.356	27127
818.497	27077
818.638	26910
818.778	26838
818.919	27017
819.06	26956
819.2	26861
819.341	27173
819.481	27100
819.622	27340
819.762	27515
819.903	27519
820.043	27393
820.184	27321
820.324	27252
820.465	27447
820.605	27310
820.746	27249
820.886	27256
821.026	27142
821.167	27291
821.307	27279
821.447	27222
821.588	27131
821.728	26842
821.868	26796
822.008	26617
822.149	26682
822.289	26701
822.429	26347
822.569	26263
822.709	26305
822.849	26153
822.99	26248
823.13	26149
823.27	26088
823.41	26020
823.55	25883
823.69	25909
823.83	26039
823.97	26012
824.11	25818
824.25	25651
824.389	25788
824.529	25791
824.669	25712
824.809	25864
824.949	25849
825.089	25913
825.228	25875
825.368	25651
825.508	25662
825.648	25544
825.787	25666
825.927	25700
826.067	25738
826.206	25662
826.346	25571
826.485	25674
826.625	25575
826.765	25814
826.904	25643
827.044	25518
827.183	25479
827.323	25339
827.462	25426
827.601	25373
827.741	25411
827.88	25350
828.02	25320
828.159	25460
828.298	25289
828.437	25407
828.577	25221
828.716	25411
828.855	25350
828.994	25042
829.134	25091
829.273	25129
829.412	25133
829.551	25137
829.69	25164
829.829	25061
829.968	25129
830.107	25129
830.246	25240
830.385	24992
830.524	24859
830.663	25031
830.802	24943
830.941	24692
831.08	24719
831.219	24802
831.357	24878
831.496	24992
831.635	24654
831.774	24502
831.913	24532
832.051	24639
832.19	24563
832.329	24597
832.467	24334
832.606	24350
832.744	24330
832.883	24342
833.022	24414
833.16	24384
833.299	24334
833.437	24448
833.576	24426
833.714	24388
833.852	24540
833.991	24513
834.129	24536
834.267	24422
834.406	24536
834.544	24574
834.682	24422
834.821	24513
834.959	24574
835.097	24414
835.235	24502
835.373	24384
835.511	24441
835.65	24327
835.788	24277
835.926	24159
836.064	24140
836.202	24102
836.34	24300
836.478	24391
836.615	24376
836.753	24197
836.891	24346
837.029	24296
837.167	24182
837.305	24121
837.443	24140
837.58	24148
837.718	24194
837.856	24133
837.993	23969
838.131	24136
838.269	24091
838.406	23996
838.544	23980
838.681	23722
838.819	23786
838.956	23729
839.094	23573
839.231	23512
839.369	23794
839.506	23889
839.643	23889
839.781	23680
839.918	23562
840.055	23634
840.193	23524
840.33	23501
840.467	23558
840.604	23581
840.742	23745
840.879	23379
841.016	23471
841.153	23497
841.29	23684
841.427	23524
841.564	23440
841.701	23547
841.838	23429
841.975	23497
842.112	23402
842.249	23277
842.385	23341
842.522	23585
842.659	23372
842.796	23277
842.933	23204
843.069	23242
843.206	23307
843.343	23265
843.479	23334
843.616	23284
843.752	23018
843.889	23208
844.025	23254
844.162	23105
844.298	22987
844.435	23003
844.571	23025
844.708	23094
844.844	23296
844.98	23162
845.117	23220
845.253	23037
845.389	22911
845.525	23003
845.661	22691
845.798	22793
845.934	22850
846.07	22786
846.206	22816
846.342	22733
846.478	22740
846.614	22618
846.75	22386
846.886	22599
847.022	22641
847.158	22542
847.294	22588
847.429	22580
847.565	22341
847.701	22656
847.837	22158
847.972	22192
848.108	22185
848.244	22314
848.379	22017
848.515	22097
848.65	22188
848.786	21964
848.921	22169
849.057	22207
849.192	22105
849.328	22029
849.463	22207
849.598	22017
849.734	21956
849.869	21911
850.004	21937
850.14	21895
850.275	21812
850.41	21641
850.545	21953
850.68	21747
850.815	22006
850.95	21816
851.085	22002
851.22	22040
851.355	21934
851.49	21762
851.625	21884
851.76	21873
851.895	21850
852.03	21648
852.165	21785
852.299	21873
852.434	21884
852.569	21846
852.703	21755
852.838	21949
852.973	21945
853.107	22067
853.242	21816
853.376	21785
853.511	21538
853.645	21690
853.78	21766
853.914	21595
854.048	21667
854.183	21724
854.317	21755
854.451	21850
854.585	21549
854.72	21720
854.854	21766
854.988	21671
855.122	21698
855.256	21633
855.39	21561
855.524	21724
855.658	21705
855.792	21671
855.926	21736
856.06	21686
856.194	21759
856.327	21682
856.461	21717
856.595	21580
856.729	21728
856.862	21789
856.996	21705
857.13	21717
857.263	21709
857.397	21743
857.53	21652
857.664	21694
857.797	21755
857.931	21823
858.064	21759
858.197	21781
858.331	21667
858.464	21648
858.597	21614
858.731	21728
858.864	21530
858.997	21675
859.13	21652
859.263	21701
859.396	21812
859.529	21580
859.662	21686
859.795	21538
859.928	21671
860.061	21907
860.194	21755
860.327	21698
860.46	21671
860.592	21739
860.725	21800
860.858	21759
860.99	21629
861.123	21610
861.256	21614
861.388	21641
861.521	22428
861.653	21526
861.786	21302
861.918	21530
862.05	21538
862.183	21603
862.315	21660
862.447	21663
862.58	21663
862.712	21298
862.844	21420
862.976	21401
863.108	21477
863.24	21648
863.372	21249
863.504	21412
863.636	21504
863.768	21534
863.9	21340
864.032	21192
864.164	21252
864.296	21363
864.428	21568
864.559	21428
864.691	21485
864.823	21378
864.954	21348
865.086	21511
865.217	21272
865.349	21150
865.48	21211
865.612	21283
865.743	21329
865.875	21310
866.006	21180
866.137	21374
866.269	21252
866.4	21302
866.531	21123
866.662	21199
866.793	21116
866.924	21226
867.055	21260
867.186	21165
867.317	21150
867.448	21055
867.579	21165
867.71	21165
867.841	21150
867.972	21233
868.103	21135
868.233	21237
868.364	21195
868.495	21226
868.625	21363
868.756	21507
868.886	21439
869.017	21504
869.147	21511
869.278	21515
869.408	21450
869.539	21378
869.669	21549
869.799	21504
869.929	21526
870.06	21610
870.19	21755
870.32	21713
870.45	21827
870.58	21861
870.71	22067
870.84	21846
870.97	21884
871.1	21816
871.23	22029
871.36	21964
871.489	21930
871.619	21998
871.749	22040
871.879	22051
872.008	22169
872.138	22044
872.267	21975
872.397	21854
872.526	21869
872.656	21949
872.785	21732
872.915	22040
873.044	22112
873.173	21934
873.303	22169
873.432	22074
873.561	22196
873.69	22067
873.819	22048
873.948	22158
874.077	22070
874.206	21994
874.335	22131
874.464	22249
874.593	22421
874.722	22204
874.851	22226
874.979	22257
875.108	22261
875.237	22375
875.365	22238
875.494	22177
875.623	22253
875.751	22143
875.88	22344
876.008	22337
876.136	22440
876.265	22683
876.393	22740
876.521	22698
876.65	22759
876.778	22599
876.906	22607
877.034	22691
877.162	22634
877.29	22596
877.418	22637
877.546	22535
877.674	22653
877.802	22618
877.93	22725
878.058	22500
878.185	22516
878.313	22596
878.441	22637
878.568	22405
878.696	22569
878.824	22748
878.951	22748
879.079	22774
879.206	22831
879.333	22805
879.461	22717
879.588	22759
879.715	22831
879.842	22828
879.97	22717
880.097	22436
880.224	22432
880.351	22523
880.478	22436
880.605	22398
880.732	22557
880.859	22729
880.986	22550
881.112	22417
881.239	22280
881.366	22196
881.493	22078
881.619	22169
881.746	22021
881.872	22006
881.999	22070
882.125	21907
882.252	22082
882.378	21907
882.505	22109
882.631	22006
882.757	21804
882.883	21724
883.01	21766
883.136	21580
883.262	21629
883.388	21519
883.514	21667
883.64	21694
883.766	21561
883.892	21469
884.018	21606
884.143	21663
884.269	21705
884.395	21443
884.52	21260
884.646	21367
884.772	21233
884.897	21378
885.023	21226
885.148	21416
885.274	21526
885.399	21397
885.524	21344
885.65	21424
885.775	21374
885.9	21386
886.025	21397
886.15	21492
886.275	21245
886.4	21264
886.525	21268
886.65	21256
886.775	21252
886.9	21424
887.025	21504
887.149	21321
887.274	21279
887.399	21032
887.523	21104
887.648	21142
887.773	21066
887.897	21157
888.021	21180
888.146	21039
888.27	21165
888.395	21272
888.519	21127
888.643	21081
888.767	21199
888.891	21074
889.015	20876
889.139	20872
889.263	20838
889.387	21039
889.511	21203
889.635	20998
889.759	20838
889.883	20815
890.006	20845
890.13	20941
890.254	20937
890.377	20861
890.501	20648
890.624	20655
890.748	20636
890.871	20648
890.995	20514
891.118	20511
891.241	20465
891.364	20492
891.488	20541
891.611	20469
891.734	20541
891.857	20526
891.98	20320
892.103	20393
892.226	20492
892.349	20522
892.471	20275
892.594	20457
892.717	20507
892.839	20339
892.962	20324
893.085	20427
893.207	20355
893.33	20317
893.452	20320
893.575	20412
893.697	20271
893.819	20522
893.941	20533
894.064	20408
894.186	20218
894.308	20343
894.43	20419
894.552	20556
894.674	20438
894.796	20267
894.918	20313
895.04	20278
895.161	20476
895.283	20317
895.405	20305
895.526	20343
895.648	20358
895.769	20370
895.891	20488
896.012	20366
896.134	20423
896.255	20332
896.376	20305
896.498	20396
896.619	20404
896.74	20339
896.861	20419
896.982	20750
897.103	20769
897.224	20594
897.345	20552
897.466	20476
897.587	20469
897.708	20754
897.828	20609
897.949	20450
898.07	20454
898.19	20503
898.311	20750
898.431	20590
898.552	20583
898.672	20609
898.792	20590
898.913	20552
899.033	20446
899.153	20320
899.273	20168
899.393	20301
899.513	20389
899.633	20370
899.753	20385
899.873	20233
899.993	20339
900.113	20210
900.232	20328
900.352	20206
900.472	20145
900.591	20039
900.711	20088
900.83	20024
900.95	20233
901.069	20214
901.189	20005
901.308	19700
901.427	19704
901.546	19681
901.665	19704
901.784	19643
901.904	19567
902.023	19415
902.141	19236
902.26	19274
902.379	19293
902.498	19236
902.617	19183
902.735	19175
902.854	19183
902.973	19031
903.091	18989
903.21	18760
903.328	18802
903.446	18757
903.565	18665
903.683	18589
903.801	18677
903.919	18623
904.038	18578
904.156	18490
904.274	18467
904.392	18414
904.51	18391
904.627	18304
904.745	18445
904.863	18551
904.981	18235
905.098	18064
905.216	18133
905.334	18072
905.451	18133
905.569	18045
905.686	18068
905.803	18045
905.921	17893
906.038	17984
906.155	17859
906.272	17767
906.389	17809
906.506	17661
906.623	17684
906.74	17661
906.857	17577
906.974	17539
907.091	17802
907.208	17653
907.324	17646
907.441	17421
907.557	17474
907.674	17425
907.79	17345
907.907	17273
908.023	17410
908.139	17356
908.256	17337
908.372	17261
908.488	17235
908.604	17056
908.72	17083
908.836	16972
908.952	17048
909.068	17132
909.184	17181
909.3	17006
909.415	17181
909.531	17022
909.647	16850
909.762	16774
909.878	16687
909.993	16721
910.108	16801
910.224	16710
910.339	16641
910.454	16683
910.57	16664
910.685	16584
910.8	16771
910.915	16645
911.03	16584
911.145	16379
911.259	16356
911.374	16322
911.489	16379
911.604	16215
911.718	16074
911.833	16120
911.947	16021
912.062	15964
912.176	16044
912.291	16109
912.405	16013
912.519	16204
912.633	16230
912.748	16090
912.862	16078
912.976	15865
913.09	15759
913.204	15846
913.318	15975
913.431	16044
913.545	16067
913.659	16013
913.772	15941
913.886	15838
914	15637
914.113	15759
914.226	15804
914.34	15743
914.453	15629
914.566	15812
914.68	15553
914.793	15599
914.906	15382
915.019	15260
915.132	15279
915.245	15275
915.358	15298
915.47	15226
915.583	15275
915.696	15332
915.809	15428
915.921	15549
916.034	15207
916.146	15211
916.259	15146
916.371	15252
916.483	15214
916.595	15119
916.708	15108
916.82	15074
916.932	15119
917.044	15142
917.156	15017
917.268	14937
917.38	15017
917.491	14937
917.603	14933
917.715	15020
917.826	14960
917.938	14861
918.049	14819
918.161	14849
918.272	15047
918.384	14971
918.495	14933
918.606	14746
918.717	14667
918.828	14686
918.939	14743
919.05	14594
919.161	14727
919.272	14476
919.383	14560
919.494	14735
919.604	14857
919.715	14686
919.826	14613
919.936	14503
920.047	14804
920.157	14708
920.267	14868
920.378	14632
920.488	14670
920.598	14880
920.708	14800
920.818	14663
920.928	14693
921.038	14948
921.148	14918
921.258	14568
921.368	14438
921.477	14431
921.587	14377
921.697	14275
921.806	14355
921.916	14259
922.025	13982
922.134	14107
922.244	13989
922.353	13947
922.462	13940
922.571	13837
922.68	13761
922.789	13655
922.898	13719
923.007	13552
923.116	13742
923.224	13605
923.333	13620
923.442	13594
923.55	13476
923.659	13559
923.767	13552
923.876	13472
923.984	13556
924.092	13312
924.201	13480
924.309	13392
924.417	13411
924.525	13247
924.633	13388
924.741	14244
924.849	13137
924.956	13206
925.064	13133
925.172	12981
925.279	13034
925.387	13099
925.494	13012
925.602	13164
925.709	13072
925.816	13031
925.924	13061
926.031	13095
926.138	12939
926.245	13114
926.352	12882
926.459	13084
926.566	13027
926.673	12894
926.779	12760
926.886	12871
926.993	12677
927.099	12635
927.206	12673
927.312	12570
927.419	12589
927.525	12593
927.631	12669
927.737	12460
927.843	12528
927.95	12327
928.056	12483
928.162	12483
928.267	12498
928.373	13156
928.479	12498
928.585	12289
928.69	12369
928.796	12422
928.901	12220
929.007	12205
929.112	12338
929.218	12220
929.323	12243
929.428	12194
929.533	12304
929.638	12095
929.743	12072
929.848	12209
929.953	12205
930.058	12053
930.163	11908
930.267	11889
930.372	11973
930.477	11843
930.581	11984
930.685	11916
930.79	11695
930.894	11851
930.998	11680
931.103	11874
931.207	11463
931.311	11429
931.415	11345
931.519	11113
931.623	11094
