Data from test_V78500241_1655.txt Node
Date: Fri Mar 25 15:21:22 CST 2022
User: usil
Spectrometer: V785-0024
Trigger mode: 0
Integration Time (sec): 4.000000E-1
Scans to average: 1
Nonlinearity correction enabled: false
Boxcar width: 0
Storing dark spectrum: false
XAxis mode: Wavelengths
Number of Pixels in Spectrum: 1024
>>>>>Begin Spectral Data<<<<<
801.071	27865
801.214	27789
801.356	27599
801.499	27481
801.641	27603
801.783	27485
801.926	27507
802.068	27439
802.211	27351
802.353	27439
802.496	27245
802.638	27074
802.78	27085
802.923	27036
803.065	27142
803.208	26990
803.35	27256
803.492	27370
803.635	27313
803.777	27142
803.919	27332
804.061	27610
804.204	27439
804.346	27260
804.488	27222
804.63	27408
804.773	27291
804.915	27317
805.057	27420
805.199	27287
805.341	27401
805.483	27515
805.626	27454
805.768	27363
805.91	27458
806.052	27519
806.194	27389
806.336	27633
806.478	27367
806.62	27462
806.762	27580
806.904	27663
807.046	27994
807.188	27895
807.33	27926
807.472	27899
807.614	27660
807.756	27759
807.898	27637
808.04	27717
808.182	27663
808.324	27804
808.465	27770
808.607	27899
808.749	28093
808.891	28181
809.033	28219
809.174	28185
809.316	28109
809.458	28029
809.6	28158
809.741	28082
809.883	28226
810.025	28333
810.166	28424
810.308	28504
810.45	28436
810.591	28219
810.733	28090
810.875	28048
811.016	27918
811.158	28013
811.299	28051
811.441	28295
811.582	28253
811.724	28025
811.865	27949
812.007	28120
812.148	28120
812.29	28093
812.431	28177
812.573	28379
812.714	28394
812.855	28778
812.997	28767
813.138	28755
813.279	28687
813.421	28660
813.562	28519
813.703	28512
813.845	28394
813.986	28120
814.127	27732
814.268	27781
814.41	27781
814.551	27694
814.692	27797
814.833	27675
814.974	27762
815.115	27922
815.256	27675
815.397	27583
815.539	27701
815.68	27450
815.821	27641
815.962	27526
816.103	27530
816.244	27435
816.385	27443
816.526	27348
816.666	27154
816.807	26971
816.948	27207
817.089	27157
817.23	27165
817.371	27119
817.512	26979
817.653	27001
817.793	26815
817.934	27085
818.075	26990
818.216	26967
818.356	27055
818.497	27020
818.638	26838
818.778	26895
818.919	26864
819.06	26956
819.2	26864
819.341	26967
819.481	27001
819.622	27146
819.762	27275
819.903	27412
820.043	27283
820.184	27119
820.324	27157
820.465	27249
820.605	27138
820.746	27195
820.886	27089
821.026	27074
821.167	27062
821.307	27241
821.447	27024
821.588	26891
821.728	26731
821.868	26765
822.008	26587
822.149	26575
822.289	26526
822.429	26301
822.569	26145
822.709	26084
822.849	26092
822.99	26016
823.13	26103
823.27	26046
823.41	25883
823.55	25860
823.69	26005
823.83	26005
823.97	25822
824.11	25693
824.25	25597
824.389	25666
824.529	25791
824.669	25693
824.809	25791
824.949	25772
825.089	25811
825.228	25811
825.368	25578
825.508	25681
825.648	25540
825.787	25742
825.927	25609
826.067	25605
826.206	25548
826.346	25655
826.485	25613
826.625	25453
826.765	25761
826.904	25567
827.044	25377
827.183	25331
827.323	25263
827.462	25426
827.601	25434
827.741	25441
827.88	25392
828.02	25088
828.159	25217
828.298	25457
828.437	25392
828.577	25209
828.716	25468
828.855	25156
828.994	24943
829.134	24894
829.273	25069
829.412	24901
829.551	24886
829.69	25065
829.829	24916
829.968	25084
830.107	25080
830.246	24954
830.385	24954
830.524	24928
830.663	24833
830.802	24688
830.941	24498
831.08	24494
831.219	24521
831.357	24692
831.496	24814
831.635	24616
831.774	24502
831.913	24547
832.051	24330
832.19	24338
832.329	24460
832.467	24205
832.606	24300
832.744	24182
832.883	24391
833.022	24201
833.16	24258
833.299	24323
833.437	24342
833.576	24247
833.714	24395
833.852	24205
833.991	24281
834.129	24445
834.267	24338
834.406	24357
834.544	24361
834.682	24228
834.821	24292
834.959	24464
835.097	24289
835.235	24365
835.373	24220
835.511	24327
835.65	24235
835.788	24327
835.926	24209
836.064	23973
836.202	23980
836.34	24072
836.478	24224
836.615	24117
836.753	24190
836.891	24224
837.029	24243
837.167	24068
837.305	24133
837.443	24079
837.58	24076
837.718	24045
837.856	23977
837.993	23969
838.131	24007
838.269	23988
838.406	23916
838.544	23821
838.681	23562
838.819	23570
838.956	23429
839.094	23383
839.231	23551
839.369	23653
839.506	23828
839.643	23745
839.781	23516
839.918	23421
840.055	23585
840.193	23497
840.33	23330
840.467	23516
840.604	23299
840.742	23585
840.879	23334
841.016	23216
841.153	23353
841.29	23376
841.427	23364
841.564	23379
841.701	23417
841.838	23391
841.975	23334
842.112	23250
842.249	23356
842.385	23200
842.522	23307
842.659	23170
842.796	23083
842.933	23113
843.069	23124
843.206	23060
843.343	23197
843.479	23174
843.616	23098
843.752	22866
843.889	22930
844.025	23025
844.162	22843
844.298	23121
844.435	22816
844.571	22828
844.708	22968
844.844	23044
844.98	22930
845.117	23044
845.253	22900
845.389	22744
845.525	22740
845.661	22733
845.798	22687
845.934	22862
846.07	22573
846.206	22706
846.342	22698
846.478	22535
846.614	22367
846.75	22249
846.886	22215
847.022	22546
847.158	22459
847.294	22409
847.429	22367
847.565	22272
847.701	22523
847.837	22074
847.972	22128
848.108	22173
848.244	22109
848.379	22055
848.515	21854
848.65	21892
848.786	21892
848.921	21945
849.057	22173
849.192	21979
849.328	22021
849.463	21953
849.598	21873
849.734	21751
849.869	21869
850.004	21766
850.14	21701
850.275	21698
850.41	21610
850.545	21576
850.68	21739
850.815	21895
850.95	21850
851.085	21983
851.22	21812
851.355	21850
851.49	21663
851.625	21682
851.76	21591
851.895	21648
852.03	21599
852.165	21778
852.299	21755
852.434	21797
852.569	21739
852.703	21857
852.838	21816
852.973	21800
853.107	21861
853.242	21564
853.376	21534
853.511	21424
853.645	21511
853.78	21614
853.914	21545
854.048	21557
854.183	21469
854.317	21564
854.451	21781
854.585	21625
854.72	21462
854.854	21545
854.988	21473
855.122	21568
855.256	21462
855.39	21523
855.524	21614
855.658	21576
855.792	21557
855.926	21485
856.06	21534
856.194	21679
856.327	21652
856.461	21603
856.595	21545
856.729	21568
856.862	21682
856.996	21641
857.13	21682
857.263	21603
857.397	21641
857.53	21538
857.664	21507
857.797	21629
857.931	21682
858.064	21599
858.197	21698
858.331	21450
858.464	21549
858.597	21435
858.731	21523
858.864	21466
858.997	21526
859.13	21545
859.263	21526
859.396	21633
859.529	21595
859.662	21667
859.795	21679
859.928	21618
860.061	21641
860.194	21899
860.327	21515
860.46	21526
860.592	21599
860.725	21785
860.858	21694
860.99	21515
861.123	21401
861.256	21549
861.388	21583
861.521	22162
861.653	21530
861.786	21207
861.918	21359
862.05	21424
862.183	21466
862.315	21519
862.447	21572
862.58	21488
862.712	21378
862.844	21184
862.976	21348
863.108	21306
863.24	21671
863.372	21237
863.504	21226
863.636	21241
863.768	21332
863.9	21066
864.032	21203
864.164	21176
864.296	21401
864.428	21378
864.559	21359
864.691	21363
864.823	21313
864.954	21104
865.086	21211
865.217	21218
865.349	21108
865.48	21199
865.612	21199
865.743	21260
865.875	21252
866.006	21093
866.137	21127
866.269	21169
866.4	21131
866.531	21100
866.662	21062
866.793	20979
866.924	21020
867.055	21161
867.186	21116
867.317	21047
867.448	20918
867.579	21066
867.71	20937
867.841	21028
867.972	21017
868.103	21077
868.233	21077
868.364	21123
868.495	21096
868.625	21245
868.756	21496
868.886	21218
869.017	21332
869.147	21469
869.278	21469
869.408	21268
869.539	21287
869.669	21458
869.799	21443
869.929	21393
870.06	21363
870.19	21595
870.32	21618
870.45	21637
870.58	21652
870.71	21823
870.84	21842
870.97	21667
871.1	21690
871.23	21869
871.36	21918
871.489	21679
871.619	21972
871.749	21915
871.879	21884
872.008	22051
872.138	21945
872.267	21926
872.397	21816
872.526	21789
872.656	21778
872.785	21690
872.915	21941
873.044	22025
873.173	21934
873.303	21949
873.432	21972
873.561	22097
873.69	21899
873.819	21854
873.948	22105
874.077	21880
874.206	21907
874.335	21926
874.464	22093
874.593	22230
874.722	22017
874.851	22177
874.979	22204
875.108	22131
875.237	22177
875.365	21937
875.494	22177
875.623	22306
875.751	22181
875.88	22162
876.008	22211
876.136	22333
876.265	22489
876.393	22557
876.521	22557
876.65	22569
876.778	22519
876.906	22470
877.034	22493
877.162	22485
877.29	22485
877.418	22573
877.546	22580
877.674	22557
877.802	22485
877.93	22466
878.058	22535
878.185	22413
878.313	22375
878.441	22447
878.568	22318
878.696	22337
878.824	22485
878.951	22607
879.079	22538
879.206	22862
879.333	22596
879.461	22451
879.588	22561
879.715	22626
879.842	22797
879.97	22596
880.097	22379
880.224	22367
880.351	22436
880.478	22379
880.605	22291
880.732	22344
880.859	22394
880.986	22375
881.112	22409
881.239	22120
881.366	22044
881.493	21937
881.619	21953
881.746	21956
881.872	21918
881.999	21823
882.125	21755
882.252	21850
882.378	21892
882.505	21922
882.631	21648
882.757	21622
882.883	21648
883.01	21595
883.136	21454
883.262	21321
883.388	21374
883.514	21523
883.64	21557
883.766	21576
883.892	21275
884.018	21447
884.143	21549
884.269	21587
884.395	21302
884.52	21211
884.646	21230
884.772	21131
884.897	21214
885.023	21203
885.148	21405
885.274	21287
885.399	21325
885.524	21222
885.65	21325
885.775	21233
885.9	21154
886.025	21401
886.15	21279
886.275	21203
886.4	21089
886.525	21237
886.65	21256
886.775	21165
886.9	21264
887.025	21462
887.149	21214
887.274	21001
887.399	21039
887.523	21055
887.648	20921
887.773	21043
887.897	21085
888.021	20990
888.146	20918
888.27	21066
888.395	20998
888.519	21024
888.643	20990
888.767	21074
888.891	20880
889.015	20857
889.139	20910
889.263	20758
889.387	20933
889.511	20994
889.635	20952
889.759	20804
889.883	20765
890.006	20807
890.13	20868
890.254	20648
890.377	20648
890.501	20533
890.624	20568
890.748	20667
890.871	20461
890.995	20374
891.118	20298
891.241	20442
891.364	20317
891.488	20415
891.611	20419
891.734	20324
891.857	20396
891.98	20465
892.103	20415
892.226	20415
892.349	20339
892.471	20153
892.594	20271
892.717	20343
892.839	20294
892.962	20244
893.085	20324
893.207	20149
893.33	20164
893.452	20084
893.575	20328
893.697	20157
893.819	20400
893.941	20431
894.064	20381
894.186	20237
894.308	20161
894.43	20313
894.552	20366
894.674	20309
894.796	20157
894.918	20244
895.04	20225
895.161	20214
895.283	20218
895.405	20206
895.526	20210
895.648	20275
895.769	20309
895.891	20244
896.012	20278
896.134	20225
896.255	20267
896.376	20092
896.498	20161
896.619	20225
896.74	20157
896.861	20396
896.982	20537
897.103	20621
897.224	20621
897.345	20473
897.466	20484
897.587	20404
897.708	20560
897.828	20355
897.949	20377
898.07	20278
898.19	20393
898.311	20507
898.431	20503
898.552	20404
898.672	20499
898.792	20568
898.913	20427
899.033	20454
899.153	20374
899.273	20119
899.393	20343
899.513	20294
899.633	20195
899.753	20221
899.873	20153
899.993	20187
900.113	20195
900.232	20263
900.352	20069
900.472	20012
900.591	19970
900.711	20001
900.83	20031
900.95	20096
901.069	20107
901.189	19894
901.308	19559
901.427	19594
901.546	19601
901.665	19594
901.784	19586
901.904	19483
902.023	19259
902.141	19187
902.26	19069
902.379	19122
902.498	19080
902.617	18966
902.735	19065
902.854	18996
902.973	18905
903.091	18772
903.21	18730
903.328	18867
903.446	18608
903.565	18563
903.683	18566
903.801	18456
903.919	18467
904.038	18506
904.156	18327
904.274	18388
904.392	18251
904.51	18334
904.627	18216
904.745	18296
904.863	18342
904.981	18232
905.098	17988
905.216	18072
905.334	18068
905.451	17950
905.569	18019
905.686	17988
905.803	17882
905.921	17802
906.038	17847
906.155	17866
906.272	17668
906.389	17691
906.506	17497
906.623	17539
906.74	17535
906.857	17433
906.974	17471
907.091	17535
907.208	17634
907.324	17547
907.441	17391
907.557	17326
907.674	17235
907.79	17261
907.907	17132
908.023	17254
908.139	17231
908.256	17200
908.372	17102
908.488	17102
908.604	17018
908.72	16961
908.836	17003
908.952	16980
909.068	16965
909.184	17143
909.3	17014
909.415	16930
909.531	16927
909.647	16702
909.762	16622
909.878	16637
909.993	16634
910.108	16577
910.224	16675
910.339	16630
910.454	16580
910.57	16382
910.685	16348
910.8	16622
910.915	16584
911.03	16497
911.145	16363
911.259	16226
911.374	16287
911.489	16116
911.604	16135
911.718	16063
911.833	15953
911.947	15911
912.062	15759
912.176	15960
912.291	15987
912.405	15835
912.519	16101
912.633	16124
912.748	16013
912.862	15915
912.976	15785
913.09	15743
913.204	15717
913.318	15743
913.431	15937
913.545	15861
913.659	15899
913.772	15739
913.886	15641
914	15656
914.113	15713
914.226	15717
914.34	15652
914.453	15466
914.566	15625
914.68	15504
914.793	15439
914.906	15256
915.019	15226
915.132	15081
915.245	15230
915.358	15135
915.47	15287
915.583	15279
915.696	15230
915.809	15340
915.921	15325
916.034	14986
916.146	15165
916.259	15119
916.371	15222
916.483	15119
916.595	15013
916.708	15089
916.82	15119
916.932	14963
917.044	15001
917.156	15005
917.268	14876
917.38	14918
917.491	14800
917.603	14800
917.715	14910
917.826	14952
917.938	14750
918.049	14777
918.161	14868
918.272	14872
918.384	14952
918.495	14880
918.606	14693
918.717	14522
918.828	14655
918.939	14598
919.05	14499
919.161	14571
919.272	14408
919.383	14461
919.494	14590
919.604	14788
919.715	14648
919.826	14461
919.936	14632
920.047	14682
920.157	14514
920.267	14788
920.378	14541
920.488	14556
920.598	14826
920.708	14941
920.818	14670
920.928	14686
921.038	14826
921.148	14796
921.258	14488
921.368	14446
921.477	14415
921.587	14298
921.697	14161
921.806	14404
921.916	14092
922.025	14031
922.134	13879
922.244	13887
922.353	14035
922.462	13746
922.571	13837
922.68	13639
922.789	13537
922.898	13552
923.007	13533
923.116	13628
923.224	13575
923.333	13533
923.442	13480
923.55	13495
923.659	13506
923.767	13491
923.876	13411
923.984	13400
924.092	13400
924.201	13373
924.309	13362
924.417	13346
924.525	13308
924.633	13255
924.741	14180
924.849	13099
924.956	13244
925.064	13004
925.172	12989
925.279	12897
925.387	13015
925.494	12966
925.602	13183
925.709	13038
925.816	12920
925.924	12973
926.031	13015
926.138	13053
926.245	12993
926.352	12852
926.459	12920
926.566	12939
926.673	12920
926.779	12692
926.886	12642
926.993	12616
927.099	12585
927.206	12494
927.312	12429
927.419	12612
927.525	12471
927.631	12589
927.737	12475
927.843	12521
927.95	12338
928.056	12433
928.162	12391
928.267	12429
928.373	12993
928.479	12467
928.585	12197
928.69	12376
928.796	12346
928.901	12159
929.007	12083
929.112	12292
929.218	12285
929.323	12095
929.428	12098
929.533	12243
929.638	12110
929.743	12129
929.848	12053
929.953	12011
930.058	11885
930.163	11802
930.267	11855
930.372	11935
930.477	11748
930.581	12007
930.685	11889
930.79	11642
930.894	11646
930.998	11729
931.103	11878
931.207	11372
931.311	11414
931.415	11258
931.519	11090
931.623	11029
