Data from test_V78500241_1409.txt Node
Date: Fri Mar 25 15:19:40 CST 2022
User: usil
Spectrometer: V785-0024
Trigger mode: 0
Integration Time (sec): 4.000000E-1
Scans to average: 1
Nonlinearity correction enabled: false
Boxcar width: 0
Storing dark spectrum: false
XAxis mode: Wavelengths
Number of Pixels in Spectrum: 1024
>>>>>Begin Spectral Data<<<<<
801.071	28215
801.214	27983
801.356	27903
801.499	27800
801.641	27652
801.783	27656
801.926	27827
802.068	27576
802.211	27549
802.353	27675
802.496	27237
802.638	27359
802.78	27348
802.923	27245
803.065	27264
803.208	27256
803.35	27355
803.492	27393
803.635	27603
803.777	27458
803.919	27492
804.061	27880
804.204	27641
804.346	27568
804.488	27405
804.63	27576
804.773	27321
804.915	27496
805.057	27614
805.199	27545
805.341	27603
805.483	27732
805.626	27663
805.768	27717
805.91	27682
806.052	27907
806.194	27561
806.336	27895
806.478	27724
806.62	27728
806.762	27774
806.904	27956
807.046	28265
807.188	28135
807.33	28124
807.472	28112
807.614	28265
807.756	28078
807.898	28040
808.04	27835
808.182	27941
808.324	28040
808.465	28086
808.607	28261
808.749	28341
808.891	28421
809.033	28538
809.174	28299
809.316	28329
809.458	28424
809.6	28329
809.741	28485
809.883	28557
810.025	28683
810.166	28668
810.308	28828
810.45	28443
810.591	28538
810.733	28398
810.875	28280
811.016	28287
811.158	28291
811.299	28474
811.441	28485
811.582	28474
811.724	28371
811.865	28394
812.007	28390
812.148	28398
812.29	28436
812.431	28474
812.573	28618
812.714	28892
812.855	28881
812.997	28908
813.138	29128
813.279	29098
813.421	28938
813.562	28850
813.703	28748
813.845	28588
813.986	28295
814.127	28223
814.268	28044
814.41	28215
814.551	28173
814.692	28082
814.833	27987
814.974	28063
815.115	28082
815.256	28078
815.397	27991
815.539	27903
815.68	27922
815.821	27854
815.962	27819
816.103	27884
816.244	27778
816.385	27606
816.526	27545
816.666	27580
816.807	27321
816.948	27416
817.089	27393
817.23	27393
817.371	27302
817.512	27477
817.653	27355
817.793	27272
817.934	27275
818.075	27504
818.216	27298
818.356	27348
818.497	27233
818.638	27093
818.778	27081
818.919	27127
819.06	27279
819.2	27313
819.341	27348
819.481	27367
819.622	27420
819.762	27629
819.903	27561
820.043	27553
820.184	27454
820.324	27485
820.465	27614
820.605	27606
820.746	27393
820.886	27298
821.026	27473
821.167	27420
821.307	27435
821.447	27367
821.588	27180
821.728	27112
821.868	27009
822.008	26921
822.149	26815
822.289	26792
822.429	26636
822.569	26442
822.709	26522
822.849	26324
822.99	26404
823.13	26267
823.27	26252
823.41	26138
823.55	26096
823.69	26107
823.83	26130
823.97	26157
824.11	25887
824.25	26001
824.389	25909
824.529	26043
824.669	26031
824.809	26221
824.949	26214
825.089	26073
825.228	25917
825.368	25925
825.508	25936
825.648	25936
825.787	26005
825.927	25887
826.067	25818
826.206	25928
826.346	25856
826.485	25894
826.625	25841
826.765	25959
826.904	26031
827.044	25571
827.183	25639
827.323	25491
827.462	25681
827.601	25643
827.741	25620
827.88	25685
828.02	25510
828.159	25487
828.298	25586
828.437	25563
828.577	25590
828.716	25727
828.855	25449
828.994	25335
829.134	25377
829.273	25304
829.412	25202
829.551	25221
829.69	25251
829.829	25343
829.968	25312
830.107	25297
830.246	25327
830.385	25168
830.524	25091
830.663	25202
830.802	24996
830.941	24795
831.08	24875
831.219	25000
831.357	25008
831.496	25164
831.635	24882
831.774	24867
831.913	24833
832.051	24654
832.19	24642
832.329	24707
832.467	24608
832.606	24483
832.744	24509
832.883	24456
833.022	24509
833.16	24650
833.299	24604
833.437	24528
833.576	24597
833.714	24673
833.852	24650
833.991	24570
834.129	24608
834.267	24563
834.406	24570
834.544	24608
834.682	24661
834.821	24597
834.959	24814
835.097	24574
835.235	24677
835.373	24525
835.511	24608
835.65	24456
835.788	24536
835.926	24350
836.064	24205
836.202	24182
836.34	24467
836.478	24483
836.615	24391
836.753	24437
836.891	24448
837.029	24528
837.167	24380
837.305	24418
837.443	24323
837.58	24136
837.718	24281
837.856	24277
837.993	24201
838.131	24289
838.269	24178
838.406	24182
838.544	24167
838.681	23923
838.819	23893
838.956	23707
839.094	23821
839.231	23836
839.369	23805
839.506	24270
839.643	23950
839.781	23661
839.918	23653
840.055	23767
840.193	23661
840.33	23512
840.467	23630
840.604	23630
840.742	23836
840.879	23611
841.016	23638
841.153	23710
841.29	23657
841.427	23611
841.564	23668
841.701	23581
841.838	23497
841.975	23604
842.112	23585
842.249	23482
842.385	23318
842.522	23630
842.659	23459
842.796	23349
842.933	23360
843.069	23318
843.206	23330
843.343	23478
843.479	23349
843.616	23429
843.752	23098
843.889	23261
844.025	23372
844.162	23128
844.298	23280
844.435	23060
844.571	23147
844.708	23292
844.844	23151
844.98	23364
845.117	23273
845.253	23181
845.389	23121
845.525	23071
845.661	23037
845.798	22797
845.934	22946
846.07	22999
846.206	22866
846.342	22995
846.478	22782
846.614	22759
846.75	22664
846.886	22603
847.022	22694
847.158	22653
847.294	22691
847.429	22816
847.565	22580
847.701	22862
847.837	22394
847.972	22344
848.108	22493
848.244	22535
848.379	22337
848.515	22219
848.65	22166
848.786	22188
848.921	22253
849.057	22280
849.192	22356
849.328	22325
849.463	22295
849.598	22120
849.734	22128
849.869	22051
850.004	22006
850.14	21949
850.275	22082
850.41	21873
850.545	21960
850.68	21949
850.815	22025
850.95	22013
851.085	22078
851.22	21979
851.355	21998
851.49	22059
851.625	21941
851.76	21941
851.895	21934
852.03	21835
852.165	21838
852.299	21903
852.434	22143
852.569	22185
852.703	21979
852.838	21945
852.973	22200
853.107	22082
853.242	21987
853.376	21899
853.511	21816
853.645	21762
853.78	21907
853.914	21892
854.048	21884
854.183	21781
854.317	21922
854.451	21991
854.585	21861
854.72	21800
854.854	21869
854.988	21743
855.122	21819
855.256	21698
855.39	21827
855.524	21911
855.658	21861
855.792	21846
855.926	21785
856.06	21926
856.194	21945
856.327	21835
856.461	21861
856.595	21778
856.729	21739
856.862	21926
856.996	21846
857.13	21850
857.263	21991
857.397	21998
857.53	21895
857.664	21922
857.797	21941
857.931	21930
858.064	21903
858.197	21869
858.331	21766
858.464	21808
858.597	21762
858.731	21846
858.864	21713
858.997	21812
859.13	21838
859.263	21831
859.396	21899
859.529	21743
859.662	21778
859.795	21880
859.928	21880
860.061	21960
860.194	22082
860.327	21842
860.46	21713
860.592	21953
860.725	21937
860.858	21888
860.99	21812
861.123	21736
861.256	21743
861.388	21747
861.521	22344
861.653	21819
861.786	21739
861.918	21701
862.05	21682
862.183	21739
862.315	21747
862.447	21835
862.58	21736
862.712	21564
862.844	21447
862.976	21713
863.108	21698
863.24	21953
863.372	21519
863.504	21469
863.636	21515
863.768	21652
863.9	21549
864.032	21549
864.164	21523
864.296	21485
864.428	21526
864.559	21580
864.691	21534
864.823	21534
864.954	21424
865.086	21553
865.217	21355
865.349	21355
865.48	21458
865.612	21401
865.743	21652
865.875	21405
866.006	21386
866.137	21401
866.269	21374
866.4	21447
866.531	21298
866.662	21336
866.793	21401
866.924	21431
867.055	21504
867.186	21359
867.317	21275
867.448	21294
867.579	21351
867.71	21241
867.841	21306
867.972	21291
868.103	21279
868.233	21275
868.364	21428
868.495	21397
868.625	21595
868.756	21682
868.886	21492
869.017	21504
869.147	21709
869.278	21751
869.408	21671
869.539	21595
869.669	21686
869.799	21637
869.929	21641
870.06	21732
870.19	21751
870.32	21762
870.45	21915
870.58	21960
870.71	22097
870.84	22006
870.97	22036
871.1	22048
871.23	22192
871.36	22166
871.489	22063
871.619	22105
871.749	22097
871.879	22257
872.008	22318
872.138	22261
872.267	22120
872.397	21960
872.526	21934
872.656	22078
872.785	21972
872.915	22158
873.044	22329
873.173	22162
873.303	22325
873.432	22246
873.561	22322
873.69	22105
873.819	22135
873.948	22169
874.077	22230
874.206	22116
874.335	22276
874.464	22333
874.593	22314
874.722	22405
874.851	22398
874.979	22379
875.108	22523
875.237	22265
875.365	22249
875.494	22329
875.623	22409
875.751	22344
875.88	22432
876.008	22569
876.136	22580
876.265	22866
876.393	23033
876.521	22790
876.65	22843
876.778	22809
876.906	22755
877.034	22782
877.162	22767
877.29	22698
877.418	22615
877.546	22717
877.674	22641
877.802	22713
877.93	22702
878.058	22748
878.185	22713
878.313	22740
878.441	22736
878.568	22535
878.696	22702
878.824	22793
878.951	22820
879.079	22854
879.206	23128
879.333	22831
879.461	22729
879.588	22809
879.715	22881
879.842	22980
879.97	22790
880.097	22713
880.224	22656
880.351	22649
880.478	22527
880.605	22584
880.732	22679
880.859	22664
880.986	22569
881.112	22592
881.239	22375
881.366	22386
881.493	22131
881.619	22299
881.746	22002
881.872	22143
881.999	22143
882.125	22055
882.252	22196
882.378	22135
882.505	22177
882.631	22021
882.757	21774
882.883	21865
883.01	21800
883.136	21747
883.262	21774
883.388	21625
883.514	21835
883.64	21728
883.766	21812
883.892	21663
884.018	21652
884.143	21747
884.269	21922
884.395	21466
884.52	21420
884.646	21492
884.772	21355
884.897	21439
885.023	21420
885.148	21462
885.274	21633
885.399	21443
885.524	21466
885.65	21439
885.775	21496
885.9	21500
886.025	21606
886.15	21523
886.275	21382
886.4	21340
886.525	21435
886.65	21351
886.775	21355
886.9	21496
887.025	21682
887.149	21412
887.274	21214
887.399	21275
887.523	21218
887.648	21272
887.773	21074
887.897	21245
888.021	21127
888.146	21165
888.27	21389
888.395	21241
888.519	21291
888.643	21226
888.767	21313
888.891	21192
889.015	20944
889.139	21070
889.263	20853
889.387	21169
889.511	21222
889.635	21165
889.759	21036
889.883	21047
890.006	21020
890.13	21062
890.254	20849
890.377	20883
890.501	20708
890.624	20842
890.748	20800
890.871	20560
890.995	20503
891.118	20503
891.241	20571
891.364	20621
891.488	20739
891.611	20598
891.734	20640
891.857	20724
891.98	20568
892.103	20651
892.226	20552
892.349	20541
892.471	20423
892.594	20526
892.717	20469
892.839	20492
892.962	20469
893.085	20511
893.207	20522
893.33	20275
893.452	20286
893.575	20396
893.697	20400
893.819	20682
893.941	20655
894.064	20621
894.186	20503
894.308	20419
894.43	20590
894.552	20579
894.674	20549
894.796	20434
894.918	20343
895.04	20507
895.161	20560
895.283	20625
895.405	20332
895.526	20415
895.648	20377
895.769	20377
895.891	20476
896.012	20556
896.134	20469
896.255	20431
896.376	20271
896.498	20473
896.619	20469
896.74	20408
896.861	20594
896.982	20861
897.103	20819
897.224	20777
897.345	20716
897.466	20556
897.587	20617
897.708	20792
897.828	20712
897.949	20484
898.07	20476
898.19	20545
898.311	20785
898.431	20530
898.552	20731
898.672	20651
898.792	20804
898.913	20678
899.033	20590
899.153	20450
899.273	20412
899.393	20370
899.513	20522
899.633	20438
899.753	20415
899.873	20332
899.993	20393
900.113	20301
900.232	20442
900.352	20324
900.472	20275
900.591	20180
900.711	20210
900.83	20126
900.95	20336
901.069	20195
901.189	20062
901.308	19826
901.427	19887
901.546	19769
901.665	19784
901.784	19822
901.904	19613
902.023	19430
902.141	19293
902.26	19369
902.379	19255
902.498	19244
902.617	19289
902.735	19377
902.854	19282
902.973	19187
903.091	18970
903.21	18935
903.328	18913
903.446	18833
903.565	18715
903.683	18738
903.801	18566
903.919	18715
904.038	18661
904.156	18464
904.274	18700
904.392	18407
904.51	18433
904.627	18376
904.745	18498
904.863	18566
904.981	18277
905.098	18148
905.216	18114
905.334	18232
905.451	18148
905.569	18125
905.686	18235
905.803	18171
905.921	17999
906.038	18034
906.155	18038
906.272	17878
906.389	17923
906.506	17745
906.623	17722
906.74	17695
906.857	17627
906.974	17657
907.091	17840
907.208	17836
907.324	17756
907.441	17649
907.557	17425
907.674	17406
907.79	17429
907.907	17326
908.023	17478
908.139	17455
908.256	17398
908.372	17395
908.488	17383
908.604	17136
908.72	17136
908.836	17128
908.952	17204
909.068	17239
909.184	17299
909.3	17170
909.415	17117
909.531	17098
909.647	16892
909.762	16904
909.878	16748
909.993	16809
910.108	16717
910.224	16721
910.339	16763
910.454	16588
910.57	16656
910.685	16630
910.8	16885
910.915	16801
911.03	16641
911.145	16504
911.259	16379
911.374	16303
911.489	16325
911.604	16344
911.718	16116
911.833	16276
911.947	16166
912.062	16055
912.176	16181
912.291	16131
912.405	16181
912.519	16284
912.633	16333
912.748	16135
912.862	16063
912.976	16002
913.09	15880
913.204	15945
913.318	15991
913.431	16063
913.545	15987
913.659	16169
913.772	15888
913.886	15846
914	15838
914.113	15823
914.226	15945
914.34	15842
914.453	15686
914.566	15705
914.68	15644
914.793	15720
914.906	15443
915.019	15382
915.132	15279
915.245	15405
915.358	15424
915.47	15431
915.583	15458
915.696	15431
915.809	15526
915.921	15542
916.034	15310
916.146	15211
916.259	15306
916.371	15317
916.483	15370
916.595	15268
916.708	15142
916.82	15203
916.932	15154
917.044	15146
917.156	15108
917.268	14994
917.38	14998
917.491	14982
917.603	15047
917.715	15176
917.826	15032
917.938	14914
918.049	14864
918.161	15062
918.272	15131
918.384	15081
918.495	14925
918.606	14785
918.717	14785
918.828	14815
918.939	14781
919.05	14724
919.161	14800
919.272	14583
919.383	14598
919.494	14845
919.604	15043
919.715	14689
919.826	14621
919.936	14701
920.047	14735
920.157	14739
920.267	14845
920.378	14765
920.488	14708
920.598	14982
920.708	15005
920.818	14826
920.928	14921
921.038	14975
921.148	14906
921.258	14716
921.368	14663
921.477	14431
921.587	14457
921.697	14339
921.806	14438
921.916	14336
922.025	14035
922.134	14168
922.244	14100
922.353	14240
922.462	14008
922.571	13890
922.68	13719
922.789	13780
922.898	13712
923.007	13685
923.116	13757
923.224	13761
923.333	13685
923.442	13552
923.55	13540
923.659	13590
923.767	13696
923.876	13559
923.984	13590
924.092	13441
924.201	13582
924.309	13453
924.417	13415
924.525	13354
924.633	13407
924.741	14176
924.849	13164
924.956	13331
925.064	13168
925.172	13023
925.279	13122
925.387	13198
925.494	13076
925.602	13213
925.709	13228
925.816	13080
925.924	13110
926.031	13183
926.138	13133
926.245	13156
926.352	13034
926.459	13046
926.566	13126
926.673	12977
926.779	12810
926.886	12859
926.993	12719
927.099	12772
927.206	12722
927.312	12650
927.419	12757
927.525	12665
927.631	12715
927.737	12601
927.843	12551
927.95	12426
928.056	12517
928.162	12528
928.267	12494
928.373	13149
928.479	12677
928.585	12308
928.69	12483
928.796	12479
928.901	12330
929.007	12273
929.112	12429
929.218	12254
929.323	12216
929.428	12258
929.533	12437
929.638	12148
929.743	12205
929.848	12190
929.953	12155
930.058	12114
930.163	11965
930.267	11946
930.372	12163
930.477	11992
930.581	12144
930.685	11999
930.79	11802
930.894	11817
930.998	11767
931.103	11885
931.207	11570
931.311	11573
931.415	11360
931.519	11311
931.623	11185
