Data from test_V78500241_3187.txt Node
Date: Fri Mar 25 15:32:03 CST 2022
User: usil
Spectrometer: V785-0024
Trigger mode: 0
Integration Time (sec): 4.000000E-1
Scans to average: 1
Nonlinearity correction enabled: false
Boxcar width: 0
Storing dark spectrum: false
XAxis mode: Wavelengths
Number of Pixels in Spectrum: 1024
>>>>>Begin Spectral Data<<<<<
801.071	27195
801.214	27142
801.356	26925
801.499	26819
801.641	26765
801.783	26499
801.926	26655
802.068	26533
802.211	26716
802.353	26442
802.496	26484
802.638	26358
802.78	26286
802.923	26103
803.065	26172
803.208	26199
803.35	26259
803.492	26438
803.635	26400
803.777	26218
803.919	26419
804.061	26868
804.204	26575
804.346	26431
804.488	26480
804.63	26469
804.773	26393
804.915	26514
805.057	26450
805.199	26469
805.341	26522
805.483	26644
805.626	26663
805.768	26507
805.91	26499
806.052	26644
806.194	26511
806.336	26792
806.478	26415
806.62	26438
806.762	26617
806.904	26777
807.046	26918
807.188	26948
807.33	27070
807.472	26971
807.614	26887
807.756	26986
807.898	26743
808.04	26697
808.182	26746
808.324	26815
808.465	26952
808.607	26967
808.749	27184
808.891	27287
809.033	27176
809.174	27146
809.316	27294
809.458	27108
809.6	26990
809.741	27252
809.883	27237
810.025	27526
810.166	27405
810.308	27481
810.45	27363
810.591	27351
810.733	27279
810.875	27142
811.016	27116
811.158	27096
811.299	27161
811.441	27249
811.582	27275
811.724	27043
811.865	27062
812.007	26982
812.148	27081
812.29	27142
812.431	27386
812.573	27302
812.714	27717
812.855	27618
812.997	27682
813.138	27827
813.279	27682
813.421	27675
813.562	27614
813.703	27405
813.845	27302
813.986	26967
814.127	26887
814.268	26830
814.41	26697
814.551	26739
814.692	26830
814.833	26762
814.974	26659
815.115	26720
815.256	26731
815.397	26716
815.539	26655
815.68	26689
815.821	26533
815.962	26545
816.103	26438
816.244	26370
816.385	26400
816.526	26259
816.666	26164
816.807	26020
816.948	26081
817.089	26149
817.23	26069
817.371	25970
817.512	26058
817.653	26046
817.793	25978
817.934	26065
818.075	26130
818.216	26081
818.356	25951
818.497	25936
818.638	25666
818.778	25761
818.919	25772
819.06	25845
819.2	26081
819.341	25944
819.481	25928
819.622	26142
819.762	26298
819.903	26259
820.043	26263
820.184	26183
820.324	26043
820.465	26172
820.605	26187
820.746	26096
820.886	25978
821.026	26153
821.167	26092
821.307	26157
821.447	25970
821.588	25883
821.728	25845
821.868	25609
822.008	25487
822.149	25533
822.289	25529
822.429	25240
822.569	25137
822.709	25141
822.849	24989
822.99	25034
823.13	24981
823.27	24909
823.41	24913
823.55	24688
823.69	24814
823.83	24844
823.97	24757
824.11	24696
824.25	24589
824.389	24650
824.529	24707
824.669	24544
824.809	24642
824.949	24779
825.089	24669
825.228	24734
825.368	24650
825.508	24357
825.648	24460
825.787	24528
825.927	24502
826.067	24418
826.206	24498
826.346	24525
826.485	24525
826.625	24563
826.765	24555
826.904	24608
827.044	24296
827.183	24258
827.323	24087
827.462	24247
827.601	24174
827.741	24194
827.88	24220
828.02	24087
828.159	24186
828.298	24159
828.437	24235
828.577	24171
828.716	24224
828.855	23988
828.994	23992
829.134	23912
829.273	24026
829.412	23904
829.551	23870
829.69	23893
829.829	23931
829.968	23980
830.107	24030
830.246	23920
830.385	23798
830.524	23794
830.663	23916
830.802	23668
830.941	23421
831.08	23353
831.219	23745
831.357	23589
831.496	23798
831.635	23448
831.774	23414
831.913	23307
832.051	23292
832.19	23353
832.329	23318
832.467	23242
832.606	23136
832.744	23155
832.883	23250
833.022	23250
833.16	23220
833.299	23318
833.437	23254
833.576	23406
833.714	23299
833.852	23349
833.991	23387
834.129	23448
834.267	23318
834.406	23280
834.544	23322
834.682	23212
834.821	23326
834.959	23364
835.097	23296
835.235	23200
835.373	23395
835.511	23284
835.65	23254
835.788	23105
835.926	23067
836.064	22961
836.202	23003
836.34	23105
836.478	23204
836.615	22968
836.753	23140
836.891	23140
837.029	23079
837.167	23014
837.305	23033
837.443	23105
837.58	23071
837.718	22862
837.856	22942
837.993	22896
838.131	22900
838.269	22953
838.406	22854
838.544	22710
838.681	22618
838.819	22630
838.956	22516
839.094	22493
839.231	22424
839.369	22626
839.506	22812
839.643	22729
839.781	22512
839.918	22443
840.055	22485
840.193	22333
840.33	22436
840.467	22470
840.604	22466
840.742	22733
840.879	22333
841.016	22348
841.153	22310
841.29	22550
841.427	22413
841.564	22405
841.701	22409
841.838	22318
841.975	22291
842.112	22299
842.249	22287
842.385	22154
842.522	22348
842.659	22261
842.796	22067
842.933	22120
843.069	22150
843.206	21998
843.343	22150
843.479	22120
843.616	22109
843.752	21953
843.889	21930
844.025	22070
844.162	21991
844.298	22040
844.435	21903
844.571	21895
844.708	22021
844.844	22006
844.98	22025
845.117	22063
845.253	21918
845.389	21850
845.525	21812
845.661	21709
845.798	21583
845.934	21739
846.07	21587
846.206	21770
846.342	21850
846.478	21667
846.614	21386
846.75	21405
846.886	21287
847.022	21542
847.158	21568
847.294	21405
847.429	21431
847.565	21454
847.701	21595
847.837	21150
847.972	21085
848.108	21169
848.244	21195
848.379	21089
848.515	21070
848.65	20899
848.786	20960
848.921	20986
849.057	21043
849.192	21100
849.328	21032
849.463	21013
849.598	20880
849.734	20811
849.869	20868
850.004	20773
850.14	20834
850.275	20864
850.41	20617
850.545	20705
850.68	20731
850.815	20811
850.95	20773
851.085	20914
851.22	20899
851.355	20720
851.49	20697
851.625	20765
851.76	20727
851.895	20712
852.03	20724
852.165	20849
852.299	20861
852.434	20918
852.569	20811
852.703	20815
852.838	20762
852.973	20861
853.107	20948
853.242	20735
853.376	20590
853.511	20488
853.645	20549
853.78	20743
853.914	20617
854.048	20629
854.183	20541
854.317	20606
854.451	20853
854.585	20568
854.72	20606
854.854	20632
854.988	20431
855.122	20598
855.256	20476
855.39	20629
855.524	20674
855.658	20632
855.792	20617
855.926	20629
856.06	20655
856.194	20598
856.327	20518
856.461	20492
856.595	20514
856.729	20514
856.862	20762
856.996	20568
857.13	20564
857.263	20686
857.397	20663
857.53	20648
857.664	20606
857.797	20689
857.931	20575
858.064	20609
858.197	20678
858.331	20609
858.464	20594
858.597	20526
858.731	20556
858.864	20613
858.997	20568
859.13	20629
859.263	20556
859.396	20579
859.529	20545
859.662	20636
859.795	20438
859.928	20594
860.061	20804
860.194	20716
860.327	20651
860.46	20602
860.592	20743
860.725	20735
860.858	20716
860.99	20716
861.123	20518
861.256	20495
861.388	20503
861.521	21214
861.653	20492
861.786	20404
861.918	20488
862.05	20514
862.183	20583
862.315	20590
862.447	20457
862.58	20530
862.712	20370
862.844	20225
862.976	20412
863.108	20385
863.24	20739
863.372	20286
863.504	20271
863.636	20183
863.768	20404
863.9	20362
864.032	20320
864.164	20317
864.296	20298
864.428	20423
864.559	20328
864.691	20415
864.823	20336
864.954	20347
865.086	20199
865.217	20244
865.349	20206
865.48	20218
865.612	20180
865.743	20237
865.875	20180
866.006	20191
866.137	20103
866.269	20221
866.4	20149
866.531	20180
866.662	20149
866.793	20210
866.924	20180
867.055	20172
867.186	20176
867.317	20191
867.448	20142
867.579	20168
867.71	20092
867.841	19993
867.972	20149
868.103	20145
868.233	20218
868.364	20092
868.495	20294
868.625	20317
868.756	20514
868.886	20263
869.017	20320
869.147	20514
869.278	20488
869.408	20465
869.539	20415
869.669	20526
869.799	20332
869.929	20526
870.06	20549
870.19	20750
870.32	20712
870.45	20765
870.58	20849
870.71	20834
870.84	20948
870.97	20838
871.1	20906
871.23	21005
871.36	21043
871.489	20872
871.619	21028
871.749	21001
871.879	21169
872.008	21081
872.138	21043
872.267	20952
872.397	20998
872.526	20800
872.656	20849
872.785	20788
872.915	21074
873.044	21062
873.173	21024
873.303	21085
873.432	21104
873.561	21112
873.69	21135
873.819	20960
873.948	21081
874.077	20975
874.206	20948
874.335	20963
874.464	21150
874.593	21370
874.722	21252
874.851	21275
874.979	21207
875.108	21264
875.237	21195
875.365	21218
875.494	21211
875.623	21363
875.751	21249
875.88	21325
876.008	21458
876.136	21637
876.265	21690
876.393	21781
876.521	21827
876.65	21732
876.778	21739
876.906	21747
877.034	21720
877.162	21759
877.29	21515
877.418	21709
877.546	21591
877.674	21679
877.802	21526
877.93	21808
878.058	21511
878.185	21481
878.313	21557
878.441	21595
878.568	21526
878.696	21549
878.824	21595
878.951	21709
879.079	21739
879.206	21819
879.333	21797
879.461	21614
879.588	21759
879.715	21778
879.842	22021
879.97	21675
880.097	21545
880.224	21534
880.351	21534
880.478	21420
880.605	21340
880.732	21507
880.859	21675
880.986	21412
881.112	21576
881.239	21332
881.366	21157
881.493	21051
881.619	21024
881.746	21119
881.872	20941
881.999	21066
882.125	21055
882.252	21074
882.378	21020
882.505	21157
882.631	20887
882.757	20834
882.883	20686
883.01	20724
883.136	20701
883.262	20693
883.388	20659
883.514	20632
883.64	20743
883.766	20758
883.892	20412
884.018	20568
884.143	20697
884.269	20853
884.395	20480
884.52	20240
884.646	20393
884.772	20355
884.897	20328
885.023	20469
885.148	20431
885.274	20541
885.399	20522
885.524	20495
885.65	20438
885.775	20423
885.9	20419
886.025	20476
886.15	20469
886.275	20339
886.4	20263
886.525	20415
886.65	20324
886.775	20278
886.9	20480
887.025	20564
887.149	20442
887.274	20210
887.399	20180
887.523	20164
887.648	20134
887.773	20050
887.897	20164
888.021	20221
888.146	20035
888.27	20256
888.395	20358
888.519	20157
888.643	20271
888.767	20210
888.891	20062
889.015	19925
889.139	19986
889.263	19955
889.387	20111
889.511	20164
889.635	20138
889.759	19932
889.883	20012
890.006	19925
890.13	20065
890.254	19940
890.377	19963
890.501	19753
890.624	19803
890.748	19696
890.871	19556
890.995	19514
891.118	19426
891.241	19632
891.364	19635
891.488	19655
891.611	19525
891.734	19525
891.857	19613
891.98	19571
892.103	19605
892.226	19552
892.349	19487
892.471	19392
892.594	19434
892.717	19597
892.839	19480
892.962	19411
893.085	19510
893.207	19335
893.33	19274
893.452	19400
893.575	19495
893.697	19563
893.819	19594
893.941	19613
894.064	19540
894.186	19407
894.308	19407
894.43	19582
894.552	19632
894.674	19559
894.796	19403
894.918	19441
895.04	19422
895.161	19582
895.283	19597
895.405	19438
895.526	19419
895.648	19487
895.769	19460
895.891	19510
896.012	19445
896.134	19567
896.255	19460
896.376	19415
896.498	19514
896.619	19533
896.74	19544
896.861	19559
896.982	19841
897.103	20012
897.224	19837
897.345	19772
897.466	19624
897.587	19788
897.708	19738
897.828	19719
897.949	19639
898.07	19594
898.19	19651
898.311	19750
898.431	19552
898.552	19841
898.672	19852
898.792	19784
898.913	19788
899.033	19632
899.153	19597
899.273	19483
899.393	19483
899.513	19571
899.633	19544
899.753	19453
899.873	19434
899.993	19487
900.113	19453
900.232	19396
900.352	19362
900.472	19289
900.591	19228
900.711	19270
900.83	19236
900.95	19270
901.069	19362
901.189	19133
901.308	18840
901.427	18833
901.546	18875
901.665	18924
901.784	18859
901.904	18734
902.023	18658
902.141	18448
902.26	18357
902.379	18460
902.498	18292
902.617	18311
902.735	18426
902.854	18357
902.973	18289
903.091	17939
903.21	18019
903.328	18041
903.446	17912
903.565	17771
903.683	17866
903.801	17752
903.919	17805
904.038	17885
904.156	17630
904.274	17680
904.392	17600
904.51	17699
904.627	17573
904.745	17687
904.863	17623
904.981	17425
905.098	17334
905.216	17273
905.334	17448
905.451	17303
905.569	17223
905.686	17311
905.803	17356
905.921	16911
906.038	17178
906.155	17010
906.272	16984
906.389	17022
906.506	16938
906.623	16881
906.74	16778
906.857	16809
906.974	16744
907.091	16778
907.208	16915
907.324	16949
907.441	16702
907.557	16580
907.674	16538
907.79	16512
907.907	16531
908.023	16546
908.139	16599
908.256	16645
908.372	16474
908.488	16436
908.604	16272
908.72	16246
908.836	16314
908.952	16306
909.068	16341
909.184	16325
909.3	16310
909.415	16341
909.531	16322
909.647	16074
909.762	15972
909.878	15895
909.993	16051
910.108	16025
910.224	15865
910.339	15964
910.454	15892
910.57	15831
910.685	15736
910.8	16006
910.915	15972
911.03	15922
911.145	15644
911.259	15591
911.374	15580
911.489	15542
911.604	15466
911.718	15439
911.833	15401
911.947	15340
912.062	15230
912.176	15450
912.291	15367
912.405	15496
912.519	15591
912.633	15492
912.748	15374
912.862	15268
912.976	15157
913.09	15146
913.204	15169
913.318	15154
913.431	15161
913.545	15260
913.659	15302
913.772	15184
913.886	15028
914	14967
914.113	15039
914.226	15066
914.34	14982
914.453	14944
914.566	15013
914.68	14861
914.793	14872
914.906	14598
915.019	14564
915.132	14560
915.245	14537
915.358	14590
915.47	14651
915.583	14670
915.696	14705
915.809	14743
915.921	14743
916.034	14594
916.146	14507
916.259	14400
916.371	14530
916.483	14602
916.595	14514
916.708	14454
916.82	14438
916.932	14423
917.044	14370
917.156	14415
917.268	14271
917.38	14305
917.491	14263
917.603	14252
917.715	14290
917.826	14408
917.938	14172
918.049	14180
918.161	14252
918.272	14438
918.384	14313
918.495	14172
918.606	13951
918.717	13993
918.828	14183
918.939	14092
919.05	13932
919.161	14001
919.272	13852
919.383	13917
919.494	14016
919.604	14298
919.715	14073
919.826	13913
919.936	13967
920.047	14088
920.157	14092
920.267	14233
920.378	13940
920.488	13970
920.598	14218
920.708	14275
920.818	14115
920.928	14145
921.038	14210
921.148	14336
921.258	13906
921.368	13871
921.477	13738
921.587	13731
921.697	13689
921.806	13742
921.916	13563
922.025	13419
922.134	13434
922.244	13396
922.353	13445
922.462	13339
922.571	13152
922.68	13084
922.789	13057
922.898	13057
923.007	13057
923.116	13110
923.224	13065
923.333	13050
923.442	12966
923.55	12886
923.659	12958
923.767	12985
923.876	12810
923.984	12837
924.092	12783
924.201	12852
924.309	12798
924.417	12856
924.525	12639
924.633	12692
924.741	13738
924.849	12566
924.956	12688
925.064	12475
925.172	12410
925.279	12551
925.387	12513
925.494	12494
925.602	12688
925.709	12506
925.816	12407
925.924	12532
926.031	12464
926.138	12483
926.245	12448
926.352	12403
926.459	12479
926.566	12475
926.673	12315
926.779	12323
926.886	12323
926.993	12163
927.099	12091
927.206	12034
927.312	12057
927.419	12148
927.525	12060
927.631	12053
927.737	12064
927.843	11923
927.95	11809
928.056	11859
928.162	12003
928.267	11870
928.373	12566
928.479	12007
928.585	11726
928.69	11904
928.796	11859
928.901	11722
929.007	11646
929.112	11798
929.218	11798
929.323	11638
929.428	11634
929.533	11836
929.638	11661
929.743	11608
929.848	11596
929.953	11657
930.058	11520
930.163	11318
930.267	11341
930.372	11490
930.477	11406
930.581	11577
930.685	11383
930.79	11239
930.894	11299
930.998	11178
931.103	11372
931.207	11045
931.311	10953
931.415	10767
931.519	10634
931.623	10653
