Data from test_V78500241_3132.txt Node
Date: Fri Mar 25 15:31:40 CST 2022
User: usil
Spectrometer: V785-0024
Trigger mode: 0
Integration Time (sec): 4.000000E-1
Scans to average: 1
Nonlinearity correction enabled: false
Boxcar width: 0
Storing dark spectrum: false
XAxis mode: Wavelengths
Number of Pixels in Spectrum: 1024
>>>>>Begin Spectral Data<<<<<
801.071	26823
801.214	26864
801.356	26773
801.499	26537
801.641	26450
801.783	26522
801.926	26412
802.068	26632
802.211	26461
802.353	26438
802.496	26054
802.638	26229
802.78	26233
802.923	25963
803.065	25860
803.208	25906
803.35	26088
803.492	26313
803.635	26275
803.777	26206
803.919	26294
804.061	26518
804.204	26278
804.346	26286
804.488	26244
804.63	26180
804.773	26172
804.915	26328
805.057	26218
805.199	26309
805.341	26206
805.483	26309
805.626	26423
805.768	26290
805.91	26423
806.052	26431
806.194	26355
806.336	26621
806.478	26214
806.62	26427
806.762	26408
806.904	26560
807.046	26849
807.188	26857
807.33	26640
807.472	26853
807.614	26758
807.756	26629
807.898	26682
808.04	26568
808.182	26625
808.324	26583
808.465	26716
808.607	26929
808.749	26994
808.891	27036
809.033	27230
809.174	27020
809.316	26971
809.458	27024
809.6	26868
809.741	27070
809.883	27058
810.025	27150
810.166	27192
810.308	27252
810.45	27100
810.591	27070
810.733	26937
810.875	26929
811.016	26807
811.158	26895
811.299	27119
811.441	27104
811.582	27180
811.724	26994
811.865	26868
812.007	26887
812.148	26826
812.29	26910
812.431	27043
812.573	27195
812.714	27302
812.855	27412
812.997	27561
813.138	27660
813.279	27469
813.421	27473
813.562	27412
813.703	27173
813.845	27169
813.986	26731
814.127	26811
814.268	26473
814.41	26754
814.551	26533
814.692	26727
814.833	26598
814.974	26644
815.115	26514
815.256	26507
815.397	26408
815.539	26476
815.68	26332
815.821	26343
815.962	26286
816.103	26389
816.244	26278
816.385	26218
816.526	26096
816.666	26031
816.807	25849
816.948	25833
817.089	26008
817.23	25860
817.371	25791
817.512	25769
817.653	25856
817.793	25757
817.934	25894
818.075	25902
818.216	25944
818.356	25727
818.497	25712
818.638	25548
818.778	25552
818.919	25537
819.06	25700
819.2	25814
819.341	25795
819.481	25795
819.622	25902
819.762	26168
819.903	26199
820.043	26035
820.184	26005
820.324	25890
820.465	25940
820.605	25925
820.746	25944
820.886	25856
821.026	25887
821.167	25868
821.307	26039
821.447	25860
821.588	25670
821.728	25852
821.868	25407
822.008	25202
822.149	25187
822.289	25339
822.429	25053
822.569	24985
822.709	24935
822.849	24840
822.99	24878
823.13	24909
823.27	24715
823.41	24658
823.55	24532
823.69	24654
823.83	24665
823.97	24646
824.11	24509
824.25	24410
824.389	24426
824.529	24509
824.669	24407
824.809	24494
824.949	24589
825.089	24502
825.228	24494
825.368	24224
825.508	24410
825.648	24369
825.787	24361
825.927	24323
826.067	24235
826.206	24395
826.346	24395
826.485	24361
826.625	24270
826.765	24422
826.904	24296
827.044	24228
827.183	24034
827.323	23878
827.462	24007
827.601	23988
827.741	23996
827.88	24053
828.02	23863
828.159	23999
828.298	24053
828.437	23973
828.577	23904
828.716	24064
828.855	23904
828.994	23684
829.134	23672
829.273	23798
829.412	23809
829.551	23684
829.69	23699
829.829	23775
829.968	23764
830.107	23809
830.246	23722
830.385	23767
830.524	23528
830.663	23592
830.802	23376
830.941	23334
831.08	23318
831.219	23360
831.357	23318
831.496	23486
831.635	23353
831.774	23261
831.913	23044
832.051	23060
832.19	23147
832.329	23098
832.467	23037
832.606	22927
832.744	22816
832.883	23014
833.022	22980
833.16	23048
833.299	23006
833.437	22995
833.576	23060
833.714	23037
833.852	23136
833.991	23227
834.129	23212
834.267	23170
834.406	22999
834.544	23121
834.682	23147
834.821	22980
834.959	23284
835.097	22991
835.235	23018
835.373	22915
835.511	23056
835.65	22896
835.788	22809
835.926	22778
836.064	22687
836.202	22660
836.34	22953
836.478	22923
836.615	22919
836.753	22942
836.891	22965
837.029	22915
837.167	22885
837.305	22930
837.443	22831
837.58	22687
837.718	22740
837.856	22968
837.993	22550
838.131	22752
838.269	22645
838.406	22664
838.544	22554
838.681	22470
838.819	22360
838.956	22249
839.094	22295
839.231	22325
839.369	22516
839.506	22577
839.643	22519
839.781	22322
839.918	22215
840.055	22238
840.193	22196
840.33	22257
840.467	22207
840.604	22371
840.742	22371
840.879	22109
841.016	22150
841.153	22032
841.29	22344
841.427	22139
841.564	22295
841.701	22078
841.838	22196
841.975	22074
842.112	22097
842.249	22040
842.385	21953
842.522	22055
842.659	21964
842.796	22074
842.933	21880
843.069	21960
843.206	21899
843.343	22078
843.479	21915
843.616	21937
843.752	21808
843.889	21736
844.025	21899
844.162	21675
844.298	21808
844.435	21736
844.571	21618
844.708	21823
844.844	21835
844.98	21892
845.117	21728
845.253	21542
845.389	21599
845.525	21564
845.661	21583
845.798	21454
845.934	21534
846.07	21462
846.206	21553
846.342	21561
846.478	21488
846.614	21306
846.75	21218
846.886	21211
847.022	21279
847.158	21188
847.294	21108
847.429	21226
847.565	21207
847.701	21454
847.837	20986
847.972	20876
848.108	21093
848.244	20971
848.379	20785
848.515	20807
848.65	20845
848.786	20693
848.921	20887
849.057	20914
849.192	20861
849.328	20857
849.463	20735
849.598	20773
849.734	20655
849.869	20667
850.004	20526
850.14	20583
850.275	20606
850.41	20355
850.545	20476
850.68	20461
850.815	20606
850.95	20617
851.085	20655
851.22	20564
851.355	20571
851.49	20587
851.625	20404
851.76	20473
851.895	20560
852.03	20541
852.165	20511
852.299	20545
852.434	20530
852.569	20537
852.703	20492
852.838	20701
852.973	20651
853.107	20518
853.242	20571
853.376	20415
853.511	20267
853.645	20328
853.78	20438
853.914	20393
854.048	20381
854.183	20328
854.317	20454
854.451	20568
854.585	20370
854.72	20366
854.854	20434
854.988	20294
855.122	20290
855.256	20286
855.39	20393
855.524	20503
855.658	20393
855.792	20412
855.926	20404
856.06	20533
856.194	20427
856.327	20408
856.461	20343
856.595	20366
856.729	20301
856.862	20427
856.996	20438
857.13	20450
857.263	20518
857.397	20461
857.53	20381
857.664	20301
857.797	20358
857.931	20480
858.064	20450
858.197	20442
858.331	20282
858.464	20324
858.597	20202
858.731	20332
858.864	20305
858.997	20271
859.13	20434
859.263	20370
859.396	20412
859.529	20339
859.662	20351
859.795	20434
859.928	20389
860.061	20488
860.194	20552
860.327	20381
860.46	20309
860.592	20499
860.725	20560
860.858	20499
860.99	20511
861.123	20347
861.256	20381
861.388	20393
861.521	20933
861.653	20290
861.786	20111
861.918	20237
862.05	20237
862.183	20336
862.315	20278
862.447	20423
862.58	20332
862.712	20199
862.844	20016
862.976	20191
863.108	20183
863.24	20465
863.372	20142
863.504	20081
863.636	20065
863.768	20161
863.9	20138
864.032	19951
864.164	19928
864.296	20126
864.428	20107
864.559	20039
864.691	20206
864.823	20126
864.954	20111
865.086	20027
865.217	19982
865.349	19940
865.48	19959
865.612	19963
865.743	20054
865.875	19997
866.006	19932
866.137	20012
866.269	20046
866.4	19909
866.531	19913
866.662	19921
866.793	19940
866.924	19978
867.055	20050
867.186	19921
867.317	19925
867.448	19830
867.579	20001
867.71	19860
867.841	19856
867.972	19947
868.103	19951
868.233	19833
868.364	19986
868.495	20084
868.625	20195
868.756	20214
868.886	20103
869.017	20256
869.147	20320
869.278	20328
869.408	20202
869.539	20214
869.669	20172
869.799	20202
869.929	20229
870.06	20313
870.19	20450
870.32	20351
870.45	20533
870.58	20533
870.71	20678
870.84	20674
870.97	20537
871.1	20579
871.23	20773
871.36	20674
871.489	20735
871.619	20712
871.749	20880
871.879	20727
872.008	20834
872.138	20743
872.267	20788
872.397	20720
872.526	20629
872.656	20583
872.785	20659
872.915	20845
873.044	20853
873.173	20796
873.303	20845
873.432	20887
873.561	20941
873.69	20960
873.819	20773
873.948	20944
874.077	20796
874.206	20823
874.335	20819
874.464	20823
874.593	21077
874.722	20960
874.851	21119
874.979	21062
875.108	21017
875.237	21051
875.365	20956
875.494	21028
875.623	21043
875.751	20998
875.88	20975
876.008	21123
876.136	21272
876.265	21481
876.393	21549
876.521	21481
876.65	21618
876.778	21477
876.906	21485
877.034	21363
877.162	21458
877.29	21431
877.418	21367
877.546	21408
877.674	21359
877.802	21530
877.93	21355
878.058	21332
878.185	21260
878.313	21378
878.441	21355
878.568	21180
878.696	21291
878.824	21473
878.951	21443
879.079	21557
879.206	21778
879.333	21599
879.461	21443
879.588	21564
879.715	21561
879.842	21686
879.97	21477
880.097	21180
880.224	21230
880.351	21275
880.478	21226
880.605	21211
880.732	21275
880.859	21534
880.986	21249
881.112	21329
881.239	21214
881.366	20975
881.493	20948
881.619	20796
881.746	20819
881.872	20800
881.999	20804
882.125	20712
882.252	20754
882.378	20750
882.505	20899
882.631	20712
882.757	20606
882.883	20522
883.01	20663
883.136	20385
883.262	20366
883.388	20404
883.514	20590
883.64	20488
883.766	20476
883.892	20286
884.018	20339
884.143	20560
884.269	20514
884.395	20282
884.52	20149
884.646	20240
884.772	20164
884.897	20161
885.023	20107
885.148	20282
885.274	20347
885.399	20252
885.524	20218
885.65	20229
885.775	20187
885.9	20229
886.025	20221
886.15	20248
886.275	20012
886.4	20035
886.525	20145
886.65	20107
886.775	20111
886.9	20339
887.025	20419
887.149	20176
887.274	19883
887.399	19944
887.523	19898
887.648	19879
887.773	19860
887.897	20012
888.021	19986
888.146	19917
888.27	20062
888.395	20027
888.519	19974
888.643	20031
888.767	19879
888.891	19868
889.015	19757
889.139	19761
889.263	19814
889.387	19944
889.511	20043
889.635	19909
889.759	19776
889.883	19662
890.006	19708
890.13	19814
890.254	19651
890.377	19666
890.501	19502
890.624	19529
890.748	19514
890.871	19445
890.995	19396
891.118	19384
891.241	19377
891.364	19407
891.488	19487
891.611	19308
891.734	19411
891.857	19400
891.98	19293
892.103	19468
892.226	19487
892.349	19293
892.471	19129
892.594	19346
892.717	19304
892.839	19320
892.962	19373
893.085	19320
893.207	19373
893.33	19183
893.452	19217
893.575	19354
893.697	19175
893.819	19419
893.941	19453
894.064	19392
894.186	19187
894.308	19289
894.43	19350
894.552	19403
894.674	19343
894.796	19240
894.918	19278
895.04	19240
895.161	19320
895.283	19362
895.405	19122
895.526	19293
895.648	19266
895.769	19217
895.891	19217
896.012	19430
896.134	19373
896.255	19263
896.376	19240
896.498	19274
896.619	19396
896.74	19419
896.861	19285
896.982	19609
897.103	19712
897.224	19578
897.345	19563
897.466	19430
897.587	19540
897.708	19601
897.828	19548
897.949	19453
898.07	19362
898.19	19495
898.311	19700
898.431	19521
898.552	19506
898.672	19597
898.792	19601
898.913	19571
899.033	19407
899.153	19316
899.273	19171
899.393	19331
899.513	19293
899.633	19308
899.753	19381
899.873	19312
899.993	19335
900.113	19251
900.232	19247
900.352	19304
900.472	19232
900.591	18981
900.711	19061
900.83	19053
900.95	19255
901.069	19129
901.189	18981
901.308	18726
901.427	18677
901.546	18817
901.665	18635
901.784	18612
901.904	18570
902.023	18410
902.141	18300
902.26	18121
902.379	18330
902.498	18220
902.617	18182
902.735	18213
902.854	18087
902.973	18091
903.091	17809
903.21	17927
903.328	17901
903.446	17771
903.565	17703
903.683	17714
903.801	17600
903.919	17752
904.038	17608
904.156	17436
904.274	17471
904.392	17467
904.51	17516
904.627	17395
904.745	17455
904.863	17509
904.981	17379
905.098	17220
905.216	17208
905.334	17239
905.451	17174
905.569	17117
905.686	17174
905.803	17181
905.921	16980
906.038	17064
906.155	16972
906.272	16881
906.389	16866
906.506	16626
906.623	16694
906.74	16645
906.857	16546
906.974	16611
907.091	16683
907.208	16771
907.324	16683
907.441	16489
907.557	16424
907.674	16402
907.79	16432
907.907	16398
908.023	16432
908.139	16443
908.256	16371
908.372	16287
908.488	16333
908.604	16166
908.72	16131
908.836	16074
908.952	16067
909.068	16200
909.184	16322
909.3	16143
909.415	16154
909.531	16147
909.647	15873
909.762	15915
909.878	15888
909.993	15854
910.108	15926
910.224	15797
910.339	15793
910.454	15660
910.57	15633
910.685	15530
910.8	15873
910.915	15781
911.03	15705
911.145	15408
911.259	15511
911.374	15530
911.489	15378
911.604	15370
911.718	15188
911.833	15336
911.947	15157
912.062	15055
912.176	15275
912.291	15249
912.405	15157
912.519	15405
912.633	15363
912.748	15161
912.862	15199
912.976	15055
913.09	14952
913.204	14933
913.318	15055
913.431	15176
913.545	15028
913.659	15142
913.772	14979
913.886	14880
914	14800
914.113	14876
914.226	14921
914.34	14925
914.453	14746
914.566	14880
914.68	14712
914.793	14583
914.906	14503
915.019	14461
915.132	14320
915.245	14396
915.358	14480
915.47	14404
915.583	14469
915.696	14518
915.809	14587
915.921	14469
916.034	14358
916.146	14267
916.259	14336
916.371	14374
916.483	14404
916.595	14374
916.708	14385
916.82	14355
916.932	14305
917.044	14336
917.156	14218
917.268	14161
917.38	14107
917.491	14183
917.603	14123
917.715	14256
917.826	14218
917.938	14134
918.049	14016
918.161	14088
918.272	14252
918.384	14164
918.495	14069
918.606	13974
918.717	13978
918.828	13890
918.939	13940
919.05	13837
919.161	13887
919.272	13689
919.383	13868
919.494	14054
919.604	14054
919.715	13947
919.826	13856
919.936	13803
920.047	13909
920.157	13902
920.267	14092
920.378	13978
920.488	13852
920.598	14145
920.708	14092
920.818	14088
920.928	14020
921.038	14191
921.148	14168
921.258	13837
921.368	13742
921.477	13632
921.587	13655
921.697	13597
921.806	13723
921.916	13556
922.025	13335
922.134	13316
922.244	13232
922.353	13365
922.462	13221
922.571	13133
922.68	13008
922.789	12932
922.898	12943
923.007	12943
923.116	12916
923.224	12859
923.333	12943
923.442	12745
923.55	12696
923.659	12871
923.767	12886
923.876	12738
923.984	12776
924.092	12631
924.201	12677
924.309	12654
924.417	12692
924.525	12650
924.633	12658
924.741	13559
924.849	12426
924.956	12665
925.064	12304
925.172	12289
925.279	12369
925.387	12426
925.494	12334
925.602	12532
925.709	12384
925.816	12178
925.924	12407
926.031	12452
926.138	12327
926.245	12357
926.352	12300
926.459	12376
926.566	12437
926.673	12266
926.779	12159
926.886	12152
926.993	12079
927.099	11999
927.206	11984
927.312	12007
927.419	11961
927.525	11866
927.631	12068
927.737	11882
927.843	11874
927.95	11665
928.056	11779
928.162	11870
928.267	11840
928.373	12433
928.479	11878
928.585	11577
928.69	11756
928.796	11771
928.901	11741
929.007	11493
929.112	11710
929.218	11592
929.323	11482
929.428	11486
929.533	11680
929.638	11543
929.743	11539
929.848	11463
929.953	11619
930.058	11318
930.163	11258
930.267	11303
930.372	11356
930.477	11231
930.581	11455
930.685	11265
930.79	11170
930.894	11147
930.998	11121
931.103	11159
931.207	10885
931.311	10774
931.415	10736
931.519	10516
931.623	10584
