Data from test_V78500241_2149.txt Node
Date: Fri Mar 25 15:24:49 CST 2022
User: usil
Spectrometer: V785-0024
Trigger mode: 0
Integration Time (sec): 4.000000E-1
Scans to average: 1
Nonlinearity correction enabled: false
Boxcar width: 0
Storing dark spectrum: false
XAxis mode: Wavelengths
Number of Pixels in Spectrum: 1024
>>>>>Begin Spectral Data<<<<<
801.071	27652
801.214	27519
801.356	27287
801.499	27260
801.641	27127
801.783	27024
801.926	27081
802.068	27047
802.211	27077
802.353	27077
802.496	26762
802.638	26773
802.78	26686
802.923	26598
803.065	26609
803.208	26735
803.35	26750
803.492	26880
803.635	26838
803.777	26796
803.919	27085
804.061	27268
804.204	27020
804.346	26940
804.488	26868
804.63	26883
804.773	26811
804.915	26902
805.057	27032
805.199	26914
805.341	26960
805.483	27020
805.626	26937
805.768	27017
805.91	27055
806.052	27077
806.194	26956
806.336	27108
806.478	27066
806.62	26960
806.762	27142
806.904	27184
807.046	27561
807.188	27572
807.33	27287
807.472	27553
807.614	27348
807.756	27268
807.898	27344
808.04	27294
808.182	27279
808.324	27260
808.465	27519
808.607	27450
808.749	27656
808.891	27667
809.033	27838
809.174	27682
809.316	27713
809.458	27663
809.6	27633
809.741	27816
809.883	27865
810.025	27873
810.166	27926
810.308	27949
810.45	27694
810.591	27835
810.733	27747
810.875	27583
811.016	27458
811.158	27473
811.299	27561
811.441	27694
811.582	27778
811.724	27701
811.865	27595
812.007	27606
812.148	27488
812.29	27717
812.431	27671
812.573	27998
812.714	28181
812.855	28234
812.997	28055
813.138	28363
813.279	28177
813.421	28147
813.562	28017
813.703	27907
813.845	27873
813.986	27534
814.127	27443
814.268	27355
814.41	27340
814.551	27302
814.692	27427
814.833	27218
814.974	27298
815.115	27351
815.256	27222
815.397	27055
815.539	27154
815.68	27131
815.821	27074
815.962	27001
816.103	27051
816.244	26982
816.385	26990
816.526	26906
816.666	26678
816.807	26625
816.948	26636
817.089	26750
817.23	26587
817.371	26571
817.512	26590
817.653	26533
817.793	26465
817.934	26575
818.075	26473
818.216	26526
818.356	26549
818.497	26408
818.638	26419
818.778	26286
818.919	26351
819.06	26453
819.2	26461
819.341	26518
819.481	26575
819.622	26819
819.762	26940
819.903	26796
820.043	26781
820.184	26613
820.324	26609
820.465	26667
820.605	26765
820.746	26781
820.886	26488
821.026	26716
821.167	26594
821.307	26796
821.447	26598
821.588	26415
821.728	26332
821.868	26240
822.008	26142
822.149	26100
822.289	25959
822.429	25890
822.569	25651
822.709	25681
822.849	25575
822.99	25479
823.13	25377
823.27	25491
823.41	25308
823.55	25377
823.69	25358
823.83	25312
823.97	25335
824.11	25213
824.25	25133
824.389	25137
824.529	25225
824.669	25069
824.809	25388
824.949	25293
825.089	25198
825.228	25282
825.368	24989
825.508	24966
825.648	25061
825.787	25236
825.927	25133
826.067	25015
826.206	25012
826.346	25004
826.485	25141
826.625	25091
826.765	25221
826.904	25008
827.044	24760
827.183	24768
827.323	24688
827.462	24783
827.601	24760
827.741	24749
827.88	24848
828.02	24669
828.159	24719
828.298	24821
828.437	24939
828.577	24745
828.716	24833
828.855	24700
828.994	24566
829.134	24338
829.273	24418
829.412	24490
829.551	24414
829.69	24517
829.829	24517
829.968	24544
830.107	24551
830.246	24456
830.385	24483
830.524	24285
830.663	24273
830.802	24171
830.941	24083
831.08	24018
831.219	24174
831.357	24018
831.496	24273
831.635	24026
831.774	23935
831.913	23863
832.051	23882
832.19	23851
832.329	23992
832.467	23745
832.606	23748
832.744	23699
832.883	23790
833.022	23608
833.16	23824
833.299	23790
833.437	23703
833.576	23897
833.714	23794
833.852	23882
833.991	23817
834.129	23927
834.267	23866
834.406	23843
834.544	23790
834.682	23764
834.821	23691
834.959	23863
835.097	23794
835.235	23824
835.373	23809
835.511	23638
835.65	23630
835.788	23649
835.926	23486
836.064	23539
836.202	23364
836.34	23634
836.478	23695
836.615	23592
836.753	23547
836.891	23733
837.029	23684
837.167	23627
837.305	23554
837.443	23547
837.58	23429
837.718	23516
837.856	23455
837.993	23315
838.131	23421
838.269	23387
838.406	23391
838.544	23330
838.681	23166
838.819	23105
838.956	22953
839.094	22911
839.231	22972
839.369	23102
839.506	23334
839.643	23315
839.781	22911
839.918	22881
840.055	22892
840.193	22904
840.33	22942
840.467	22999
840.604	22866
840.742	23056
840.879	22736
841.016	22740
841.153	22691
841.29	23014
841.427	22778
841.564	22949
841.701	22831
841.838	22771
841.975	22881
842.112	22839
842.249	22717
842.385	22603
842.522	22862
842.659	22607
842.796	22508
842.933	22561
843.069	22508
843.206	22637
843.343	22793
843.479	22637
843.616	22668
843.752	22348
843.889	22447
844.025	22424
844.162	22348
844.298	22504
844.435	22291
844.571	22265
844.708	22356
844.844	22516
844.98	22489
845.117	22542
845.253	22314
845.389	22215
845.525	22234
845.661	22306
845.798	22082
845.934	22238
846.07	22173
846.206	22173
846.342	22287
846.478	22013
846.614	21888
846.75	21774
846.886	21888
847.022	21937
847.158	21907
847.294	21903
847.429	21880
847.565	21895
847.701	22013
847.837	21705
847.972	21561
848.108	21705
848.244	21686
848.379	21458
848.515	21507
848.65	21549
848.786	21469
848.921	21435
849.057	21542
849.192	21523
849.328	21477
849.463	21507
849.598	21359
849.734	21412
849.869	21241
850.004	21237
850.14	21283
850.275	21127
850.41	21127
850.545	21169
850.68	21180
850.815	21142
850.95	21310
851.085	21370
851.22	21332
851.355	21180
851.49	21150
851.625	21173
851.76	21123
851.895	21207
852.03	21047
852.165	21222
852.299	21317
852.434	21264
852.569	21306
852.703	21237
852.838	21317
852.973	21283
853.107	21424
853.242	21283
853.376	21039
853.511	20906
853.645	21017
853.78	21093
853.914	21005
854.048	20990
854.183	20979
854.317	21066
854.451	21138
854.585	20994
854.72	21051
854.854	21024
854.988	20929
855.122	20967
855.256	21028
855.39	20826
855.524	21131
855.658	21005
855.792	21066
855.926	21001
856.06	21180
856.194	21157
856.327	21089
856.461	21005
856.595	20975
856.729	21081
856.862	21108
856.996	21036
857.13	21096
857.263	21131
857.397	21123
857.53	21039
857.664	21081
857.797	21169
857.931	21192
858.064	21150
858.197	21161
858.331	21024
858.464	20937
858.597	20883
858.731	20887
858.864	21020
858.997	21047
859.13	21043
859.263	21062
859.396	21112
859.529	20982
859.662	20937
859.795	20933
859.928	20948
860.061	21150
860.194	21233
860.327	21062
860.46	21017
860.592	21085
860.725	21176
860.858	21093
860.99	20986
861.123	20880
861.256	20956
861.388	21055
861.521	21694
861.653	20918
861.786	20834
861.918	20925
862.05	20895
862.183	20967
862.315	20891
862.447	21055
862.58	20872
862.712	20807
862.844	20731
862.976	20788
863.108	20727
863.24	21245
863.372	20758
863.504	20830
863.636	20686
863.768	20777
863.9	20708
864.032	20689
864.164	20689
864.296	20750
864.428	20796
864.559	20853
864.691	20811
864.823	20800
864.954	20720
865.086	20686
865.217	20587
865.349	20602
865.48	20617
865.612	20667
865.743	20667
865.875	20648
866.006	20648
866.137	20720
866.269	20708
866.4	20686
866.531	20663
866.662	20461
866.793	20480
866.924	20526
867.055	20629
867.186	20606
867.317	20571
867.448	20434
867.579	20587
867.71	20530
867.841	20537
867.972	20514
868.103	20480
868.233	20469
868.364	20568
868.495	20583
868.625	20769
868.756	20883
868.886	20769
869.017	20678
869.147	20963
869.278	20944
869.408	20811
869.539	20842
869.669	21013
869.799	20948
869.929	20937
870.06	20971
870.19	21112
870.32	21180
870.45	21108
870.58	21203
870.71	21275
870.84	21332
870.97	21135
871.1	21188
871.23	21374
871.36	21416
871.489	21298
871.619	21424
871.749	21412
871.879	21275
872.008	21477
872.138	21370
872.267	21416
872.397	21233
872.526	21291
872.656	21161
872.785	21203
872.915	21515
873.044	21450
873.173	21412
873.303	21488
873.432	21583
873.561	21477
873.69	21458
873.819	21450
873.948	21435
874.077	21443
874.206	21466
874.335	21363
874.464	21568
874.593	21568
874.722	21576
874.851	21652
874.979	21614
875.108	21747
875.237	21690
875.365	21561
875.494	21679
875.623	21675
875.751	21587
875.88	21831
876.008	21739
876.136	21838
876.265	22021
876.393	22265
876.521	22188
876.65	22051
876.778	22013
876.906	22135
877.034	21945
877.162	21854
877.29	21888
877.418	21983
877.546	22036
877.674	21941
877.802	21956
877.93	22124
878.058	21998
878.185	21846
878.313	21994
878.441	21907
878.568	21709
878.696	21949
878.824	22074
878.951	22116
879.079	22093
879.206	22238
879.333	22226
879.461	22124
879.588	22097
879.715	22128
879.842	22314
879.97	22048
880.097	21831
880.224	21774
880.351	21857
880.478	21819
880.605	21728
880.732	21892
880.859	22067
880.986	21800
881.112	21785
881.239	21720
881.366	21637
881.493	21504
881.619	21393
881.746	21428
881.872	21374
881.999	21500
882.125	21310
882.252	21431
882.378	21291
882.505	21526
882.631	21348
882.757	21055
882.883	21207
883.01	21112
883.136	20960
883.262	20941
883.388	20979
883.514	21077
883.64	21070
883.766	21085
883.892	20910
884.018	20979
884.143	21013
884.269	21070
884.395	20785
884.52	20705
884.646	20788
884.772	20541
884.897	20750
885.023	20636
885.148	20811
885.274	20880
885.399	20902
885.524	20670
885.65	20731
885.775	20735
885.9	20621
886.025	20895
886.15	20880
886.275	20705
886.4	20629
886.525	20655
886.65	20602
886.775	20594
886.9	20758
887.025	20853
887.149	20697
887.274	20583
887.399	20495
887.523	20682
887.648	20541
887.773	20412
887.897	20667
888.021	20552
888.146	20499
888.27	20583
888.395	20731
888.519	20537
888.643	20530
888.767	20568
888.891	20400
889.015	20313
889.139	20434
889.263	20400
889.387	20473
889.511	20530
889.635	20377
889.759	20309
889.883	20381
890.006	20339
890.13	20351
890.254	20206
890.377	20199
890.501	20073
890.624	19925
890.748	20062
890.871	19906
890.995	19928
891.118	19826
891.241	19845
891.364	19913
891.488	20065
891.611	19871
891.734	19936
891.857	19864
891.98	19959
892.103	19921
892.226	19913
892.349	19841
892.471	19734
892.594	19894
892.717	19791
892.839	19780
892.962	19765
893.085	19902
893.207	19856
893.33	19662
893.452	19643
893.575	19856
893.697	19753
893.819	19978
893.941	20039
894.064	19826
894.186	19727
894.308	19674
894.43	19940
894.552	19788
894.674	19849
894.796	19727
894.918	19712
895.04	19700
895.161	19887
895.283	19776
895.405	19791
895.526	19761
895.648	19784
895.769	19845
895.891	19795
896.012	19894
896.134	19909
896.255	19776
896.376	19845
896.498	19784
896.619	19932
896.74	19902
896.861	19967
896.982	20172
897.103	20339
897.224	20107
897.345	20096
897.466	20103
897.587	19940
897.708	20119
897.828	20100
897.949	20039
898.07	19883
898.19	20005
898.311	19936
898.431	20153
898.552	20008
898.672	20046
898.792	20043
898.913	20046
899.033	19963
899.153	19864
899.273	19666
899.393	19791
899.513	19871
899.633	19780
899.753	19845
899.873	19776
899.993	19860
900.113	19750
900.232	19784
900.352	19685
900.472	19624
900.591	19476
900.711	19582
900.83	19544
900.95	19559
901.069	19632
901.189	19533
901.308	19289
901.427	19122
901.546	19198
901.665	19168
901.784	19084
901.904	19069
902.023	18966
902.141	18837
902.26	18734
902.379	18913
902.498	18684
902.617	18673
902.735	18783
902.854	18726
902.973	18661
903.091	18384
903.21	18369
903.328	18319
903.446	18300
903.565	18072
903.683	18152
903.801	17984
903.919	17980
904.038	18060
904.156	17950
904.274	17992
904.392	17840
904.51	17897
904.627	17863
904.745	17996
904.863	17973
904.981	17737
905.098	17585
905.216	17581
905.334	17642
905.451	17592
905.569	17585
905.686	17642
905.803	17581
905.921	17376
906.038	17509
906.155	17452
906.272	17311
906.389	17258
906.506	17242
906.623	17151
906.74	17117
906.857	17071
906.974	17037
907.091	17086
907.208	17277
907.324	17151
907.441	17071
907.557	16915
907.674	16885
907.79	16725
907.907	16755
908.023	16858
908.139	16839
908.256	16805
908.372	16778
908.488	16717
908.604	16653
908.72	16516
908.836	16618
908.952	16500
909.068	16634
909.184	16706
909.3	16504
909.415	16577
909.531	16664
909.647	16284
909.762	16318
909.878	16352
909.993	16337
910.108	16192
910.224	16215
910.339	16230
910.454	16032
910.57	16093
910.685	16051
910.8	16223
910.915	16230
911.03	16143
911.145	15945
911.259	15934
911.374	15850
911.489	15816
911.604	15717
911.718	15485
911.833	15633
911.947	15526
912.062	15393
912.176	15603
912.291	15618
912.405	15629
912.519	15755
912.633	15667
912.748	15637
912.862	15545
912.976	15424
913.09	15344
913.204	15504
913.318	15431
913.431	15526
913.545	15488
913.659	15576
913.772	15332
913.886	15272
914	15245
914.113	15397
914.226	15367
914.34	15252
914.453	15222
914.566	15268
914.68	15074
914.793	15218
914.906	14872
915.019	14960
915.132	14792
915.245	14842
915.358	14849
915.47	14804
915.583	14807
915.696	14960
915.809	14845
915.921	14952
916.034	14785
916.146	14735
916.259	14716
916.371	14925
916.483	14765
916.595	14727
916.708	14804
916.82	14682
916.932	14655
917.044	14754
917.156	14571
917.268	14564
917.38	14530
917.491	14488
917.603	14522
917.715	14705
917.826	14693
917.938	14488
918.049	14351
918.161	14393
918.272	14655
918.384	14621
918.495	14396
918.606	14320
918.717	14290
918.828	14343
918.939	14377
919.05	14237
919.161	14229
919.272	14008
919.383	14214
919.494	14328
919.604	14434
919.715	14324
919.826	14225
919.936	14199
920.047	14313
920.157	14294
920.267	14385
920.378	14278
920.488	14180
920.598	14351
920.708	14541
920.818	14290
920.928	14377
921.038	14427
921.148	14476
921.258	14202
921.368	14088
921.477	14050
921.587	13967
921.697	13864
921.806	14054
921.916	13841
922.025	13655
922.134	13696
922.244	13632
922.353	13639
922.462	13411
922.571	13350
922.68	13320
922.789	13369
922.898	13346
923.007	13282
923.116	13285
923.224	13304
923.333	13274
923.442	13152
923.55	13072
923.659	13198
923.767	13190
923.876	13107
923.984	13183
924.092	12989
924.201	12966
924.309	13110
924.417	13046
924.525	12996
924.633	12935
924.741	13746
924.849	12753
924.956	12947
925.064	12681
925.172	12722
925.279	12700
925.387	12764
925.494	12681
925.602	12768
925.709	12741
925.816	12623
925.924	12658
926.031	12677
926.138	12707
926.245	12715
926.352	12479
926.459	12658
926.566	12734
926.673	12551
926.779	12388
926.886	12388
926.993	12296
927.099	12319
927.206	12190
927.312	12254
927.419	12376
927.525	12292
927.631	12247
927.737	12201
927.843	12102
927.95	12007
928.056	12163
928.162	12171
928.267	12163
928.373	12738
928.479	12273
928.585	11916
928.69	12121
928.796	12125
928.901	12064
929.007	11859
929.112	11923
929.218	12026
929.323	11843
929.428	11832
929.533	12041
929.638	11760
929.743	11809
929.848	11798
929.953	11855
930.058	11684
930.163	11509
930.267	11520
930.372	11665
930.477	11444
930.581	11756
930.685	11543
930.79	11349
930.894	11547
930.998	11406
931.103	11528
931.207	11220
931.311	11090
931.415	11037
931.519	10831
931.623	10729
