Data from test_V78500241_2280.txt Node
Date: Fri Mar 25 15:25:44 CST 2022
User: usil
Spectrometer: V785-0024
Trigger mode: 0
Integration Time (sec): 4.000000E-1
Scans to average: 1
Nonlinearity correction enabled: false
Boxcar width: 0
Storing dark spectrum: false
XAxis mode: Wavelengths
Number of Pixels in Spectrum: 1024
>>>>>Begin Spectral Data<<<<<
801.071	27739
801.214	27587
801.356	27473
801.499	27329
801.641	27161
801.783	27287
801.926	27348
802.068	27287
802.211	27100
802.353	27146
802.496	26902
802.638	26853
802.78	26857
802.923	26807
803.065	26826
803.208	26910
803.35	26800
803.492	27085
803.635	27096
803.777	26956
803.919	27020
804.061	27237
804.204	27127
804.346	27043
804.488	26952
804.63	26979
804.773	27047
804.915	27032
805.057	27039
805.199	26963
805.341	27089
805.483	27169
805.626	27249
805.768	27089
805.91	27214
806.052	27218
806.194	27218
806.336	27272
806.478	27104
806.62	27249
806.762	27207
806.904	27397
807.046	27667
807.188	27576
807.33	27686
807.472	27728
807.614	27614
807.756	27599
807.898	27401
808.04	27435
808.182	27340
808.324	27561
808.465	27401
808.607	27652
808.749	27732
808.891	27861
809.033	27854
809.174	27808
809.316	27762
809.458	27838
809.6	27698
809.741	27945
809.883	27914
810.025	28036
810.166	28215
810.308	28173
810.45	27975
810.591	27930
810.733	27785
810.875	27774
811.016	27720
811.158	27663
811.299	27663
811.441	27873
811.582	27922
811.724	27819
811.865	27724
812.007	27876
812.148	27804
812.29	27793
812.431	27903
812.573	28112
812.714	28223
812.855	28421
812.997	28352
813.138	28637
813.279	28516
813.421	28341
813.562	28131
813.703	28150
813.845	27983
813.986	27701
814.127	27713
814.268	27504
814.41	27466
814.551	27332
814.692	27416
814.833	27504
814.974	27424
815.115	27443
815.256	27252
815.397	27317
815.539	27348
815.68	27272
815.821	27104
815.962	27226
816.103	27199
816.244	27032
816.385	27066
816.526	26982
816.666	26785
816.807	26682
816.948	26762
817.089	26921
817.23	26739
817.371	26746
817.512	26754
817.653	26762
817.793	26804
817.934	26712
818.075	26762
818.216	26727
818.356	26861
818.497	26796
818.638	26446
818.778	26408
818.919	26427
819.06	26453
819.2	26727
819.341	26701
819.481	26682
819.622	26826
819.762	27013
819.903	27036
820.043	26872
820.184	26864
820.324	26739
820.465	26937
820.605	26910
820.746	26727
820.886	26781
821.026	26956
821.167	26849
821.307	26902
821.447	26686
821.588	26629
821.728	26541
821.868	26237
822.008	26191
822.149	26187
822.289	26138
822.429	25944
822.569	25795
822.709	25860
822.849	25753
822.99	25769
823.13	25738
823.27	25731
823.41	25487
823.55	25521
823.69	25639
823.83	25407
823.97	25434
824.11	25449
824.25	25232
824.389	25221
824.529	25369
824.669	25354
824.809	25362
824.949	25483
825.089	25521
825.228	25339
825.368	25114
825.508	25080
825.648	25206
825.787	25232
825.927	25312
826.067	25095
826.206	25274
826.346	25308
826.485	25244
826.625	25244
826.765	25312
826.904	25251
827.044	24932
827.183	25015
827.323	24973
827.462	24958
827.601	24886
827.741	24863
827.88	24981
828.02	24665
828.159	24916
828.298	24920
828.437	24977
828.577	24875
828.716	24913
828.855	24837
828.994	24486
829.134	24654
829.273	24711
829.412	24475
829.551	24525
829.69	24574
829.829	24684
829.968	24612
830.107	24646
830.246	24589
830.385	24589
830.524	24498
830.663	24304
830.802	24251
830.941	24167
831.08	24251
831.219	24490
831.357	24311
831.496	24433
831.635	24209
831.774	24125
831.913	24144
832.051	24022
832.19	23942
832.329	24015
832.467	23946
832.606	23885
832.744	23855
832.883	23771
833.022	23870
833.16	23908
833.299	23954
833.437	23950
833.576	23942
833.714	23942
833.852	24022
833.991	24045
834.129	23965
834.267	24015
834.406	23916
834.544	24011
834.682	23969
834.821	23965
834.959	24083
835.097	23904
835.235	23931
835.373	23901
835.511	23984
835.65	23958
835.788	23897
835.926	23672
836.064	23512
836.202	23608
836.34	23764
836.478	23851
836.615	23828
836.753	23752
836.891	23870
837.029	23813
837.167	23653
837.305	23748
837.443	23562
837.58	23630
837.718	23566
837.856	23627
837.993	23554
838.131	23661
838.269	23395
838.406	23463
838.544	23440
838.681	23364
838.819	23261
838.956	23079
839.094	23113
839.231	23197
839.369	23337
839.506	23539
839.643	23326
839.781	23212
839.918	23052
840.055	23029
840.193	22938
840.33	22976
840.467	22961
840.604	23121
840.742	23254
840.879	22892
841.016	22938
841.153	22923
841.29	23208
841.427	22980
841.564	23117
841.701	22949
841.838	22991
841.975	22839
842.112	22953
842.249	22694
842.385	22809
842.522	22908
842.659	22793
842.796	22752
842.933	22740
843.069	22675
843.206	22816
843.343	22771
843.479	22736
843.616	22873
843.752	22538
843.889	22489
844.025	22763
844.162	22504
844.298	22660
844.435	22459
844.571	22474
844.708	22500
844.844	22645
844.98	22702
845.117	22550
845.253	22580
845.389	22508
845.525	22398
845.661	22356
845.798	22306
845.934	22253
846.07	22306
846.206	22306
846.342	22314
846.478	22196
846.614	22059
846.75	21994
846.886	22112
847.022	22048
847.158	21953
847.294	21956
847.429	21987
847.565	21945
847.701	22322
847.837	21789
847.972	21679
848.108	21778
848.244	21846
848.379	21682
848.515	21641
848.65	21583
848.786	21599
848.921	21580
849.057	21838
849.192	21557
849.328	21587
849.463	21698
849.598	21583
849.734	21580
849.869	21515
850.004	21348
850.14	21344
850.275	21401
850.41	21329
850.545	21367
850.68	21287
850.815	21344
850.95	21329
851.085	21515
851.22	21424
851.355	21416
851.49	21351
851.625	21321
851.76	21332
851.895	21180
852.03	21272
852.165	21340
852.299	21348
852.434	21447
852.569	21306
852.703	21344
852.838	21370
852.973	21561
853.107	21458
853.242	21272
853.376	21131
853.511	21058
853.645	21150
853.78	21325
853.914	21252
854.048	21024
854.183	21161
854.317	21180
854.451	21416
854.585	21188
854.72	21195
854.854	21302
854.988	21085
855.122	21256
855.256	21055
855.39	21146
855.524	21310
855.658	21142
855.792	21161
855.926	21298
856.06	21230
856.194	21241
856.327	21116
856.461	21062
856.595	21131
856.729	21184
856.862	21329
856.996	21275
857.13	21176
857.263	21252
857.397	21306
857.53	21146
857.664	21154
857.797	21146
857.931	21256
858.064	21195
858.197	21260
858.331	21199
858.464	21108
858.597	21096
858.731	21222
858.864	21180
858.997	21085
859.13	21100
859.263	21218
859.396	21287
859.529	21275
859.662	21127
859.795	21211
859.928	21195
860.061	21302
860.194	21298
860.327	21096
860.46	21146
860.592	21321
860.725	21222
860.858	21378
860.99	21085
861.123	21077
861.256	21188
861.388	21188
861.521	22074
861.653	21165
861.786	21051
861.918	20963
862.05	21112
862.183	21123
862.315	21161
862.447	21157
862.58	21085
862.712	20941
862.844	20834
862.976	20937
863.108	21043
863.24	21214
863.372	20918
863.504	20842
863.636	20925
863.768	20910
863.9	20914
864.032	20880
864.164	20826
864.296	20891
864.428	21036
864.559	21001
864.691	21005
864.823	20933
864.954	20880
865.086	20872
865.217	20750
865.349	20743
865.48	20861
865.612	20815
865.743	20937
865.875	20830
866.006	20792
866.137	20857
866.269	20712
866.4	20735
866.531	20674
866.662	20819
866.793	20670
866.924	20705
867.055	20720
867.186	20819
867.317	20644
867.448	20632
867.579	20651
867.71	20670
867.841	20720
867.972	20727
868.103	20632
868.233	20625
868.364	20750
868.495	20731
868.625	20929
868.756	21047
868.886	20876
869.017	20918
869.147	21020
869.278	21085
869.408	21077
869.539	21017
869.669	21066
869.799	20910
869.929	21047
870.06	20910
870.19	21146
870.32	21252
870.45	21241
870.58	21363
870.71	21492
870.84	21294
870.97	21287
871.1	21317
871.23	21473
871.36	21511
871.489	21496
871.619	21542
871.749	21507
871.879	21606
872.008	21576
872.138	21644
872.267	21530
872.397	21363
872.526	21443
872.656	21462
872.785	21428
872.915	21595
873.044	21652
873.173	21603
873.303	21644
873.432	21572
873.561	21656
873.69	21618
873.819	21526
873.948	21656
874.077	21454
874.206	21538
874.335	21519
874.464	21812
874.593	21835
874.722	21713
874.851	21823
874.979	21804
875.108	21816
875.237	21720
875.365	21724
875.494	21838
875.623	21759
875.751	21800
875.88	21785
876.008	21926
876.136	22006
876.265	22196
876.393	22276
876.521	22382
876.65	22284
876.778	22230
876.906	22097
877.034	22166
877.162	22226
877.29	22158
877.418	22067
877.546	22272
877.674	22158
877.802	22147
877.93	22082
878.058	21979
878.185	22036
878.313	22124
878.441	22131
878.568	21895
878.696	22070
878.824	22348
878.951	22253
879.079	22421
879.206	22382
879.333	22325
879.461	22128
879.588	22246
879.715	22443
879.842	22390
879.97	22226
880.097	21987
880.224	22048
880.351	22029
880.478	21991
880.605	21987
880.732	22059
880.859	22211
880.986	22010
881.112	21956
881.239	21907
881.366	21622
881.493	21667
881.619	21523
881.746	21568
881.872	21572
881.999	21599
882.125	21530
882.252	21515
882.378	21462
882.505	21686
882.631	21306
882.757	21275
882.883	21260
883.01	21222
883.136	21233
883.262	21192
883.388	21089
883.514	21291
883.64	21256
883.766	21104
883.892	20986
884.018	21009
884.143	21218
884.269	21233
884.395	20967
884.52	20864
884.646	20971
884.772	20887
884.897	20823
885.023	20823
885.148	20963
885.274	21005
885.399	21055
885.524	20971
885.65	20967
885.775	20819
885.9	20891
886.025	21005
886.15	20918
886.275	20876
886.4	20811
886.525	20849
886.65	20800
886.775	20811
886.9	20895
887.025	21150
887.149	20868
887.274	20682
887.399	20727
887.523	20644
887.648	20564
887.773	20663
887.897	20712
888.021	20682
888.146	20473
888.27	20701
888.395	20659
888.519	20693
888.643	20674
888.767	20754
888.891	20594
889.015	20423
889.139	20556
889.263	20393
889.387	20518
889.511	20754
889.635	20670
889.759	20476
889.883	20499
890.006	20522
890.13	20659
890.254	20400
890.377	20446
890.501	20336
890.624	20210
890.748	20298
890.871	20084
890.995	20012
891.118	20027
891.241	20092
891.364	20107
891.488	20081
891.611	20054
891.734	20073
891.857	20077
891.98	20092
892.103	20130
892.226	20027
892.349	20046
892.471	19822
892.594	20027
892.717	20008
892.839	19871
892.962	19978
893.085	20058
893.207	19986
893.33	19849
893.452	19875
893.575	19978
893.697	19921
893.819	20043
893.941	20183
894.064	20001
894.186	19830
894.308	19909
894.43	20016
894.552	20180
894.674	20073
894.796	19932
894.918	19917
895.04	19883
895.161	20031
895.283	19989
895.405	19849
895.526	19944
895.648	19902
895.769	19932
895.891	20020
896.012	19997
896.134	20008
896.255	19890
896.376	19909
896.498	19951
896.619	20001
896.74	19837
896.861	20062
896.982	20157
897.103	20434
897.224	20233
897.345	20126
897.466	20100
897.587	20161
897.708	20271
897.828	20225
897.949	20012
898.07	20081
898.19	20145
898.311	20290
898.431	20092
898.552	20058
898.672	20225
898.792	20301
898.913	20240
899.033	20145
899.153	19898
899.273	19925
899.393	19883
899.513	19932
899.633	20016
899.753	19909
899.873	19830
899.993	20008
900.113	19936
900.232	19951
900.352	19879
900.472	19780
900.591	19761
900.711	19601
900.83	19696
900.95	19738
901.069	19734
901.189	19674
901.308	19407
901.427	19278
901.546	19259
901.665	19388
901.784	19209
901.904	19164
902.023	19038
902.141	18932
902.26	18878
902.379	18817
902.498	18730
902.617	18776
902.735	18772
902.854	18791
902.973	18642
903.091	18467
903.21	18467
903.328	18494
903.446	18361
903.565	18220
903.683	18224
903.801	18140
903.919	18209
904.038	18266
904.156	18186
904.274	18022
904.392	18095
904.51	18095
904.627	18068
904.745	18114
904.863	18098
904.981	17885
905.098	17684
905.216	17737
905.334	17718
905.451	17741
905.569	17592
905.686	17726
905.803	17691
905.921	17543
906.038	17600
906.155	17543
906.272	17368
906.389	17444
906.506	17299
906.623	17166
906.74	17185
906.857	17170
906.974	17239
907.091	17318
907.208	17360
907.324	17299
907.441	17140
907.557	17109
907.674	17006
907.79	16919
907.907	16919
908.023	16949
908.139	16972
908.256	16904
908.372	16862
908.488	16854
908.604	16733
908.72	16653
908.836	16664
908.952	16569
909.068	16736
909.184	16820
909.3	16748
909.415	16752
909.531	16672
909.647	16485
909.762	16432
909.878	16386
909.993	16443
910.108	16341
910.224	16303
910.339	16455
910.454	16306
910.57	16204
910.685	16101
910.8	16428
910.915	16234
911.03	16242
911.145	16025
911.259	15960
911.374	15964
911.489	15918
911.604	15812
911.718	15759
911.833	15720
911.947	15633
912.062	15549
912.176	15808
912.291	15671
912.405	15751
912.519	15915
912.633	15907
912.748	15698
912.862	15762
912.976	15538
913.09	15382
913.204	15492
913.318	15492
913.431	15587
913.545	15633
913.659	15606
913.772	15580
913.886	15481
914	15359
914.113	15416
914.226	15420
914.34	15405
914.453	15252
914.566	15485
914.68	15157
914.793	15321
914.906	15020
915.019	15074
915.132	14937
915.245	15032
915.358	15005
915.47	15009
915.583	14967
915.696	14986
915.809	15043
915.921	15135
916.034	14918
916.146	14910
916.259	14849
916.371	14891
916.483	14883
916.595	14830
916.708	14826
916.82	14800
916.932	14762
917.044	14804
917.156	14746
917.268	14678
917.38	14644
917.491	14621
917.603	14674
917.715	14693
917.826	14697
917.938	14522
918.049	14530
918.161	14655
918.272	14659
918.384	14697
918.495	14583
918.606	14446
918.717	14393
918.828	14400
918.939	14298
919.05	14309
919.161	14366
919.272	14134
919.383	14240
919.494	14522
919.604	14594
919.715	14412
919.826	14218
919.936	14309
920.047	14454
920.157	14336
920.267	14495
920.378	14400
920.488	14328
920.598	14495
920.708	14701
920.818	14556
920.928	14583
921.038	14621
921.148	14587
921.258	14370
921.368	14134
921.477	14092
921.587	14176
921.697	13932
921.806	14096
921.916	13913
922.025	13769
922.134	13799
922.244	13731
922.353	13833
922.462	13628
922.571	13575
922.68	13438
922.789	13396
922.898	13369
923.007	13350
923.116	13350
923.224	13339
923.333	13384
923.442	13236
923.55	13198
923.659	13266
923.767	13339
923.876	13122
923.984	13236
924.092	13129
924.201	13137
924.309	13202
924.417	13152
924.525	13038
924.633	13034
924.741	13856
924.849	12871
924.956	12970
925.064	12916
925.172	12837
925.279	12779
925.387	12878
925.494	12859
925.602	12848
925.709	12837
925.816	12711
925.924	12726
926.031	12878
926.138	12745
926.245	12814
926.352	12707
926.459	12844
926.566	12783
926.673	12726
926.779	12513
926.886	12536
926.993	12452
927.099	12414
927.206	12319
927.312	12353
927.419	12414
927.525	12388
927.631	12437
927.737	12357
927.843	12190
927.95	12152
928.056	12159
928.162	12167
928.267	12152
928.373	12875
928.479	12232
928.585	12110
928.69	12190
928.796	12178
928.901	12117
929.007	11847
929.112	12060
929.218	12011
929.323	11942
929.428	11958
929.533	12106
929.638	11843
929.743	11786
929.848	11950
929.953	11927
930.058	11760
930.163	11665
930.267	11630
930.372	11821
930.477	11562
930.581	11866
930.685	11608
930.79	11577
930.894	11604
930.998	11459
931.103	11573
931.207	11341
931.311	11159
931.415	11128
931.519	10919
931.623	10896
