Data from test_V78500241_1768.txt Node
Date: Fri Mar 25 15:22:10 CST 2022
User: usil
Spectrometer: V785-0024
Trigger mode: 0
Integration Time (sec): 4.000000E-1
Scans to average: 1
Nonlinearity correction enabled: false
Boxcar width: 0
Storing dark spectrum: false
XAxis mode: Wavelengths
Number of Pixels in Spectrum: 1024
>>>>>Begin Spectral Data<<<<<
801.071	27899
801.214	27968
801.356	27622
801.499	27583
801.641	27542
801.783	27466
801.926	27622
802.068	27492
802.211	27458
802.353	27473
802.496	27245
802.638	27142
802.78	27085
802.923	27074
803.065	27074
803.208	26971
803.35	27077
803.492	27241
803.635	27329
803.777	27226
803.919	27382
804.061	27660
804.204	27363
804.346	27268
804.488	27382
804.63	27378
804.773	27359
804.915	27348
805.057	27435
805.199	27332
805.341	27405
805.483	27427
805.626	27488
805.768	27359
805.91	27507
806.052	27469
806.194	27401
806.336	27610
806.478	27450
806.62	27561
806.762	27583
806.904	27720
807.046	27903
807.188	27911
807.33	27941
807.472	27930
807.614	27816
807.756	27842
807.898	27819
808.04	27778
808.182	27709
808.324	27861
808.465	27717
808.607	27884
808.749	28143
808.891	28295
809.033	28272
809.174	28120
809.316	28059
809.458	27911
809.6	27911
809.741	28181
809.883	28322
810.025	28379
810.166	28398
810.308	28455
810.45	28352
810.591	28249
810.733	28029
810.875	27926
811.016	27911
811.158	27903
811.299	28109
811.441	28169
811.582	28284
811.724	28166
811.865	28017
812.007	28128
812.148	28048
812.29	28032
812.431	28284
812.573	28382
812.714	28413
812.855	28588
812.997	28622
813.138	28915
813.279	28778
813.421	28645
813.562	28599
813.703	28508
813.845	28253
813.986	28097
814.127	28002
814.268	27911
814.41	27816
814.551	27842
814.692	27914
814.833	27633
814.974	27800
815.115	27850
815.256	27705
815.397	27705
815.539	27819
815.68	27652
815.821	27599
815.962	27720
816.103	27564
816.244	27325
816.385	27401
816.526	27291
816.666	27252
816.807	27036
816.948	27138
817.089	27348
817.23	27096
817.371	27070
817.512	26864
817.653	27077
817.793	26975
817.934	27119
818.075	27047
818.216	26910
818.356	27066
818.497	26796
818.638	26902
818.778	26899
818.919	26948
819.06	26948
819.2	27024
819.341	27135
819.481	27077
819.622	27089
819.762	27500
819.903	27252
820.043	27348
820.184	27173
820.324	27207
820.465	27150
820.605	27374
820.746	27237
820.886	27116
821.026	27180
821.167	27211
821.307	27157
821.447	27104
821.588	27077
821.728	26910
821.868	26629
822.008	26693
822.149	26640
822.289	26488
822.429	26278
822.569	26256
822.709	26195
822.849	26142
822.99	26122
823.13	26065
823.27	26008
823.41	25913
823.55	25864
823.69	25982
823.83	25909
823.97	25795
824.11	25845
824.25	25647
824.389	25913
824.529	25860
824.669	25803
824.809	25814
824.949	25890
825.089	25822
825.228	25799
825.368	25643
825.508	25712
825.648	25567
825.787	25601
825.927	25723
826.067	25685
826.206	25597
826.346	25651
826.485	25830
826.625	25616
826.765	25734
826.904	25605
827.044	25548
827.183	25316
827.323	25369
827.462	25445
827.601	25472
827.741	25354
827.88	25434
828.02	25236
828.159	25316
828.298	25358
828.437	25514
828.577	25316
828.716	25441
828.855	25289
828.994	24939
829.134	24973
829.273	25057
829.412	24943
829.551	25046
829.69	25145
829.829	25057
829.968	25228
830.107	25156
830.246	25000
830.385	24989
830.524	25031
830.663	25000
830.802	24798
830.941	24745
831.08	24658
831.219	24684
831.357	24703
831.496	24825
831.635	24684
831.774	24585
831.913	24467
832.051	24582
832.19	24509
832.329	24498
832.467	24426
832.606	24327
832.744	24304
832.883	24399
833.022	24304
833.16	24376
833.299	24330
833.437	24315
833.576	24429
833.714	24403
833.852	24418
833.991	24589
834.129	24563
834.267	24448
834.406	24441
834.544	24505
834.682	24369
834.821	24380
834.959	24703
835.097	24376
835.235	24433
835.373	24414
835.511	24426
835.65	24277
835.788	24369
835.926	24220
836.064	24098
836.202	24106
836.34	24273
836.478	24308
836.615	24159
836.753	24266
836.891	24285
837.029	24247
837.167	24174
837.305	24030
837.443	24140
837.58	24064
837.718	24213
837.856	24041
837.993	24007
838.131	24152
838.269	23954
838.406	24026
838.544	23969
838.681	23790
838.819	23687
838.956	23657
839.094	23585
839.231	23634
839.369	23684
839.506	23961
839.643	23767
839.781	23551
839.918	23501
840.055	23562
840.193	23570
840.33	23520
840.467	23562
840.604	23528
840.742	23764
840.879	23509
841.016	23429
841.153	23379
841.29	23543
841.427	23440
841.564	23395
841.701	23528
841.838	23463
841.975	23482
842.112	23387
842.249	23239
842.385	23288
842.522	23482
842.659	23379
842.796	23277
842.933	23204
843.069	23132
843.206	23227
843.343	23273
843.479	23166
843.616	23235
843.752	23018
843.889	23067
844.025	23197
844.162	23041
844.298	23079
844.435	23174
844.571	23003
844.708	23212
844.844	23200
844.98	23311
845.117	23056
845.253	22892
845.389	22911
845.525	22938
845.661	22778
845.798	22767
845.934	22740
846.07	22782
846.206	22824
846.342	22953
846.478	22698
846.614	22516
846.75	22402
846.886	22546
847.022	22398
847.158	22489
847.294	22474
847.429	22584
847.565	22527
847.701	22717
847.837	22234
847.972	22109
848.108	22242
848.244	22162
848.379	22131
848.515	21991
848.65	22090
848.786	22078
848.921	22067
849.057	22238
849.192	22173
849.328	22116
849.463	22051
849.598	21991
849.734	21998
849.869	22090
850.004	21884
850.14	21797
850.275	21842
850.41	21717
850.545	21888
850.68	21873
850.815	21793
850.95	21762
851.085	22051
851.22	22082
851.355	21960
851.49	21793
851.625	21732
851.76	21880
851.895	21842
852.03	21709
852.165	21979
852.299	21819
852.434	21934
852.569	21857
852.703	21819
852.838	21953
852.973	21876
853.107	21911
853.242	21812
853.376	21793
853.511	21549
853.645	21644
853.78	21732
853.914	21720
854.048	21660
854.183	21614
854.317	21614
854.451	21770
854.585	21633
854.72	21679
854.854	21663
854.988	21614
855.122	21648
855.256	21538
855.39	21698
855.524	21690
855.658	21648
855.792	21804
855.926	21641
856.06	21755
856.194	21705
856.327	21637
856.461	21477
856.595	21713
856.729	21587
856.862	21644
856.996	21770
857.13	21789
857.263	21895
857.397	21603
857.53	21633
857.664	21648
857.797	21671
857.931	21789
858.064	21701
858.197	21854
858.331	21732
858.464	21568
858.597	21557
858.731	21439
858.864	21618
858.997	21496
859.13	21625
859.263	21739
859.396	21679
859.529	21648
859.662	21618
859.795	21713
859.928	21633
860.061	21812
860.194	21808
860.327	21671
860.46	21713
860.592	21785
860.725	21770
860.858	21884
860.99	21580
861.123	21549
861.256	21580
861.388	21603
861.521	22550
861.653	21481
861.786	21450
861.918	21439
862.05	21507
862.183	21606
862.315	21622
862.447	21625
862.58	21561
862.712	21382
862.844	21332
862.976	21477
863.108	21420
863.24	21812
863.372	21336
863.504	21298
863.636	21310
863.768	21431
863.9	21336
864.032	21230
864.164	21222
864.296	21481
864.428	21538
864.559	21431
864.691	21424
864.823	21325
864.954	21412
865.086	21310
865.217	21294
865.349	21108
865.48	21119
865.612	21332
865.743	21367
865.875	21184
866.006	21230
866.137	21264
866.269	21264
866.4	21233
866.531	21116
866.662	21123
866.793	21176
866.924	21207
867.055	21233
867.186	21154
867.317	21055
867.448	21093
867.579	21184
867.71	21150
867.841	21096
867.972	21199
868.103	21169
868.233	21256
868.364	21100
868.495	21294
868.625	21408
868.756	21507
868.886	21481
869.017	21408
869.147	21420
869.278	21553
869.408	21458
869.539	21310
869.669	21557
869.799	21439
869.929	21545
870.06	21492
870.19	21724
870.32	21679
870.45	21660
870.58	21823
870.71	21865
870.84	21987
870.97	21854
871.1	21781
871.23	21998
871.36	22048
871.489	21937
871.619	21804
871.749	21994
871.879	22074
872.008	22055
872.138	21983
872.267	22055
872.397	21850
872.526	21800
872.656	21899
872.785	21812
872.915	22044
873.044	22139
873.173	21949
873.303	22048
873.432	21991
873.561	22162
873.69	22093
873.819	21972
873.948	22059
874.077	21964
874.206	21918
874.335	22059
874.464	22131
874.593	22230
874.722	22162
874.851	22253
874.979	22272
875.108	22234
875.237	22154
875.365	22090
875.494	22219
875.623	22291
875.751	22287
875.88	22295
876.008	22371
876.136	22459
876.265	22630
876.393	22805
876.521	22672
876.65	22866
876.778	22573
876.906	22645
877.034	22603
877.162	22573
877.29	22557
877.418	22565
877.546	22569
877.674	22538
877.802	22580
877.93	22656
878.058	22504
878.185	22398
878.313	22470
878.441	22500
878.568	22466
878.696	22554
878.824	22713
878.951	22641
879.079	22801
879.206	23006
879.333	22683
879.461	22626
879.588	22713
879.715	22687
879.842	22801
879.97	22702
880.097	22481
880.224	22402
880.351	22447
880.478	22421
880.605	22474
880.732	22455
880.859	22535
880.986	22504
881.112	22360
881.239	22284
881.366	22272
881.493	22074
881.619	21934
881.746	21994
881.872	22105
881.999	21876
882.125	21865
882.252	22090
882.378	21945
882.505	22101
882.631	21934
882.757	21835
882.883	21762
883.01	21682
883.136	21671
883.262	21481
883.388	21686
883.514	21694
883.64	21728
883.766	21542
883.892	21466
884.018	21454
884.143	21644
884.269	21785
884.395	21355
884.52	21359
884.646	21298
884.772	21287
884.897	21237
885.023	21363
885.148	21382
885.274	21408
885.399	21389
885.524	21386
885.65	21291
885.775	21325
885.9	21176
886.025	21477
886.15	21340
886.275	21161
886.4	21252
886.525	21283
886.65	21214
886.775	21233
886.9	21454
887.025	21606
887.149	21260
887.274	21230
887.399	21020
887.523	21070
887.648	21005
887.773	21028
887.897	21104
888.021	21066
888.146	20986
888.27	21199
888.395	21294
888.519	21150
888.643	21150
888.767	21017
888.891	20994
889.015	20769
889.139	21104
889.263	20804
889.387	21017
889.511	21161
889.635	20891
889.759	20743
889.883	20994
890.006	20895
890.13	21043
890.254	20682
890.377	20796
890.501	20640
890.624	20552
890.748	20655
890.871	20522
890.995	20473
891.118	20393
891.241	20594
891.364	20427
891.488	20655
891.611	20461
891.734	20370
891.857	20434
891.98	20503
892.103	20526
892.226	20336
892.349	20450
892.471	20271
892.594	20336
892.717	20404
892.839	20393
892.962	20309
893.085	20438
893.207	20336
893.33	20275
893.452	20301
893.575	20385
893.697	20290
893.819	20518
893.941	20427
894.064	20476
894.186	20195
894.308	20275
894.43	20362
894.552	20545
894.674	20408
894.796	20339
894.918	20309
895.04	20423
895.161	20301
895.283	20374
895.405	20233
895.526	20320
895.648	20301
895.769	20400
895.891	20366
896.012	20484
896.134	20355
896.255	20351
896.376	20221
896.498	20381
896.619	20480
896.74	20339
896.861	20347
896.982	20640
897.103	20769
897.224	20511
897.345	20568
897.466	20587
897.587	20514
897.708	20678
897.828	20575
897.949	20442
898.07	20355
898.19	20492
898.311	20575
898.431	20533
898.552	20568
898.672	20465
898.792	20655
898.913	20621
899.033	20351
899.153	20320
899.273	20180
899.393	20218
899.513	20423
899.633	20298
899.753	20427
899.873	20282
899.993	20305
900.113	20122
900.232	20157
900.352	20301
900.472	20107
900.591	19940
900.711	20172
900.83	20046
900.95	20134
901.069	20161
901.189	19875
901.308	19811
901.427	19609
901.546	19677
901.665	19780
901.784	19662
901.904	19426
902.023	19327
902.141	19164
902.26	19141
902.379	19251
902.498	19099
902.617	18981
902.735	19190
902.854	19050
902.973	19034
903.091	18787
903.21	18837
903.328	18798
903.446	18673
903.565	18787
903.683	18703
903.801	18452
903.919	18547
904.038	18460
904.156	18437
904.274	18475
904.392	18422
904.51	18365
904.627	18403
904.745	18403
904.863	18521
904.981	18182
905.098	18026
905.216	18114
905.334	18087
905.451	17988
905.569	17912
905.686	18053
905.803	18053
905.921	17794
906.038	18007
906.155	17882
906.272	17684
906.389	17657
906.506	17634
906.623	17665
906.74	17528
906.857	17376
906.974	17463
907.091	17691
907.208	17748
907.324	17608
907.441	17516
907.557	17299
907.674	17322
907.79	17273
907.907	17273
908.023	17239
908.139	17337
908.256	17197
908.372	17109
908.488	17231
908.604	17105
908.72	17010
908.836	17147
908.952	17029
909.068	17041
909.184	17048
909.3	16976
909.415	17128
909.531	16984
909.647	16729
909.762	16733
909.878	16744
909.993	16675
910.108	16702
910.224	16744
910.339	16634
910.454	16641
910.57	16584
910.685	16348
910.8	16767
910.915	16694
911.03	16550
911.145	16405
911.259	16402
911.374	16375
911.489	16150
911.604	16257
911.718	16029
911.833	16074
911.947	15972
912.062	15934
912.176	16112
912.291	16055
912.405	16036
912.519	16215
912.633	16154
912.748	16143
912.862	16013
912.976	15873
913.09	15728
913.204	15865
913.318	15884
913.431	15903
913.545	15964
913.659	15945
913.772	15842
913.886	15705
914	15572
914.113	15759
914.226	15850
914.34	15717
914.453	15584
914.566	15751
914.68	15637
914.793	15534
914.906	15325
915.019	15291
915.132	15230
915.245	15344
915.358	15313
915.47	15321
915.583	15287
915.696	15310
915.809	15462
915.921	15458
916.034	15237
916.146	15176
916.259	15127
916.371	15180
916.483	15252
916.595	15119
916.708	15161
916.82	15188
916.932	15043
917.044	14944
917.156	14986
917.268	14933
917.38	14960
917.491	14918
917.603	14952
917.715	14998
917.826	15047
917.938	14823
918.049	14807
918.161	14887
918.272	14899
918.384	14975
918.495	14902
918.606	14758
918.717	14716
918.828	14705
918.939	14613
919.05	14621
919.161	14640
919.272	14446
919.383	14442
919.494	14682
919.604	14990
919.715	14689
919.826	14659
919.936	14568
920.047	14758
920.157	14655
920.267	14712
920.378	14594
920.488	14613
920.598	14682
920.708	14971
920.818	14686
920.928	14686
921.038	14952
921.148	14842
921.258	14541
921.368	14530
921.477	14366
921.587	14263
921.697	14240
921.806	14423
921.916	14199
922.025	14107
922.134	13970
922.244	13894
922.353	14058
922.462	13871
922.571	13742
922.68	13670
922.789	13772
922.898	13693
923.007	13666
923.116	13643
923.224	13613
923.333	13499
923.442	13567
923.55	13441
923.659	13567
923.767	13544
923.876	13472
923.984	13491
924.092	13388
924.201	13282
924.309	13388
924.417	13400
924.525	13365
924.633	13308
924.741	14126
924.849	13103
924.956	13225
925.064	13114
925.172	13076
925.279	13061
925.387	13053
925.494	13133
925.602	13198
925.709	13190
925.816	12875
925.924	13046
926.031	13213
926.138	12966
926.245	13072
926.352	12916
926.459	13099
926.566	13012
926.673	12871
926.779	12791
926.886	12726
926.993	12669
927.099	12566
927.206	12559
927.312	12536
927.419	12627
927.525	12646
927.631	12559
927.737	12494
927.843	12559
927.95	12471
928.056	12350
928.162	12391
928.267	12479
928.373	13008
928.479	12540
928.585	12262
928.69	12380
928.796	12445
928.901	12308
929.007	12220
929.112	12361
929.218	12232
929.323	12159
929.428	12133
929.533	12330
929.638	12064
929.743	12079
929.848	12167
929.953	12175
930.058	11973
930.163	11847
930.267	11859
930.372	11965
930.477	11847
930.581	11984
930.685	11912
930.79	11760
930.894	11783
930.998	11729
931.103	11863
931.207	11474
931.311	11433
931.415	11273
931.519	11128
931.623	11094
