Data from test_V78500241_1403.txt Node
Date: Fri Mar 25 15:19:37 CST 2022
User: usil
Spectrometer: V785-0024
Trigger mode: 0
Integration Time (sec): 4.000000E-1
Scans to average: 1
Nonlinearity correction enabled: false
Boxcar width: 0
Storing dark spectrum: false
XAxis mode: Wavelengths
Number of Pixels in Spectrum: 1024
>>>>>Begin Spectral Data<<<<<
801.071	28006
801.214	27907
801.356	27698
801.499	27564
801.641	27675
801.783	27427
801.926	27557
802.068	27511
802.211	27325
802.353	27431
802.496	27222
802.638	27287
802.78	27192
802.923	27188
803.065	27154
803.208	27096
803.35	27184
803.492	27237
803.635	27363
803.777	27249
803.919	27458
804.061	27591
804.204	27488
804.346	27424
804.488	27386
804.63	27439
804.773	27226
804.915	27519
805.057	27492
805.199	27207
805.341	27599
805.483	27515
805.626	27466
805.768	27310
805.91	27515
806.052	27389
806.194	27523
806.336	27800
806.478	27591
806.62	27538
806.762	27618
806.904	27781
807.046	27953
807.188	27895
807.33	27880
807.472	28051
807.614	27789
807.756	27914
807.898	27816
808.04	27736
808.182	27728
808.324	27854
808.465	27869
808.607	28120
808.749	28177
808.891	28192
809.033	28280
809.174	28272
809.316	28158
809.458	28181
809.6	28181
809.741	28310
809.883	28451
810.025	28440
810.166	28516
810.308	28512
810.45	28363
810.591	28459
810.733	28204
810.875	28101
811.016	28017
811.158	28002
811.299	28169
811.441	28234
811.582	28360
811.724	28200
811.865	28006
812.007	28162
812.148	28226
812.29	28063
812.431	28360
812.573	28504
812.714	28687
812.855	28713
812.997	28755
813.138	28900
813.279	28809
813.421	28710
813.562	28713
813.703	28489
813.845	28417
813.986	28162
814.127	28074
814.268	27934
814.41	27861
814.551	27854
814.692	28063
814.833	27720
814.974	27846
815.115	27850
815.256	27739
815.397	27656
815.539	27827
815.68	27580
815.821	27511
815.962	27641
816.103	27660
816.244	27644
816.385	27488
816.526	27420
816.666	27161
816.807	27154
816.948	27260
817.089	27237
817.23	27241
817.371	27055
817.512	27195
817.653	27176
817.793	26971
817.934	27211
818.075	27066
818.216	27230
818.356	27100
818.497	26891
818.638	26963
818.778	26906
818.919	26921
819.06	26960
819.2	26933
819.341	27218
819.481	27302
819.622	27264
819.762	27488
819.903	27477
820.043	27313
820.184	27287
820.324	27272
820.465	27218
820.605	27310
820.746	27340
820.886	27112
821.026	27211
821.167	27195
821.307	27154
821.447	27157
821.588	26956
821.728	27161
821.868	26701
822.008	26705
822.149	26655
822.289	26492
822.429	26343
822.569	26214
822.709	26221
822.849	26054
822.99	26107
823.13	26122
823.27	26008
823.41	25856
823.55	25890
823.69	25955
823.83	25955
823.97	25822
824.11	25746
824.25	25860
824.389	25845
824.529	25826
824.669	25845
824.809	25936
824.949	25761
825.089	25795
825.228	25799
825.368	25655
825.508	25647
825.648	25559
825.787	25582
825.927	25746
826.067	25514
826.206	25499
826.346	25769
826.485	25674
826.625	25632
826.765	25791
826.904	25639
827.044	25407
827.183	25449
827.323	25358
827.462	25487
827.601	25369
827.741	25251
827.88	25396
828.02	25285
828.159	25365
828.298	25324
828.437	25312
828.577	25312
828.716	25491
828.855	25346
828.994	25080
829.134	25190
829.273	25069
829.412	24863
829.551	24894
829.69	25061
829.829	25053
829.968	25183
830.107	25198
830.246	25031
830.385	24947
830.524	25012
830.663	24852
830.802	24604
830.941	24700
831.08	24661
831.219	24665
831.357	24677
831.496	24966
831.635	24544
831.774	24547
831.913	24475
832.051	24467
832.19	24494
832.329	24460
832.467	24369
832.606	24258
832.744	24361
832.883	24429
833.022	24338
833.16	24376
833.299	24357
833.437	24323
833.576	24315
833.714	24342
833.852	24384
833.991	24505
834.129	24498
834.267	24426
834.406	24289
834.544	24391
834.682	24388
834.821	24391
834.959	24528
835.097	24167
835.235	24456
835.373	24334
835.511	24475
835.65	24239
835.788	24247
835.926	24003
836.064	24022
836.202	23965
836.34	24190
836.478	24323
836.615	24144
836.753	24300
836.891	24262
837.029	24171
837.167	24140
837.305	24041
837.443	24087
837.58	24018
837.718	24155
837.856	24091
837.993	24007
838.131	24064
838.269	23771
838.406	23996
838.544	23855
838.681	23752
838.819	23741
838.956	23551
839.094	23573
839.231	23604
839.369	23737
839.506	23889
839.643	23699
839.781	23543
839.918	23398
840.055	23433
840.193	23509
840.33	23345
840.467	23509
840.604	23444
840.742	23752
840.879	23284
841.016	23395
841.153	23189
841.29	23646
841.427	23482
841.564	23505
841.701	23455
841.838	23258
841.975	23318
842.112	23284
842.249	23159
842.385	23178
842.522	23337
842.659	23341
842.796	23246
842.933	23395
843.069	23117
843.206	23117
843.343	23212
843.479	23200
843.616	23060
843.752	23018
843.889	23052
844.025	23064
844.162	23018
844.298	23132
844.435	22980
844.571	22892
844.708	23052
844.844	23102
844.98	23010
845.117	23048
845.253	22862
845.389	22759
845.525	22820
845.661	22862
845.798	22801
845.934	22786
846.07	22523
846.206	22641
846.342	22820
846.478	22611
846.614	22546
846.75	22371
846.886	22432
847.022	22527
847.158	22394
847.294	22291
847.429	22481
847.565	22500
847.701	22607
847.837	22032
847.972	22090
848.108	22310
848.244	22169
848.379	22021
848.515	21956
848.65	21918
848.786	22055
848.921	21998
849.057	21960
849.192	22090
849.328	22078
849.463	21987
849.598	21911
849.734	21888
849.869	21861
850.004	21747
850.14	21774
850.275	21781
850.41	21656
850.545	21743
850.68	21701
850.815	21751
850.95	21770
851.085	22025
851.22	21857
851.355	21816
851.49	21762
851.625	21827
851.76	21625
851.895	21515
852.03	21583
852.165	21812
852.299	21770
852.434	21850
852.569	21850
852.703	21739
852.838	21869
852.973	21861
853.107	21975
853.242	21709
853.376	21519
853.511	21462
853.645	21583
853.78	21671
853.914	21667
854.048	21561
854.183	21515
854.317	21583
854.451	21705
854.585	21587
854.72	21641
854.854	21751
854.988	21591
855.122	21663
855.256	21340
855.39	21614
855.524	21610
855.658	21663
855.792	21614
855.926	21553
856.06	21667
856.194	21633
856.327	21576
856.461	21564
856.595	21564
856.729	21606
856.862	21747
856.996	21610
857.13	21622
857.263	21701
857.397	21736
857.53	21641
857.664	21656
857.797	21660
857.931	21682
858.064	21614
858.197	21671
858.331	21408
858.464	21572
858.597	21583
858.731	21526
858.864	21428
858.997	21492
859.13	21583
859.263	21629
859.396	21724
859.529	21610
859.662	21568
859.795	21545
859.928	21557
860.061	21907
860.194	21781
860.327	21762
860.46	21728
860.592	21717
860.725	21869
860.858	21785
860.99	21576
861.123	21515
861.256	21424
861.388	21538
861.521	22154
861.653	21644
861.786	21374
861.918	21374
862.05	21526
862.183	21481
862.315	21492
862.447	21572
862.58	21561
862.712	21389
862.844	21264
862.976	21389
863.108	21351
863.24	21804
863.372	21249
863.504	21256
863.636	21245
863.768	21363
863.9	21195
864.032	21237
864.164	21283
864.296	21146
864.428	21412
864.559	21454
864.691	21431
864.823	21298
864.954	21275
865.086	21188
865.217	21222
865.349	21112
865.48	21294
865.612	21306
865.743	21283
865.875	21150
866.006	21150
866.137	21226
866.269	21104
866.4	21104
866.531	21043
866.662	21058
866.793	21146
866.924	21154
867.055	21173
867.186	21165
867.317	21089
867.448	20941
867.579	21184
867.71	20823
867.841	21077
867.972	21055
868.103	21081
868.233	21100
868.364	21146
868.495	21192
868.625	21302
868.756	21466
868.886	21249
869.017	21268
869.147	21412
869.278	21447
869.408	21332
869.539	21344
869.669	21435
869.799	21424
869.929	21511
870.06	21507
870.19	21542
870.32	21671
870.45	21671
870.58	21808
870.71	21842
870.84	21854
870.97	21762
871.1	21835
871.23	21876
871.36	21804
871.489	21903
871.619	21873
871.749	21922
871.879	21949
872.008	22063
872.138	21816
872.267	21850
872.397	21785
872.526	21884
872.656	21838
872.785	21770
872.915	21892
873.044	22048
873.173	22021
873.303	22090
873.432	22025
873.561	22048
873.69	22082
873.819	21899
873.948	21998
874.077	22048
874.206	21808
874.335	21983
874.464	22051
874.593	22185
874.722	22234
874.851	22131
874.979	22181
875.108	22299
875.237	22154
875.365	22070
875.494	22196
875.623	22223
875.751	22105
875.88	22276
876.008	22329
876.136	22257
876.265	22592
876.393	22649
876.521	22622
876.65	22706
876.778	22535
876.906	22493
877.034	22428
877.162	22611
877.29	22516
877.418	22603
877.546	22580
877.674	22554
877.802	22432
877.93	22447
878.058	22470
878.185	22356
878.313	22447
878.441	22497
878.568	22356
878.696	22436
878.824	22535
878.951	22656
879.079	22683
879.206	22866
879.333	22675
879.461	22577
879.588	22611
879.715	22694
879.842	22771
879.97	22580
880.097	22310
880.224	22276
880.351	22402
880.478	22402
880.605	22272
880.732	22287
880.859	22660
880.986	22333
881.112	22356
881.239	22226
881.366	22105
881.493	22006
881.619	22032
881.746	21960
881.872	21915
881.999	21831
882.125	21846
882.252	21983
882.378	21850
882.505	22021
882.631	21679
882.757	21648
882.883	21709
883.01	21648
883.136	21690
883.262	21485
883.388	21477
883.514	21701
883.64	21682
883.766	21701
883.892	21454
884.018	21439
884.143	21610
884.269	21732
884.395	21534
884.52	21275
884.646	21317
884.772	21188
884.897	21245
885.023	21260
885.148	21348
885.274	21591
885.399	21386
885.524	21310
885.65	21397
885.775	21306
885.9	21207
886.025	21374
886.15	21412
886.275	21188
886.4	21131
886.525	21249
886.65	21199
886.775	21112
886.9	21469
887.025	21408
887.149	21146
887.274	21108
887.399	21036
887.523	21108
887.648	21066
887.773	20960
887.897	21051
888.021	21142
888.146	20956
888.27	21142
888.395	21131
888.519	21142
888.643	21157
888.767	21150
888.891	20891
889.015	20811
889.139	20982
889.263	20800
889.387	21028
889.511	21017
889.635	21043
889.759	20902
889.883	20807
890.006	20746
890.13	21013
890.254	20804
890.377	20861
890.501	20644
890.624	20670
890.748	20727
890.871	20537
890.995	20366
891.118	20347
891.241	20488
891.364	20522
891.488	20594
891.611	20412
891.734	20408
891.857	20480
891.98	20431
892.103	20480
892.226	20343
892.349	20267
892.471	20267
892.594	20347
892.717	20389
892.839	20275
892.962	20317
893.085	20438
893.207	20339
893.33	20199
893.452	20229
893.575	20332
893.697	20244
893.819	20457
893.941	20602
894.064	20343
894.186	20145
894.308	20328
894.43	20442
894.552	20301
894.674	20328
894.796	20240
894.918	20370
895.04	20374
895.161	20271
895.283	20347
895.405	20229
895.526	20282
895.648	20328
895.769	20324
895.891	20370
896.012	20473
896.134	20336
896.255	20355
896.376	20240
896.498	20278
896.619	20412
896.74	20305
896.861	20347
896.982	20564
897.103	20731
897.224	20632
897.345	20541
897.466	20381
897.587	20541
897.708	20560
897.828	20556
897.949	20473
898.07	20301
898.19	20434
898.311	20598
898.431	20427
898.552	20450
898.672	20564
898.792	20518
898.913	20587
899.033	20381
899.153	20381
899.273	20084
899.393	20233
899.513	20301
899.633	20366
899.753	20301
899.873	20252
899.993	20259
900.113	20153
900.232	20210
900.352	20187
900.472	19989
900.591	19955
900.711	20119
900.83	19963
900.95	20107
901.069	20096
901.189	19955
901.308	19765
901.427	19689
901.546	19582
901.665	19655
901.784	19681
901.904	19499
902.023	19521
902.141	19240
902.26	19107
902.379	19198
902.498	19152
902.617	19114
902.735	19187
902.854	19148
902.973	19031
903.091	18764
903.21	18837
903.328	18928
903.446	18722
903.565	18555
903.683	18528
903.801	18509
903.919	18559
904.038	18551
904.156	18483
904.274	18353
904.392	18342
904.51	18273
904.627	18315
904.745	18369
904.863	18388
904.981	18144
905.098	18167
905.216	18019
905.334	18201
905.451	17923
905.569	17999
905.686	18034
905.803	18011
905.921	17813
906.038	17870
906.155	17824
906.272	17851
906.389	17794
906.506	17581
906.623	17619
906.74	17524
906.857	17532
906.974	17509
907.091	17657
907.208	17661
907.324	17680
907.441	17554
907.557	17353
907.674	17330
907.79	17307
907.907	17220
908.023	17334
908.139	17258
908.256	17254
908.372	17083
908.488	17124
908.604	16976
908.72	16927
908.836	16991
908.952	17086
909.068	16991
909.184	17064
909.3	16965
909.415	17003
909.531	16995
909.647	16790
909.762	16733
909.878	16656
909.993	16706
910.108	16710
910.224	16626
910.339	16637
910.454	16596
910.57	16580
910.685	16474
910.8	16771
910.915	16641
911.03	16443
911.145	16325
911.259	16303
911.374	16303
911.489	16333
911.604	16139
911.718	16109
911.833	16036
911.947	15911
912.062	15968
912.176	15937
912.291	16059
912.405	15972
912.519	16177
912.633	16280
912.748	16013
912.862	15991
912.976	15915
913.09	15755
913.204	15915
913.318	15907
913.431	15888
913.545	15884
913.659	15987
913.772	15922
913.886	15835
914	15682
914.113	15656
914.226	15774
914.34	15656
914.453	15568
914.566	15701
914.68	15591
914.793	15572
914.906	15325
915.019	15302
915.132	15173
915.245	15302
915.358	15298
915.47	15272
915.583	15180
915.696	15302
915.809	15370
915.921	15412
916.034	15123
916.146	15093
916.259	15199
916.371	15340
916.483	15184
916.595	15036
916.708	15108
916.82	15066
916.932	14975
917.044	15169
917.156	14956
917.268	14925
917.38	14872
917.491	14914
917.603	14971
917.715	15032
917.826	15001
917.938	14807
918.049	14689
918.161	14811
918.272	15005
918.384	14861
918.495	14864
918.606	14765
918.717	14579
918.828	14670
918.939	14720
919.05	14560
919.161	14632
919.272	14465
919.383	14530
919.494	14632
919.604	14777
919.715	14712
919.826	14560
919.936	14632
920.047	14663
920.157	14716
920.267	14773
920.378	14575
920.488	14613
920.598	14792
920.708	14880
920.818	14735
920.928	14724
921.038	14918
921.148	14811
921.258	14541
921.368	14507
921.477	14358
921.587	14396
921.697	14233
921.806	14336
921.916	14088
922.025	14081
922.134	14008
922.244	13970
922.353	14024
922.462	13921
922.571	13746
922.68	13597
922.789	13662
922.898	13674
923.007	13567
923.116	13700
923.224	13647
923.333	13632
923.442	13540
923.55	13457
923.659	13510
923.767	13605
923.876	13422
923.984	13537
924.092	13381
924.201	13438
924.309	13449
924.417	13407
924.525	13266
924.633	13384
924.741	14092
924.849	13141
924.956	13270
925.064	13042
925.172	12954
925.279	13012
925.387	13008
925.494	13091
925.602	13217
925.709	13053
925.816	12897
925.924	12996
926.031	13183
926.138	12966
926.245	13015
926.352	12897
926.459	13004
926.566	13031
926.673	12962
926.779	12829
926.886	12890
926.993	12673
927.099	12589
927.206	12498
927.312	12555
927.419	12669
927.525	12673
927.631	12665
927.737	12467
927.843	12551
927.95	12342
928.056	12445
928.162	12498
928.267	12486
928.373	13031
928.479	12559
928.585	12243
928.69	12471
928.796	12448
928.901	12277
929.007	12175
929.112	12311
929.218	12239
929.323	12110
929.428	12155
929.533	12197
929.638	12064
929.743	12106
929.848	12224
929.953	12148
930.058	11999
930.163	11809
930.267	11847
930.372	11984
930.477	11912
930.581	11999
930.685	11836
930.79	11684
930.894	11661
930.998	11684
931.103	11783
931.207	11444
931.311	11501
931.415	11280
931.519	11064
931.623	11102
