Data from test_V78500241_321.txt Node
Date: Fri Mar 25 15:12:05 CST 2022
User: usil
Spectrometer: V785-0024
Trigger mode: 0
Integration Time (sec): 4.000000E-1
Scans to average: 1
Nonlinearity correction enabled: false
Boxcar width: 0
Storing dark spectrum: false
XAxis mode: Wavelengths
Number of Pixels in Spectrum: 1024
>>>>>Begin Spectral Data<<<<<
801.071	27766
801.214	27564
801.356	27553
801.499	27424
801.641	27321
801.783	27313
801.926	27401
802.068	27473
802.211	27340
802.353	27256
802.496	27218
802.638	26956
802.78	27005
802.923	27047
803.065	26872
803.208	26960
803.35	27055
803.492	26975
803.635	27165
803.777	27096
803.919	27146
804.061	27466
804.204	27138
804.346	27135
804.488	27020
804.63	27138
804.773	26895
804.915	27093
805.057	27226
805.199	26929
805.341	27310
805.483	27104
805.626	27169
805.768	27211
805.91	27245
806.052	27154
806.194	27173
806.336	27477
806.478	27291
806.62	27252
806.762	27431
806.904	27553
807.046	27679
807.188	27682
807.33	27622
807.472	27770
807.614	27591
807.756	27591
807.898	27420
808.04	27420
808.182	27420
808.324	27378
808.465	27534
808.607	27663
808.749	27720
808.891	27922
809.033	27918
809.174	27854
809.316	27819
809.458	27774
809.6	27823
809.741	27991
809.883	28025
810.025	28287
810.166	28070
810.308	28051
810.45	27956
810.591	28059
810.733	27918
810.875	27907
811.016	27660
811.158	27679
811.299	27713
811.441	27975
811.582	27861
811.724	27713
811.865	27720
812.007	27766
812.148	27804
812.29	27781
812.431	27968
812.573	28082
812.714	28188
812.855	28246
812.997	28379
813.138	28542
813.279	28538
813.421	28196
813.562	28276
813.703	28101
813.845	28120
813.986	27686
814.127	27492
814.268	27454
814.41	27427
814.551	27370
814.692	27427
814.833	27408
814.974	27435
815.115	27367
815.256	27275
815.397	27355
815.539	27393
815.68	27321
815.821	27055
815.962	27294
816.103	27180
816.244	27123
816.385	26925
816.526	27013
816.666	26819
816.807	26613
816.948	26716
817.089	26788
817.23	26739
817.371	26720
817.512	26697
817.653	26758
817.793	26670
817.934	26712
818.075	26800
818.216	26670
818.356	26655
818.497	26438
818.638	26446
818.778	26366
818.919	26370
819.06	26446
819.2	26564
819.341	26609
819.481	26594
819.622	26663
819.762	27142
819.903	26861
820.043	26880
820.184	26739
820.324	26746
820.465	26830
820.605	26773
820.746	26788
820.886	26602
821.026	26739
821.167	26583
821.307	26838
821.447	26609
821.588	26495
821.728	26396
821.868	26267
822.008	26180
822.149	26043
822.289	26180
822.429	25917
822.569	25811
822.709	25700
822.849	25544
822.99	25537
823.13	25647
823.27	25449
823.41	25346
823.55	25251
823.69	25472
823.83	25434
823.97	25324
824.11	25293
824.25	25103
824.389	25274
824.529	25324
824.669	25194
824.809	25400
824.949	25377
825.089	25324
825.228	25251
825.368	24970
825.508	25065
825.648	25160
825.787	25088
825.927	25133
826.067	24985
826.206	25004
826.346	24935
826.485	25187
826.625	25168
826.765	25114
826.904	25202
827.044	24825
827.183	24886
827.323	24749
827.462	24802
827.601	24760
827.741	24760
827.88	24856
828.02	24623
828.159	24776
828.298	24878
828.437	24779
828.577	24768
828.716	24810
828.855	24700
828.994	24532
829.134	24429
829.273	24578
829.412	24388
829.551	24452
829.69	24399
829.829	24582
829.968	24620
830.107	24456
830.246	24494
830.385	24353
830.524	24323
830.663	24281
830.802	24213
830.941	24060
831.08	23973
831.219	24311
831.357	24079
831.496	24429
831.635	24095
831.774	24129
831.913	24018
832.051	23942
832.19	23882
832.329	23794
832.467	23733
832.606	23775
832.744	23722
832.883	23718
833.022	23615
833.16	23767
833.299	23707
833.437	23813
833.576	23828
833.714	23843
833.852	23779
833.991	23836
834.129	23878
834.267	23988
834.406	23817
834.544	23939
834.682	23783
834.821	23684
834.959	23897
835.097	23729
835.235	23813
835.373	23707
835.511	23794
835.65	23608
835.788	23684
835.926	23429
836.064	23474
836.202	23509
836.34	23615
836.478	23657
836.615	23570
836.753	23676
836.891	23923
837.029	23596
837.167	23665
837.305	23627
837.443	23471
837.58	23455
837.718	23528
837.856	23600
837.993	23471
838.131	23463
838.269	23326
838.406	23376
838.544	23387
838.681	23254
838.819	23029
838.956	23010
839.094	22938
839.231	23010
839.369	23071
839.506	23372
839.643	23284
839.781	22980
839.918	22961
840.055	22919
840.193	22900
840.33	22869
840.467	22759
840.604	22961
840.742	23090
840.879	22691
841.016	22828
841.153	22672
841.29	22881
841.427	22908
841.564	22805
841.701	22961
841.838	22759
841.975	22733
842.112	22782
842.249	22569
842.385	22535
842.522	22687
842.659	22615
842.796	22607
842.933	22611
843.069	22691
843.206	22409
843.343	22653
843.479	22634
843.616	22577
843.752	22379
843.889	22360
844.025	22531
844.162	22257
844.298	22405
844.435	22337
844.571	22226
844.708	22436
844.844	22474
844.98	22390
845.117	22577
845.253	22375
845.389	22177
845.525	22272
845.661	22253
845.798	22086
845.934	22162
846.07	22074
846.206	22120
846.342	22192
846.478	22051
846.614	21880
846.75	21804
846.886	21789
847.022	21941
847.158	21880
847.294	21827
847.429	21850
847.565	21804
847.701	22036
847.837	21564
847.972	21530
848.108	21698
848.244	21618
848.379	21447
848.515	21241
848.65	21374
848.786	21515
848.921	21336
849.057	21477
849.192	21530
849.328	21473
849.463	21332
849.598	21302
849.734	21195
849.869	21230
850.004	21176
850.14	21294
850.275	21310
850.41	21085
850.545	21154
850.68	21123
850.815	21096
850.95	21184
851.085	21313
851.22	21233
851.355	21013
851.49	21112
851.625	21180
851.76	21131
851.895	20967
852.03	21062
852.165	21176
852.299	21138
852.434	21146
852.569	21161
852.703	21039
852.838	21169
852.973	21275
853.107	21241
853.242	21055
853.376	20941
853.511	20804
853.645	20967
853.78	21070
853.914	20910
854.048	20857
854.183	20834
854.317	21131
854.451	21188
854.585	20971
854.72	20994
854.854	20998
854.988	20868
855.122	20941
855.256	20899
855.39	21005
855.524	21055
855.658	20887
855.792	21028
855.926	21039
856.06	21051
856.194	21051
856.327	21039
856.461	20967
856.595	20967
856.729	20982
856.862	21043
856.996	21070
857.13	21039
857.263	21112
857.397	21142
857.53	20838
857.664	20944
857.797	20933
857.931	21074
858.064	20990
858.197	20986
858.331	21077
858.464	20834
858.597	20891
858.731	20815
858.864	20826
858.997	20796
859.13	20876
859.263	20998
859.396	20963
859.529	20979
859.662	20891
859.795	20944
859.928	20876
860.061	21150
860.194	21066
860.327	20872
860.46	21001
860.592	21146
860.725	21116
860.858	21028
860.99	20979
861.123	20941
861.256	20880
861.388	20918
861.521	21481
861.653	20815
861.786	20796
861.918	20826
862.05	20765
862.183	20800
862.315	20899
862.447	20929
862.58	20785
862.712	20667
862.844	20594
862.976	20571
863.108	20754
863.24	21154
863.372	20575
863.504	20590
863.636	20507
863.768	20720
863.9	20651
864.032	20621
864.164	20537
864.296	20621
864.428	20617
864.559	20724
864.691	20781
864.823	20674
864.954	20598
865.086	20564
865.217	20457
865.349	20434
865.48	20545
865.612	20564
865.743	20682
865.875	20522
866.006	20408
866.137	20518
866.269	20461
866.4	20549
866.531	20377
866.662	20522
866.793	20469
866.924	20507
867.055	20465
867.186	20575
867.317	20381
867.448	20362
867.579	20541
867.71	20446
867.841	20282
867.972	20571
868.103	20423
868.233	20583
868.364	20442
868.495	20434
868.625	20640
868.756	20872
868.886	20461
869.017	20644
869.147	20876
869.278	20674
869.408	20781
869.539	20606
869.669	20788
869.799	20743
869.929	20773
870.06	20830
870.19	20979
870.32	20914
870.45	21142
870.58	21150
870.71	21195
870.84	21157
870.97	21100
871.1	21112
871.23	21260
871.36	21275
871.489	21135
871.619	21287
871.749	21336
871.879	21416
872.008	21454
872.138	21351
872.267	21359
872.397	21096
872.526	21100
872.656	21062
872.785	21150
872.915	21192
873.044	21302
873.173	21447
873.303	21351
873.432	21294
873.561	21416
873.69	21332
873.819	21344
873.948	21443
874.077	21340
874.206	21359
874.335	21424
874.464	21428
874.593	21644
874.722	21351
874.851	21572
874.979	21603
875.108	21591
875.237	21538
875.365	21538
875.494	21431
875.623	21557
875.751	21549
875.88	21644
876.008	21671
876.136	21876
876.265	22063
876.393	22032
876.521	22025
876.65	21991
876.778	21926
876.906	21797
877.034	21869
877.162	21846
877.29	21850
877.418	21930
877.546	21937
877.674	21892
877.802	21953
877.93	21983
878.058	21850
878.185	21827
878.313	21861
878.441	21808
878.568	21778
878.696	21846
878.824	21861
878.951	22021
879.079	22131
879.206	22200
879.333	22017
879.461	22082
879.588	21972
879.715	21972
879.842	22246
879.97	21930
880.097	21690
880.224	21694
880.351	21739
880.478	21804
880.605	21679
880.732	21720
880.859	21926
880.986	21770
881.112	21812
881.239	21557
881.366	21492
881.493	21443
881.619	21336
881.746	21298
881.872	21340
881.999	21348
882.125	21275
882.252	21367
882.378	21374
882.505	21435
882.631	21214
882.757	21055
882.883	21062
883.01	20994
883.136	21001
883.262	20861
883.388	20944
883.514	21043
883.64	21055
883.766	21001
883.892	20902
884.018	20918
884.143	20952
884.269	21070
884.395	20815
884.52	20617
884.646	20697
884.772	20644
884.897	20686
885.023	20640
885.148	20765
885.274	20796
885.399	20861
885.524	20796
885.65	20720
885.775	20701
885.9	20712
886.025	20777
886.15	20701
886.275	20708
886.4	20621
886.525	20712
886.65	20720
886.775	20663
886.9	20849
887.025	20845
887.149	20712
887.274	20446
887.399	20480
887.523	20488
887.648	20332
887.773	20317
887.897	20587
888.021	20564
888.146	20355
888.27	20495
888.395	20537
888.519	20636
888.643	20602
888.767	20530
888.891	20408
889.015	20256
889.139	20347
889.263	20145
889.387	20427
889.511	20507
889.635	20476
889.759	20240
889.883	20309
890.006	20305
890.13	20294
890.254	20100
890.377	20107
890.501	20107
890.624	19989
890.748	20054
890.871	20008
890.995	19868
891.118	19742
891.241	19803
891.364	19932
891.488	19970
891.611	19894
891.734	19784
891.857	19967
891.98	19860
892.103	19917
892.226	19936
892.349	19788
892.471	19639
892.594	19723
892.717	19818
892.839	19753
892.962	19662
893.085	19890
893.207	19750
893.33	19639
893.452	19590
893.575	19811
893.697	19795
893.819	19925
893.941	19864
894.064	19780
894.186	19635
894.308	19670
894.43	19909
894.552	19947
894.674	19761
894.796	19681
894.918	19666
895.04	19727
895.161	19852
895.283	19769
895.405	19643
895.526	19852
895.648	19753
895.769	19738
895.891	19765
896.012	19852
896.134	19765
896.255	19731
896.376	19765
896.498	19769
896.619	19833
896.74	19647
896.861	19860
896.982	20096
897.103	20267
897.224	19982
897.345	20084
897.466	20008
897.587	19898
897.708	20046
897.828	19974
897.949	19928
898.07	19772
898.19	19978
898.311	20024
898.431	19871
898.552	20065
898.672	20039
898.792	20096
898.913	20012
899.033	19917
899.153	19845
899.273	19556
899.393	19712
899.513	19761
899.633	19750
899.753	19723
899.873	19624
899.993	19856
900.113	19662
900.232	19685
900.352	19628
900.472	19483
900.591	19514
900.711	19537
900.83	19434
900.95	19693
901.069	19616
901.189	19365
901.308	19221
901.427	19072
901.546	19141
901.665	19095
901.784	19004
901.904	18947
902.023	18829
902.141	18650
902.26	18681
902.379	18715
902.498	18642
902.617	18506
902.735	18513
902.854	18532
902.973	18585
903.091	18296
903.21	18292
903.328	18350
903.446	18216
903.565	18068
903.683	18076
903.801	17939
903.919	18095
904.038	18045
904.156	17855
904.274	17996
904.392	17840
904.51	17878
904.627	17946
904.745	17885
904.863	17904
904.981	17642
905.098	17471
905.216	17581
905.334	17547
905.451	17516
905.569	17433
905.686	17592
905.803	17566
905.921	17303
906.038	17414
906.155	17360
906.272	17193
906.389	17284
906.506	17128
906.623	17045
906.74	16972
906.857	16953
906.974	17033
907.091	16976
907.208	17288
907.324	17143
907.441	17003
907.557	16816
907.674	16713
907.79	16748
907.907	16668
908.023	16816
908.139	16809
908.256	16790
908.372	16569
908.488	16599
908.604	16481
908.72	16371
908.836	16523
908.952	16424
909.068	16523
909.184	16622
909.3	16443
909.415	16512
909.531	16489
909.647	16265
909.762	16192
909.878	16139
909.993	16200
910.108	16086
910.224	16147
910.339	16150
910.454	16135
910.57	16048
910.685	15930
910.8	16173
910.915	16238
911.03	15987
911.145	15808
911.259	15751
911.374	15736
911.489	15637
911.604	15641
911.718	15576
911.833	15511
911.947	15515
912.062	15340
912.176	15504
912.291	15553
912.405	15473
912.519	15648
912.633	15644
912.748	15595
912.862	15485
912.976	15351
913.09	15241
913.204	15317
913.318	15306
913.431	15401
913.545	15462
913.659	15363
913.772	15355
913.886	15211
914	15077
914.113	15165
914.226	15306
914.34	15123
914.453	15127
914.566	15142
914.68	15013
914.793	15028
914.906	14788
915.019	14796
915.132	14712
915.245	14708
915.358	14777
915.47	14743
915.583	14731
915.696	14788
915.809	14842
915.921	14868
916.034	14842
916.146	14575
916.259	14735
916.371	14735
916.483	14781
916.595	14610
916.708	14571
916.82	14533
916.932	14511
917.044	14590
917.156	14507
917.268	14381
917.38	14404
917.491	14370
917.603	14393
917.715	14408
917.826	14499
917.938	14423
918.049	14256
918.161	14381
918.272	14480
918.384	14511
918.495	14347
918.606	14252
918.717	14229
918.828	14225
918.939	14256
919.05	14031
919.161	14233
919.272	14043
919.383	14031
919.494	14180
919.604	14362
919.715	14229
919.826	14111
919.936	14164
920.047	14183
920.157	14180
920.267	14298
920.378	14126
920.488	14001
920.598	14408
920.708	14370
920.818	14164
920.928	14172
921.038	14469
921.148	14480
921.258	14039
921.368	13963
921.477	13803
921.587	13978
921.697	13868
921.806	13898
921.916	13776
922.025	13578
922.134	13506
922.244	13525
922.353	13636
922.462	13403
922.571	13312
922.68	13160
922.789	13194
922.898	13293
923.007	13069
923.116	13145
923.224	13236
923.333	13145
923.442	13091
923.55	13034
923.659	13076
923.767	13088
923.876	12973
923.984	13046
924.092	12943
924.201	12966
924.309	12916
924.417	12913
924.525	12867
924.633	12871
924.741	13559
924.849	12662
924.956	12859
925.064	12677
925.172	12620
925.279	12623
925.387	12642
925.494	12608
925.602	12772
925.709	12711
925.816	12536
925.924	12589
926.031	12665
926.138	12604
926.245	12559
926.352	12437
926.459	12601
926.566	12578
926.673	12517
926.779	12445
926.886	12308
926.993	12243
927.099	12171
927.206	12152
927.312	12175
927.419	12277
927.525	12072
927.631	12235
927.737	12064
927.843	12011
927.95	12030
928.056	12003
928.162	11973
928.267	12121
928.373	12703
928.479	12083
928.585	11863
928.69	11931
928.796	12041
928.901	11904
929.007	11752
929.112	11885
929.218	11813
929.323	11748
929.428	11760
929.533	11874
929.638	11638
929.743	11745
929.848	11783
929.953	11775
930.058	11577
930.163	11406
930.267	11474
930.372	11589
930.477	11421
930.581	11672
930.685	11463
930.79	11360
930.894	11406
930.998	11322
931.103	11417
931.207	11075
931.311	11025
931.415	10938
931.519	10702
931.623	10740
