Data from test_V78500241_118.txt Node
Date: Fri Mar 25 15:10:41 CST 2022
User: usil
Spectrometer: V785-0024
Trigger mode: 0
Integration Time (sec): 4.000000E-1
Scans to average: 1
Nonlinearity correction enabled: false
Boxcar width: 0
Storing dark spectrum: false
XAxis mode: Wavelengths
Number of Pixels in Spectrum: 1024
>>>>>Begin Spectral Data<<<<<
801.071	28158
801.214	28120
801.356	27797
801.499	27637
801.641	27587
801.783	27595
801.926	27599
802.068	27660
802.211	27439
802.353	27405
802.496	27378
802.638	27245
802.78	27241
802.923	27017
803.065	27028
803.208	27161
803.35	27157
803.492	27256
803.635	27283
803.777	27184
803.919	27389
804.061	27526
804.204	27329
804.346	27180
804.488	27161
804.63	27165
804.773	27116
804.915	27230
805.057	27401
805.199	27363
805.341	27370
805.483	27310
805.626	27310
805.768	27325
805.91	27256
806.052	27397
806.194	27222
806.336	27450
806.478	27389
806.62	27382
806.762	27310
806.904	27523
807.046	27755
807.188	27800
807.33	27583
807.472	27732
807.614	27587
807.756	27667
807.898	27553
808.04	27492
808.182	27462
808.324	27515
808.465	27618
808.607	27629
808.749	27831
808.891	28017
809.033	27945
809.174	27857
809.316	27934
809.458	27895
809.6	27819
809.741	27941
809.883	27819
810.025	27914
810.166	28048
810.308	28143
810.45	28074
810.591	27895
810.733	27850
810.875	27728
811.016	27770
811.158	27625
811.299	27789
811.441	27869
811.582	27972
811.724	27857
811.865	27759
812.007	27728
812.148	27785
812.29	27865
812.431	27895
812.573	28025
812.714	28185
812.855	28280
812.997	28325
813.138	28554
813.279	28291
813.421	28109
813.562	28162
813.703	27972
813.845	28029
813.986	27595
814.127	27526
814.268	27401
814.41	27370
814.551	27374
814.692	27462
814.833	27298
814.974	27310
815.115	27443
815.256	27310
815.397	27161
815.539	27146
815.68	27066
815.821	27066
815.962	27062
816.103	27108
816.244	26998
816.385	26895
816.526	26750
816.666	26750
816.807	26575
816.948	26556
817.089	26617
817.23	26617
817.371	26499
817.512	26583
817.653	26526
817.793	26484
817.934	26545
818.075	26663
818.216	26518
818.356	26339
818.497	26271
818.638	26225
818.778	26225
818.919	26336
819.06	26309
819.2	26374
819.341	26377
819.481	26305
819.622	26750
819.762	26762
819.903	26697
820.043	26659
820.184	26686
820.324	26507
820.465	26549
820.605	26530
820.746	26530
820.886	26396
821.026	26446
821.167	26404
821.307	26438
821.447	26507
821.588	26320
821.728	26073
821.868	26062
822.008	25902
822.149	25928
822.289	25788
822.429	25731
822.569	25677
822.709	25586
822.849	25373
822.99	25377
823.13	25266
823.27	25293
823.41	25004
823.55	25004
823.69	25126
823.83	25133
823.97	25118
824.11	24996
824.25	25000
824.389	25027
824.529	25088
824.669	25015
824.809	25031
824.949	24958
825.089	25061
825.228	25042
825.368	24837
825.508	24783
825.648	24772
825.787	24943
825.927	24802
826.067	24700
826.206	24779
826.346	24757
826.485	24798
826.625	24669
826.765	24840
826.904	24795
827.044	24536
827.183	24494
827.323	24350
827.462	24433
827.601	24410
827.741	24338
827.88	24407
828.02	24384
828.159	24505
828.298	24353
828.437	24525
828.577	24315
828.716	24551
828.855	24319
828.994	24034
829.134	24243
829.273	24209
829.412	23999
829.551	24068
829.69	24091
829.829	24209
829.968	24174
830.107	24083
830.246	24171
830.385	23973
830.524	23904
830.663	23851
830.802	23687
830.941	23764
831.08	23764
831.219	23840
831.357	23589
831.496	23961
831.635	23615
831.774	23653
831.913	23516
832.051	23444
832.19	23406
832.329	23455
832.467	23406
832.606	23299
832.744	23387
832.883	23383
833.022	23261
833.16	23258
833.299	23269
833.437	23364
833.576	23410
833.714	23341
833.852	23410
833.991	23497
834.129	23315
834.267	23421
834.406	23318
834.544	23364
834.682	23296
834.821	23296
834.959	23512
835.097	23258
835.235	23349
835.373	23318
835.511	23425
835.65	23132
835.788	23128
835.926	23037
836.064	22976
836.202	22980
836.34	23227
836.478	23242
836.615	23086
836.753	23124
836.891	23216
837.029	23235
837.167	23121
837.305	23140
837.443	22995
837.58	22892
837.718	22987
837.856	23048
837.993	22885
838.131	22999
838.269	22755
838.406	22904
838.544	22797
838.681	22683
838.819	22554
838.956	22402
839.094	22405
839.231	22409
839.369	22557
839.506	22687
839.643	22710
839.781	22409
839.918	22421
840.055	22303
840.193	22405
840.33	22333
840.467	22405
840.604	22352
840.742	22573
840.879	22150
841.016	22280
841.153	22303
841.29	22371
841.427	22219
841.564	22379
841.701	22333
841.838	22177
841.975	22192
842.112	22299
842.249	22070
842.385	21975
842.522	22150
842.659	22006
842.796	21968
842.933	22219
843.069	22059
843.206	21895
843.343	22173
843.479	21945
843.616	21937
843.752	21835
843.889	21785
844.025	21968
844.162	21785
844.298	21911
844.435	21728
844.571	21690
844.708	21793
844.844	21926
844.98	21994
845.117	21835
845.253	21797
845.389	21675
845.525	21766
845.661	21568
845.798	21629
845.934	21637
846.07	21473
846.206	21595
846.342	21641
846.478	21492
846.614	21313
846.75	21245
846.886	21241
847.022	21291
847.158	21264
847.294	21241
847.429	21249
847.565	21138
847.701	21447
847.837	20956
847.972	20937
848.108	21043
848.244	20952
848.379	20777
848.515	20731
848.65	20754
848.786	20880
848.921	20781
849.057	20933
849.192	20971
849.328	20765
849.463	20724
849.598	20765
849.734	20644
849.869	20613
850.004	20503
850.14	20545
850.275	20632
850.41	20408
850.545	20476
850.68	20469
850.815	20560
850.95	20499
851.085	20762
851.22	20663
851.355	20556
851.49	20438
851.625	20408
851.76	20362
851.895	20393
852.03	20442
852.165	20415
852.299	20499
852.434	20514
852.569	20533
852.703	20465
852.838	20667
852.973	20674
853.107	20598
853.242	20438
853.376	20244
853.511	20225
853.645	20366
853.78	20408
853.914	20301
854.048	20278
854.183	20313
854.317	20332
854.451	20564
854.585	20374
854.72	20252
854.854	20389
854.988	20328
855.122	20320
855.256	20107
855.39	20355
855.524	20499
855.658	20358
855.792	20313
855.926	20328
856.06	20294
856.194	20332
856.327	20370
856.461	20301
856.595	20298
856.729	20343
856.862	20358
856.996	20419
857.13	20400
857.263	20347
857.397	20419
857.53	20282
857.664	20400
857.797	20355
857.931	20457
858.064	20317
858.197	20408
858.331	20294
858.464	20294
858.597	20263
858.731	20263
858.864	20183
858.997	20256
859.13	20301
859.263	20278
859.396	20415
859.529	20282
859.662	20210
859.795	20240
859.928	20214
860.061	20457
860.194	20393
860.327	20290
860.46	20305
860.592	20343
860.725	20358
860.858	20389
860.99	20309
861.123	20240
861.256	20237
861.388	20320
861.521	20899
861.653	20233
861.786	20122
861.918	20187
862.05	20267
862.183	20225
862.315	20263
862.447	20282
862.58	20305
862.712	20164
862.844	19997
862.976	20062
863.108	20149
863.24	20473
863.372	19944
863.504	20020
863.636	19944
863.768	20050
863.9	20043
864.032	19974
864.164	19803
864.296	19913
864.428	20119
864.559	19921
864.691	19982
864.823	20008
864.954	19936
865.086	19849
865.217	19906
865.349	19871
865.48	19955
865.612	19799
865.743	19932
865.875	19875
866.006	19909
866.137	19921
866.269	19860
866.4	19925
866.531	19830
866.662	19677
866.793	19750
866.924	19963
867.055	19868
867.186	19913
867.317	19765
867.448	19609
867.579	19738
867.71	19647
867.841	19696
867.972	19833
868.103	19849
868.233	19837
868.364	19772
868.495	19799
868.625	20046
868.756	20107
868.886	19932
869.017	19959
869.147	20122
869.278	20111
869.408	20103
869.539	20012
869.669	20218
869.799	20157
869.929	20176
870.06	20122
870.19	20431
870.32	20408
870.45	20400
870.58	20385
870.71	20659
870.84	20526
870.97	20457
871.1	20396
871.23	20568
871.36	20708
871.489	20533
871.619	20568
871.749	20636
871.879	20720
872.008	20781
872.138	20724
872.267	20590
872.397	20511
872.526	20396
872.656	20507
872.785	20366
872.915	20640
873.044	20746
873.173	20686
873.303	20545
873.432	20674
873.561	20754
873.69	20796
873.819	20594
873.948	20731
874.077	20727
874.206	20640
874.335	20667
874.464	20758
874.593	20883
874.722	20887
874.851	20986
874.979	20880
875.108	20921
875.237	20876
875.365	20815
875.494	20777
875.623	21104
875.751	20845
875.88	20948
876.008	21070
876.136	21036
876.265	21241
876.393	21450
876.521	21420
876.65	21401
876.778	21298
876.906	21317
877.034	21214
877.162	21203
877.29	21298
877.418	21203
877.546	21245
877.674	21378
877.802	21203
877.93	21146
878.058	21256
878.185	21230
878.313	21222
878.441	21237
878.568	21150
878.696	21226
878.824	21370
878.951	21336
879.079	21492
879.206	21549
879.333	21515
879.461	21336
879.588	21287
879.715	21469
879.842	21538
879.97	21416
880.097	21058
880.224	20975
880.351	21173
880.478	21077
880.605	21055
880.732	21119
880.859	21252
880.986	21123
881.112	21043
881.239	21051
881.366	20899
881.493	20785
881.619	20609
881.746	20689
881.872	20708
881.999	20629
882.125	20590
882.252	20682
882.378	20750
882.505	20785
882.631	20686
882.757	20488
882.883	20541
883.01	20415
883.136	20408
883.262	20355
883.388	20248
883.514	20366
883.64	20507
883.766	20408
883.892	20229
884.018	20240
884.143	20309
884.269	20469
884.395	20172
884.52	19940
884.646	20077
884.772	20054
884.897	19947
885.023	20039
885.148	20157
885.274	20221
885.399	20180
885.524	20035
885.65	20058
885.775	20100
885.9	19906
886.025	20183
886.15	20096
886.275	19925
886.4	19951
886.525	20069
886.65	20027
886.775	19978
886.9	20157
887.025	20263
887.149	20058
887.274	19989
887.399	19841
887.523	19784
887.648	19715
887.773	19753
887.897	19803
888.021	19936
888.146	19864
888.27	19982
888.395	19940
888.519	19822
888.643	19879
888.767	20046
888.891	19791
889.015	19811
889.139	19780
889.263	19506
889.387	19772
889.511	19845
889.635	19746
889.759	19567
889.883	19590
890.006	19712
890.13	19700
890.254	19495
890.377	19567
890.501	19392
890.624	19339
890.748	19441
890.871	19358
890.995	19282
891.118	19069
891.241	19274
891.364	19297
891.488	19266
891.611	19129
891.734	19160
891.857	19251
891.98	19209
892.103	19274
892.226	19202
892.349	19118
892.471	19076
892.594	19110
892.717	19145
892.839	19107
892.962	19095
893.085	19274
893.207	19000
893.33	18970
893.452	18977
893.575	19095
893.697	19091
893.819	19160
893.941	19312
894.064	19217
894.186	19076
894.308	19012
894.43	19293
894.552	19289
894.674	19206
894.796	19103
894.918	19198
895.04	19141
895.161	19232
895.283	19266
895.405	19129
895.526	19160
895.648	19084
895.769	19183
895.891	19278
896.012	19221
896.134	19289
896.255	19088
896.376	19244
896.498	19190
896.619	19251
896.74	19152
896.861	19285
896.982	19464
897.103	19559
897.224	19521
897.345	19472
897.466	19259
897.587	19365
897.708	19495
897.828	19411
897.949	19362
898.07	19240
898.19	19282
898.311	19449
898.431	19194
898.552	19373
898.672	19525
898.792	19464
898.913	19411
899.033	19312
899.153	19129
899.273	19072
899.393	19107
899.513	19240
899.633	19152
899.753	19133
899.873	19027
899.993	19129
900.113	19099
900.232	19160
900.352	18981
900.472	18905
900.591	18840
900.711	18985
900.83	18825
900.95	19004
901.069	19034
901.189	18776
901.308	18585
901.427	18547
901.546	18471
901.665	18479
901.784	18578
901.904	18304
902.023	18346
902.141	18106
902.26	17969
902.379	18072
902.498	17923
902.617	17942
902.735	18117
902.854	17931
902.973	17984
903.091	17729
903.21	17695
903.328	17691
903.446	17566
903.565	17581
903.683	17524
903.801	17391
903.919	17402
904.038	17463
904.156	17303
904.274	17231
904.392	17250
904.51	17132
904.627	17277
904.745	17223
904.863	17379
904.981	17071
905.098	16961
905.216	16991
905.334	16976
905.451	16927
905.569	16995
905.686	17014
905.803	16946
905.921	16733
906.038	16824
906.155	16763
906.272	16729
906.389	16717
906.506	16504
906.623	16455
906.74	16356
906.857	16432
906.974	16386
907.091	16500
907.208	16615
907.324	16440
907.441	16379
907.557	16192
907.674	16234
907.79	16109
907.907	16173
908.023	16234
908.139	16154
908.256	16040
908.372	16124
908.488	16017
908.604	15823
908.72	15876
908.836	15857
908.952	15880
909.068	15911
909.184	15956
909.3	15812
909.415	15880
909.531	15755
909.647	15622
909.762	15580
909.878	15614
909.993	15545
910.108	15614
910.224	15610
910.339	15572
910.454	15424
910.57	15340
910.685	15283
910.8	15610
910.915	15549
911.03	15294
911.145	15249
911.259	15287
911.374	15184
911.489	15043
911.604	15028
911.718	14910
911.833	14899
911.947	14826
912.062	14765
912.176	14880
912.291	14982
912.405	14868
912.519	15055
912.633	15081
912.748	14914
912.862	14925
912.976	14686
913.09	14613
913.204	14667
913.318	14655
913.431	14777
913.545	14746
913.659	14861
913.772	14697
913.886	14571
914	14495
914.113	14606
914.226	14625
914.34	14648
914.453	14476
914.566	14590
914.68	14514
914.793	14438
914.906	14275
915.019	14172
915.132	14107
915.245	14123
915.358	14259
915.47	14206
915.583	14199
915.696	14267
915.809	14385
915.921	14301
916.034	14221
916.146	14138
916.259	14092
916.371	14111
916.483	14092
916.595	14027
916.708	14008
916.82	14065
916.932	14027
917.044	13974
917.156	13944
917.268	13822
917.38	13974
917.491	13860
917.603	13921
917.715	13955
917.826	14012
917.938	13856
918.049	13734
918.161	13822
918.272	13940
918.384	13936
918.495	13795
918.606	13822
918.717	13601
918.828	13723
918.939	13731
919.05	13533
919.161	13609
919.272	13369
919.383	13502
919.494	13677
919.604	13830
919.715	13662
919.826	13491
919.936	13495
920.047	13753
920.157	13639
920.267	13822
920.378	13624
920.488	13601
920.598	13833
920.708	13875
920.818	13734
920.928	13708
921.038	13868
921.148	13902
921.258	13662
921.368	13563
921.477	13335
921.587	13327
921.697	13175
921.806	13350
921.916	13168
922.025	13072
922.134	13061
922.244	12935
922.353	12977
922.462	12890
922.571	12875
922.68	12673
922.789	12585
922.898	12684
923.007	12604
923.116	12639
923.224	12540
923.333	12570
923.442	12502
923.55	12479
923.659	12388
923.767	12589
923.876	12460
923.984	12559
924.092	12380
924.201	12452
924.309	12289
924.417	12445
924.525	12350
924.633	12372
924.741	13164
924.849	12129
924.956	12410
925.064	12098
925.172	12106
925.279	12129
925.387	12201
925.494	12121
925.602	12163
925.709	12121
925.816	12038
925.924	12072
926.031	12091
926.138	12068
926.245	12133
926.352	11927
926.459	12129
926.566	12159
926.673	11920
926.779	11916
926.886	11882
926.993	11611
927.099	11726
927.206	11665
927.312	11638
927.419	11748
927.525	11748
927.631	11726
927.737	11532
927.843	11566
927.95	11463
928.056	11604
928.162	11562
928.267	11623
928.373	12053
928.479	11661
928.585	11406
928.69	11478
928.796	11585
928.901	11452
929.007	11273
929.112	11459
929.218	11516
929.323	11334
929.428	11341
929.533	11486
929.638	11231
929.743	11189
929.848	11235
929.953	11315
930.058	11204
930.163	11037
930.267	11018
930.372	11094
930.477	10957
930.581	11197
930.685	11075
930.79	10911
930.894	10919
930.998	10991
931.103	10976
931.207	10691
931.311	10634
931.415	10478
931.519	10310
931.623	10295
