Data from test_V78500241_2148.txt Node
Date: Fri Mar 25 15:24:48 CST 2022
User: usil
Spectrometer: V785-0024
Trigger mode: 0
Integration Time (sec): 4.000000E-1
Scans to average: 1
Nonlinearity correction enabled: false
Boxcar width: 0
Storing dark spectrum: false
XAxis mode: Wavelengths
Number of Pixels in Spectrum: 1024
>>>>>Begin Spectral Data<<<<<
801.071	27538
801.214	27553
801.356	27192
801.499	27112
801.641	26994
801.783	27005
801.926	27043
802.068	27058
802.211	26929
802.353	26876
802.496	26659
802.638	26625
802.78	26686
802.923	26678
803.065	26629
803.208	26617
803.35	26621
803.492	26667
803.635	26845
803.777	26773
803.919	26914
804.061	27264
804.204	27032
804.346	26929
804.488	26739
804.63	26887
804.773	26769
804.915	26739
805.057	26948
805.199	26758
805.341	26800
805.483	26994
805.626	26986
805.768	26887
805.91	26986
806.052	26998
806.194	26895
806.336	27077
806.478	27017
806.62	26952
806.762	26982
806.904	27233
807.046	27519
807.188	27359
807.33	27469
807.472	27310
807.614	27291
807.756	27424
807.898	27218
808.04	27214
808.182	27138
808.324	27199
808.465	27291
808.607	27416
808.749	27580
808.891	27557
809.033	27709
809.174	27637
809.316	27511
809.458	27625
809.6	27625
809.741	27762
809.883	27728
810.025	27831
810.166	27835
810.308	27941
810.45	27762
810.591	27766
810.733	27660
810.875	27530
811.016	27485
811.158	27500
811.299	27583
811.441	27751
811.582	27599
811.724	27481
811.865	27553
812.007	27473
812.148	27523
812.29	27530
812.431	27747
812.573	27983
812.714	28006
812.855	28154
812.997	28169
813.138	28295
813.279	28124
813.421	28139
813.562	27998
813.703	27831
813.845	27812
813.986	27473
814.127	27336
814.268	27272
814.41	27412
814.551	27249
814.692	27237
814.833	27146
814.974	27207
815.115	27249
815.256	27047
815.397	27203
815.539	27127
815.68	27074
815.821	26899
815.962	27055
816.103	27074
816.244	26906
816.385	26857
816.526	26796
816.666	26648
816.807	26514
816.948	26507
817.089	26602
817.23	26636
817.371	26461
817.512	26514
817.653	26568
817.793	26617
817.934	26541
818.075	26560
818.216	26446
818.356	26423
818.497	26423
818.638	26427
818.778	26218
818.919	26290
819.06	26419
819.2	26412
819.341	26450
819.481	26503
819.622	26777
819.762	26792
819.903	26678
820.043	26640
820.184	26659
820.324	26674
820.465	26609
820.605	26670
820.746	26552
820.886	26453
821.026	26727
821.167	26587
821.307	26648
821.447	26370
821.588	26404
821.728	26389
821.868	26199
822.008	26012
822.149	26012
822.289	25959
822.429	25841
822.569	25753
822.709	25670
822.849	25582
822.99	25369
823.13	25472
823.27	25381
823.41	25282
823.55	25209
823.69	25373
823.83	25225
823.97	25263
824.11	25038
824.25	25080
824.389	25152
824.529	25156
824.669	25061
824.809	25183
824.949	25114
825.089	25285
825.228	25270
825.368	24928
825.508	24985
825.648	25061
825.787	25099
825.927	25034
826.067	24920
826.206	24878
826.346	24943
826.485	24970
826.625	24844
826.765	25023
826.904	25050
827.044	24814
827.183	24700
827.323	24658
827.462	24707
827.601	24791
827.741	24623
827.88	24787
828.02	24555
828.159	24738
828.298	24525
828.437	24741
828.577	24627
828.716	24947
828.855	24540
828.994	24186
829.134	24380
829.273	24429
829.412	24407
829.551	24311
829.69	24296
829.829	24300
829.968	24517
830.107	24498
830.246	24323
830.385	24357
830.524	24319
830.663	24186
830.802	24197
830.941	24003
831.08	24018
831.219	24030
831.357	24049
831.496	24133
831.635	23984
831.774	24007
831.913	23836
832.051	23809
832.19	23798
832.329	23752
832.467	23748
832.606	23642
832.744	23657
832.883	23581
833.022	23714
833.16	23554
833.299	23718
833.437	23668
833.576	23786
833.714	23604
833.852	23779
833.991	23752
834.129	23821
834.267	23798
834.406	23817
834.544	23691
834.682	23813
834.821	23722
834.959	23939
835.097	23623
835.235	23798
835.373	23722
835.511	23551
835.65	23535
835.788	23665
835.926	23490
836.064	23337
836.202	23478
836.34	23543
836.478	23501
836.615	23554
836.753	23455
836.891	23703
837.029	23414
837.167	23463
837.305	23337
837.443	23337
837.58	23379
837.718	23455
837.856	23444
837.993	23307
838.131	23280
838.269	23204
838.406	23387
838.544	23261
838.681	22995
838.819	23052
838.956	22877
839.094	22812
839.231	22850
839.369	22984
839.506	23273
839.643	23140
839.781	22854
839.918	22847
840.055	22919
840.193	22809
840.33	22672
840.467	22839
840.604	22797
840.742	23056
840.879	22607
841.016	22694
841.153	22702
841.29	22843
841.427	22710
841.564	22858
841.701	22729
841.838	22687
841.975	22683
842.112	22660
842.249	22413
842.385	22516
842.522	22733
842.659	22485
842.796	22367
842.933	22497
843.069	22474
843.206	22474
843.343	22702
843.479	22535
843.616	22481
843.752	22249
843.889	22485
844.025	22489
844.162	22363
844.298	22382
844.435	22287
844.571	22417
844.708	22242
844.844	22470
844.98	22421
845.117	22363
845.253	22299
845.389	22169
845.525	22101
845.661	22177
845.798	22059
845.934	22067
846.07	22029
846.206	21994
846.342	22116
846.478	22002
846.614	21709
846.75	21720
846.886	21747
847.022	21823
847.158	21857
847.294	21724
847.429	21724
847.565	21728
847.701	22036
847.837	21458
847.972	21466
848.108	21587
848.244	21625
848.379	21287
848.515	21268
848.65	21454
848.786	21538
848.921	21382
849.057	21412
849.192	21485
849.328	21393
849.463	21412
849.598	21428
849.734	21268
849.869	21272
850.004	21135
850.14	21051
850.275	21123
850.41	21043
850.545	21051
850.68	21093
850.815	21211
850.95	21317
851.085	21340
851.22	21226
851.355	21233
851.49	21119
851.625	21032
851.76	21146
851.895	20982
852.03	21020
852.165	21043
852.299	21100
852.434	21230
852.569	21233
852.703	21131
852.838	21249
852.973	21203
853.107	21039
853.242	20952
853.376	20994
853.511	20921
853.645	20906
853.78	21070
853.914	21028
854.048	20804
854.183	20918
854.317	20883
854.451	21207
854.585	20845
854.72	20868
854.854	20960
854.988	20971
855.122	20887
855.256	20811
855.39	20937
855.524	20963
855.658	20979
855.792	21001
855.926	21039
856.06	20887
856.194	20929
856.327	20918
856.461	20804
856.595	21013
856.729	20902
856.862	21062
856.996	20948
857.13	20998
857.263	21070
857.397	21017
857.53	20990
857.664	20982
857.797	20864
857.931	21005
858.064	21043
858.197	21024
858.331	20792
858.464	20899
858.597	20788
858.731	20979
858.864	20891
858.997	20979
859.13	21036
859.263	20925
859.396	21055
859.529	20933
859.662	20960
859.795	20883
859.928	20994
860.061	21184
860.194	21154
860.327	21001
860.46	20952
860.592	21157
860.725	21104
860.858	21039
860.99	20933
861.123	20921
861.256	21005
861.388	20765
861.521	21606
861.653	20933
861.786	20834
861.918	20735
862.05	20815
862.183	20849
862.315	20906
862.447	20933
862.58	20781
862.712	20640
862.844	20518
862.976	20902
863.108	20773
863.24	21043
863.372	20552
863.504	20720
863.636	20613
863.768	20731
863.9	20644
864.032	20636
864.164	20644
864.296	20708
864.428	20769
864.559	20670
864.691	20644
864.823	20762
864.954	20613
865.086	20674
865.217	20594
865.349	20408
865.48	20655
865.612	20499
865.743	20571
865.875	20602
866.006	20564
866.137	20552
866.269	20522
866.4	20408
866.531	20499
866.662	20480
866.793	20499
866.924	20583
867.055	20617
867.186	20492
867.317	20495
867.448	20370
867.579	20442
867.71	20381
867.841	20385
867.972	20419
868.103	20473
868.233	20533
868.364	20625
868.495	20590
868.625	20815
868.756	20758
868.886	20659
869.017	20655
869.147	20842
869.278	20792
869.408	20701
869.539	20720
869.669	20861
869.799	20724
869.929	20876
870.06	20845
870.19	20937
870.32	21028
870.45	21051
870.58	21070
870.71	21306
870.84	21138
870.97	21074
871.1	21173
871.23	21340
871.36	21348
871.489	21222
871.619	21211
871.749	21222
871.879	21500
872.008	21405
872.138	21351
872.267	21367
872.397	21119
872.526	21146
872.656	21138
872.785	21138
872.915	21351
873.044	21473
873.173	21435
873.303	21481
873.432	21374
873.561	21481
873.69	21249
873.819	21306
873.948	21496
874.077	21351
874.206	21321
874.335	21317
874.464	21447
874.593	21507
874.722	21625
874.851	21488
874.979	21580
875.108	21603
875.237	21447
875.365	21523
875.494	21538
875.623	21667
875.751	21587
875.88	21637
876.008	21709
876.136	21781
876.265	22070
876.393	22109
876.521	22044
876.65	22090
876.778	22025
876.906	21895
877.034	21895
877.162	21899
877.29	21884
877.418	21922
877.546	21998
877.674	21861
877.802	21922
877.93	21930
878.058	21846
878.185	21785
878.313	21930
878.441	22002
878.568	21835
878.696	21895
878.824	21895
878.951	22006
879.079	22097
879.206	22246
879.333	22139
879.461	22006
879.588	22051
879.715	22067
879.842	22116
879.97	21953
880.097	21774
880.224	21698
880.351	21766
880.478	21880
880.605	21671
880.732	21819
880.859	21918
880.986	21823
881.112	21766
881.239	21595
881.366	21504
881.493	21416
881.619	21306
881.746	21401
881.872	21340
881.999	21325
882.125	21192
882.252	21256
882.378	21370
882.505	21306
882.631	21256
882.757	21062
882.883	21165
883.01	21009
883.136	20944
883.262	20906
883.388	20895
883.514	21077
883.64	20990
883.766	20967
883.892	20845
884.018	20921
884.143	21020
884.269	21093
884.395	20868
884.52	20651
884.646	20708
884.772	20701
884.897	20503
885.023	20762
885.148	20781
885.274	20746
885.399	20826
885.524	20792
885.65	20682
885.775	20644
885.9	20522
886.025	20823
886.15	20678
886.275	20754
886.4	20552
886.525	20625
886.65	20674
886.775	20556
886.9	20712
887.025	20880
887.149	20724
887.274	20541
887.399	20564
887.523	20503
887.648	20473
887.773	20320
887.897	20648
888.021	20590
888.146	20419
888.27	20492
888.395	20655
888.519	20473
888.643	20446
888.767	20526
888.891	20450
889.015	20374
889.139	20358
889.263	20267
889.387	20495
889.511	20514
889.635	20446
889.759	20237
889.883	20229
890.006	20328
890.13	20423
890.254	20294
890.377	20172
890.501	20031
890.624	19913
890.748	20199
890.871	19989
890.995	19955
891.118	19814
891.241	19830
891.364	19978
891.488	19868
891.611	19898
891.734	19875
891.857	19852
891.98	19784
892.103	19845
892.226	19871
892.349	19753
892.471	19715
892.594	19833
892.717	19879
892.839	19875
892.962	19814
893.085	19898
893.207	19757
893.33	19616
893.452	19666
893.575	19837
893.697	19662
893.819	19879
893.941	19902
894.064	19944
894.186	19784
894.308	19772
894.43	19955
894.552	19940
894.674	19913
894.796	19753
894.918	19811
895.04	19704
895.161	19864
895.283	19696
895.405	19693
895.526	19833
895.648	19772
895.769	19856
895.891	19795
896.012	19947
896.134	19951
896.255	19913
896.376	19753
896.498	19826
896.619	19814
896.74	19864
896.861	19852
896.982	20046
897.103	20237
897.224	20149
897.345	20039
897.466	19947
897.587	20073
897.708	20214
897.828	20096
897.949	19955
898.07	19947
898.19	19982
898.311	20062
898.431	19955
898.552	20016
898.672	20043
898.792	20122
898.913	20069
899.033	19852
899.153	19909
899.273	19723
899.393	19757
899.513	19761
899.633	19837
899.753	19689
899.873	19666
899.993	19784
900.113	19799
900.232	19753
900.352	19700
900.472	19635
900.591	19518
900.711	19651
900.83	19571
900.95	19689
901.069	19708
901.189	19426
901.308	19289
901.427	19080
901.546	19072
901.665	19278
901.784	19198
901.904	19137
902.023	18878
902.141	18810
902.26	18757
902.379	18760
902.498	18692
902.617	18722
902.735	18806
902.854	18620
902.973	18566
903.091	18452
903.21	18372
903.328	18376
903.446	18201
903.565	18224
903.683	18266
903.801	18068
903.919	18144
904.038	18053
904.156	18041
904.274	18049
904.392	17916
904.51	17874
904.627	17882
904.745	17889
904.863	17874
904.981	17691
905.098	17589
905.216	17661
905.334	17710
905.451	17627
905.569	17497
905.686	17589
905.803	17638
905.921	17379
906.038	17524
906.155	17463
906.272	17356
906.389	17318
906.506	17124
906.623	17231
906.74	17113
906.857	17029
906.974	16934
907.091	17098
907.208	17189
907.324	17235
907.441	17033
907.557	16877
907.674	16896
907.79	16778
907.907	16763
908.023	16938
908.139	16862
908.256	16763
908.372	16740
908.488	16603
908.604	16599
908.72	16584
908.836	16634
908.952	16538
909.068	16630
909.184	16653
909.3	16500
909.415	16637
909.531	16421
909.647	16306
909.762	16272
909.878	16188
909.993	16272
910.108	16131
910.224	16181
910.339	16204
910.454	16105
910.57	16150
910.685	15934
910.8	16287
910.915	16249
911.03	16051
911.145	15892
911.259	15930
911.374	15850
911.489	15835
911.604	15675
911.718	15618
911.833	15557
911.947	15610
912.062	15492
912.176	15625
912.291	15595
912.405	15682
912.519	15759
912.633	15770
912.748	15610
912.862	15595
912.976	15504
913.09	15310
913.204	15378
913.318	15424
913.431	15507
913.545	15507
913.659	15549
913.772	15401
913.886	15241
914	15199
914.113	15313
914.226	15310
914.34	15302
914.453	15036
914.566	15218
914.68	15161
914.793	15222
914.906	14929
915.019	14891
915.132	14788
915.245	14838
915.358	14792
915.47	14876
915.583	14800
915.696	14899
915.809	14857
915.921	14986
916.034	14804
916.146	14785
916.259	14769
916.371	14830
916.483	14781
916.595	14648
916.708	14697
916.82	14720
916.932	14629
917.044	14590
917.156	14602
917.268	14598
917.38	14648
917.491	14469
917.603	14473
917.715	14648
917.826	14549
917.938	14495
918.049	14423
918.161	14431
918.272	14644
918.384	14625
918.495	14530
918.606	14286
918.717	14183
918.828	14218
918.939	14336
919.05	14183
919.161	14202
919.272	14096
919.383	14161
919.494	14248
919.604	14484
919.715	14339
919.826	14229
919.936	14180
920.047	14309
920.157	14237
920.267	14362
920.378	14267
920.488	14286
920.598	14427
920.708	14514
920.818	14377
920.928	14366
921.038	14476
921.148	14381
921.258	14100
921.368	14050
921.477	14054
921.587	13921
921.697	13902
921.806	13921
921.916	13826
922.025	13616
922.134	13643
922.244	13491
922.353	13685
922.462	13510
922.571	13449
922.68	13308
922.789	13362
922.898	13346
923.007	13228
923.116	13373
923.224	13247
923.333	13236
923.442	13053
923.55	13069
923.659	13183
923.767	13179
923.876	13091
923.984	13190
924.092	13080
924.201	13156
924.309	12993
924.417	13000
924.525	12867
924.633	12867
924.741	13772
924.849	12791
924.956	12875
925.064	12745
925.172	12646
925.279	12757
925.387	12753
925.494	12730
925.602	12901
925.709	12715
925.816	12601
925.924	12700
926.031	12757
926.138	12623
926.245	12662
926.352	12631
926.459	12681
926.566	12760
926.673	12620
926.779	12418
926.886	12426
926.993	12372
927.099	12300
927.206	12251
927.312	12186
927.419	12376
927.525	12319
927.631	12254
927.737	12220
927.843	12224
927.95	11973
928.056	12057
928.162	12152
928.267	12216
928.373	12692
928.479	12209
928.585	11969
928.69	12102
928.796	12106
928.901	12026
929.007	11866
929.112	11958
929.218	11923
929.323	11874
929.428	11775
929.533	12026
929.638	11695
929.743	11756
929.848	11790
929.953	11733
930.058	11668
930.163	11570
930.267	11520
930.372	11638
930.477	11493
930.581	11699
930.685	11668
930.79	11444
930.894	11467
930.998	11471
931.103	11554
931.207	11178
931.311	11102
931.415	11022
931.519	10885
931.623	10862
