Data from test_V78500241_1304.txt Node
Date: Fri Mar 25 15:18:56 CST 2022
User: usil
Spectrometer: V785-0024
Trigger mode: 0
Integration Time (sec): 4.000000E-1
Scans to average: 1
Nonlinearity correction enabled: false
Boxcar width: 0
Storing dark spectrum: false
XAxis mode: Wavelengths
Number of Pixels in Spectrum: 1024
>>>>>Begin Spectral Data<<<<<
801.071	28002
801.214	27941
801.356	27774
801.499	27587
801.641	27542
801.783	27526
801.926	27614
802.068	27424
802.211	27439
802.353	27291
802.496	27294
802.638	27256
802.78	27104
802.923	27146
803.065	27138
803.208	27203
803.35	27184
803.492	27321
803.635	27207
803.777	27150
803.919	27176
804.061	27736
804.204	27355
804.346	27389
804.488	27272
804.63	27256
804.773	27279
804.915	27348
805.057	27538
805.199	27313
805.341	27424
805.483	27534
805.626	27439
805.768	27439
805.91	27458
806.052	27545
806.194	27492
806.336	27686
806.478	27675
806.62	27469
806.762	27549
806.904	27762
807.046	28063
807.188	27800
807.33	27968
807.472	28162
807.614	27816
807.756	27975
807.898	27720
808.04	27770
808.182	27736
808.324	27797
808.465	27934
808.607	28074
808.749	28093
808.891	28215
809.033	28230
809.174	28082
809.316	28055
809.458	28204
809.6	28135
809.741	28257
809.883	28284
810.025	28508
810.166	28428
810.308	28329
810.45	28348
810.591	28337
810.733	28329
810.875	28135
811.016	28158
811.158	27937
811.299	28242
811.441	28272
811.582	28375
811.724	28116
811.865	28101
812.007	28196
812.148	28051
812.29	28143
812.431	28413
812.573	28538
812.714	28577
812.855	28603
812.997	28618
813.138	28927
813.279	28771
813.421	28649
813.562	28660
813.703	28660
813.845	28394
813.986	28215
814.127	27941
814.268	27701
814.41	27766
814.551	27774
814.692	27956
814.833	27785
814.974	27762
815.115	27968
815.256	27804
815.397	27739
815.539	27732
815.68	27625
815.821	27519
815.962	27625
816.103	27561
816.244	27496
816.385	27561
816.526	27447
816.666	27340
816.807	27199
816.948	27211
817.089	27207
817.23	27093
817.371	27211
817.512	27017
817.653	27104
817.793	27146
817.934	26967
818.075	27214
818.216	27043
818.356	27112
818.497	26956
818.638	26925
818.778	26982
818.919	26914
819.06	26864
819.2	26834
819.341	27169
819.481	27081
819.622	27351
819.762	27458
819.903	27458
820.043	27485
820.184	27264
820.324	27180
820.465	27272
820.605	27291
820.746	27127
820.886	27070
821.026	27188
821.167	27108
821.307	27173
821.447	27142
821.588	27020
821.728	26940
821.868	26807
822.008	26606
822.149	26613
822.289	26640
822.429	26347
822.569	26259
822.709	26278
822.849	26073
822.99	26100
823.13	26092
823.27	26065
823.41	25955
823.55	25944
823.69	25932
823.83	25883
823.97	25807
824.11	25757
824.25	25765
824.389	25704
824.529	25742
824.669	25753
824.809	25982
824.949	25875
825.089	25932
825.228	25852
825.368	25658
825.508	25613
825.648	25544
825.787	25757
825.927	25666
826.067	25571
826.206	25738
826.346	25776
826.485	25719
826.625	25643
826.765	25677
826.904	25677
827.044	25400
827.183	25468
827.323	25388
827.462	25434
827.601	25373
827.741	25434
827.88	25343
828.02	25324
828.159	25270
828.298	25403
828.437	25377
828.577	25232
828.716	25518
828.855	25202
828.994	25107
829.134	25015
829.273	25122
829.412	25023
829.551	25095
829.69	25080
829.829	25129
829.968	25240
830.107	25141
830.246	24947
830.385	24947
830.524	24951
830.663	24829
830.802	24795
830.941	24642
831.08	24715
831.219	24700
831.357	24776
831.496	24958
831.635	24760
831.774	24570
831.913	24475
832.051	24486
832.19	24471
832.329	24395
832.467	24513
832.606	24277
832.744	24327
832.883	24296
833.022	24323
833.16	24384
833.299	24254
833.437	24433
833.576	24464
833.714	24464
833.852	24460
833.991	24498
834.129	24437
834.267	24486
834.406	24365
834.544	24464
834.682	24384
834.821	24384
834.959	24578
835.097	24323
835.235	24395
835.373	24448
835.511	24304
835.65	24220
835.788	24334
835.926	24057
836.064	24121
836.202	23969
836.34	24292
836.478	24342
836.615	24216
836.753	24289
836.891	24403
837.029	24243
837.167	24083
837.305	24228
837.443	24129
837.58	24076
837.718	24079
837.856	23946
837.993	24049
838.131	24060
838.269	23942
838.406	24003
838.544	23920
838.681	23691
838.819	23756
838.956	23505
839.094	23512
839.231	23570
839.369	23691
839.506	24007
839.643	23920
839.781	23589
839.918	23383
840.055	23573
840.193	23486
840.33	23421
840.467	23478
840.604	23440
840.742	23657
840.879	23417
841.016	23414
841.153	23284
841.29	23516
841.427	23391
841.564	23493
841.701	23372
841.838	23337
841.975	23326
842.112	23292
842.249	23387
842.385	23223
842.522	23490
842.659	23307
842.796	23174
842.933	23181
843.069	23231
843.206	23132
843.343	23337
843.479	23322
843.616	23071
843.752	23025
843.889	23003
844.025	23117
844.162	23044
844.298	23083
844.435	22927
844.571	22866
844.708	23109
844.844	23185
844.98	23079
845.117	23090
845.253	22908
845.389	22824
845.525	22927
845.661	22733
845.798	22873
845.934	22793
846.07	22668
846.206	22691
846.342	22862
846.478	22675
846.614	22455
846.75	22500
846.886	22455
847.022	22481
847.158	22478
847.294	22535
847.429	22519
847.565	22508
847.701	22637
847.837	22322
847.972	22280
848.108	22223
848.244	22287
848.379	22021
848.515	21899
848.65	22116
848.786	22090
848.921	21983
849.057	22025
849.192	22181
849.328	22234
849.463	22059
849.598	21918
849.734	22021
849.869	21876
850.004	21842
850.14	21838
850.275	21827
850.41	21778
850.545	21720
850.68	21865
850.815	21835
850.95	21774
851.085	22101
851.22	21953
851.355	21781
851.49	21808
851.625	21644
851.76	21888
851.895	21675
852.03	21656
852.165	21759
852.299	21739
852.434	21899
852.569	21842
852.703	21774
852.838	21827
852.973	21903
853.107	21918
853.242	21774
853.376	21732
853.511	21576
853.645	21458
853.78	21629
853.914	21686
854.048	21610
854.183	21572
854.317	21603
854.451	21812
854.585	21705
854.72	21610
854.854	21720
854.988	21553
855.122	21576
855.256	21507
855.39	21610
855.524	21720
855.658	21724
855.792	21595
855.926	21671
856.06	21652
856.194	21789
856.327	21519
856.461	21622
856.595	21561
856.729	21622
856.862	21709
856.996	21690
857.13	21660
857.263	21759
857.397	21739
857.53	21648
857.664	21667
857.797	21728
857.931	21736
858.064	21656
858.197	21728
858.331	21663
858.464	21450
858.597	21526
858.731	21572
858.864	21614
858.997	21553
859.13	21606
859.263	21633
859.396	21793
859.529	21625
859.662	21629
859.795	21553
859.928	21698
860.061	21759
860.194	21854
860.327	21652
860.46	21713
860.592	21690
860.725	21648
860.858	21694
860.99	21713
861.123	21530
861.256	21568
861.388	21667
861.521	22291
861.653	21500
861.786	21306
861.918	21469
862.05	21530
862.183	21542
862.315	21526
862.447	21656
862.58	21545
862.712	21340
862.844	21287
862.976	21428
863.108	21382
863.24	21717
863.372	21264
863.504	21325
863.636	21355
863.768	21370
863.9	21393
864.032	21279
864.164	21275
864.296	21378
864.428	21473
864.559	21428
864.691	21340
864.823	21344
864.954	21321
865.086	21279
865.217	21283
865.349	21180
865.48	21123
865.612	21138
865.743	21233
865.875	21272
866.006	21264
866.137	21233
866.269	21237
866.4	21211
866.531	21310
866.662	21100
866.793	21005
866.924	21123
867.055	21169
867.186	21081
867.317	21066
867.448	21062
867.579	21112
867.71	21077
867.841	20941
867.972	21100
868.103	21256
868.233	21176
868.364	21161
868.495	21359
868.625	21473
868.756	21504
868.886	21241
869.017	21447
869.147	21511
869.278	21511
869.408	21367
869.539	21378
869.669	21507
869.799	21473
869.929	21549
870.06	21538
870.19	21690
870.32	21625
870.45	21637
870.58	21759
870.71	21808
870.84	21945
870.97	21743
871.1	21694
871.23	21888
871.36	21964
871.489	21850
871.619	21857
871.749	21819
871.879	22025
872.008	22173
872.138	22055
872.267	21918
872.397	21800
872.526	21755
872.656	21835
872.785	21922
872.915	22032
873.044	22120
873.173	22040
873.303	22025
873.432	22055
873.561	22044
873.69	21907
873.819	21903
873.948	22040
874.077	22036
874.206	21903
874.335	21899
874.464	22097
874.593	22246
874.722	22093
874.851	22200
874.979	22303
875.108	22169
875.237	22021
875.365	22158
875.494	22200
875.623	22230
875.751	22166
875.88	22253
876.008	22257
876.136	22428
876.265	22531
876.393	22668
876.521	22645
876.65	22645
876.778	22573
876.906	22603
877.034	22603
877.162	22557
877.29	22519
877.418	22611
877.546	22531
877.674	22489
877.802	22577
877.93	22607
878.058	22584
878.185	22493
878.313	22542
878.441	22561
878.568	22493
878.696	22546
878.824	22622
878.951	22615
879.079	22729
879.206	22729
879.333	22706
879.461	22588
879.588	22698
879.715	22805
879.842	22866
879.97	22565
880.097	22344
880.224	22322
880.351	22428
880.478	22440
880.605	22371
880.732	22402
880.859	22577
880.986	22443
881.112	22360
881.239	22310
881.366	22162
881.493	22055
881.619	21968
881.746	22063
881.872	22040
881.999	21895
882.125	21880
882.252	21869
882.378	21857
882.505	22082
882.631	21800
882.757	21686
882.883	21797
883.01	21686
883.136	21595
883.262	21412
883.388	21408
883.514	21572
883.64	21671
883.766	21561
883.892	21435
884.018	21568
884.143	21485
884.269	21542
884.395	21291
884.52	21279
884.646	21283
884.772	21264
884.897	21184
885.023	21188
885.148	21367
885.274	21458
885.399	21291
885.524	21306
885.65	21302
885.775	21207
885.9	21321
886.025	21310
886.15	21389
886.275	21180
886.4	21203
886.525	21245
886.65	21127
886.775	21264
886.9	21447
887.025	21485
887.149	21233
887.274	21161
887.399	21108
887.523	20906
887.648	20956
887.773	20948
887.897	21150
888.021	21112
888.146	21093
888.27	21252
888.395	21207
888.519	20963
888.643	21062
888.767	21081
888.891	20910
889.015	20960
889.139	20804
889.263	20872
889.387	20834
889.511	21020
889.635	20990
889.759	20800
889.883	20838
890.006	20838
890.13	20914
890.254	20815
890.377	20663
890.501	20625
890.624	20606
890.748	20663
890.871	20469
890.995	20419
891.118	20244
891.241	20526
891.364	20438
891.488	20602
891.611	20419
891.734	20427
891.857	20438
891.98	20351
892.103	20442
892.226	20412
892.349	20431
892.471	20096
892.594	20434
892.717	20339
892.839	20275
892.962	20282
893.085	20389
893.207	20438
893.33	20122
893.452	20282
893.575	20309
893.697	20267
893.819	20415
893.941	20457
894.064	20492
894.186	20252
894.308	20275
894.43	20461
894.552	20461
894.674	20374
894.796	20210
894.918	20362
895.04	20180
895.161	20434
895.283	20358
895.405	20240
895.526	20214
895.648	20290
895.769	20286
895.891	20240
896.012	20290
896.134	20328
896.255	20259
896.376	20248
896.498	20393
896.619	20313
896.74	20305
896.861	20324
896.982	20674
897.103	20716
897.224	20606
897.345	20579
897.466	20465
897.587	20377
897.708	20659
897.828	20514
897.949	20469
898.07	20305
898.19	20446
898.311	20678
898.431	20427
898.552	20450
898.672	20583
898.792	20617
898.913	20526
899.033	20393
899.153	20358
899.273	20225
899.393	20267
899.513	20206
899.633	20282
899.753	20290
899.873	20115
899.993	20240
900.113	20233
900.232	20214
900.352	20168
900.472	19982
900.591	20103
900.711	19967
900.83	20107
900.95	20172
901.069	20096
901.189	19993
901.308	19761
901.427	19601
901.546	19681
901.665	19605
901.784	19708
901.904	19499
902.023	19449
902.141	19312
902.26	19145
902.379	19312
902.498	19088
902.617	19042
902.735	19198
902.854	19145
902.973	19053
903.091	18764
903.21	18817
903.328	18806
903.446	18764
903.565	18593
903.683	18601
903.801	18559
903.919	18483
904.038	18532
904.156	18418
904.274	18448
904.392	18365
904.51	18292
904.627	18372
904.745	18391
904.863	18494
904.981	18167
905.098	18140
905.216	18098
905.334	18030
905.451	17980
905.569	18057
905.686	18102
905.803	17954
905.921	17840
906.038	17916
906.155	17840
906.272	17798
906.389	17733
906.506	17573
906.623	17611
906.74	17551
906.857	17493
906.974	17497
907.091	17691
907.208	17630
907.324	17471
907.441	17604
907.557	17337
907.674	17315
907.79	17280
907.907	17185
908.023	17341
908.139	17398
908.256	17162
908.372	17242
908.488	17223
908.604	17109
908.72	16976
908.836	16976
908.952	17010
909.068	17071
909.184	17140
909.3	16987
909.415	17064
909.531	17083
909.647	16797
909.762	16618
909.878	16698
909.993	16778
910.108	16694
910.224	16668
910.339	16710
910.454	16565
910.57	16580
910.685	16493
910.8	16637
910.915	16713
911.03	16478
911.145	16394
911.259	16325
911.374	16268
911.489	16253
911.604	16238
911.718	16010
911.833	16017
911.947	15941
912.062	15873
912.176	15991
912.291	15903
912.405	15918
912.519	16086
912.633	16188
912.748	15983
912.862	16002
912.976	15895
913.09	15766
913.204	15911
913.318	15823
913.431	15937
913.545	15922
913.659	15975
913.772	15831
913.886	15637
914	15675
914.113	15732
914.226	15831
914.34	15728
914.453	15606
914.566	15717
914.68	15568
914.793	15530
914.906	15332
915.019	15279
915.132	15241
915.245	15241
915.358	15287
915.47	15241
915.583	15264
915.696	15313
915.809	15351
915.921	15416
916.034	15146
916.146	15142
916.259	15138
916.371	15207
916.483	15176
916.595	15055
916.708	15085
916.82	15119
916.932	14963
917.044	15043
917.156	15097
917.268	14941
917.38	14994
917.491	14960
917.603	14925
917.715	14971
917.826	15005
917.938	14941
918.049	14617
918.161	14853
918.272	14971
918.384	15013
918.495	14842
918.606	14636
918.717	14663
918.828	14724
918.939	14796
919.05	14568
919.161	14632
919.272	14549
919.383	14541
919.494	14625
919.604	14842
919.715	14651
919.826	14579
919.936	14602
920.047	14712
920.157	14682
920.267	14792
920.378	14648
920.488	14590
920.598	14781
920.708	14971
920.818	14705
920.928	14720
921.038	14944
921.148	14857
921.258	14541
921.368	14541
921.477	14332
921.587	14370
921.697	14248
921.806	14336
921.916	14244
922.025	14073
922.134	14005
922.244	13887
922.353	14008
922.462	13826
922.571	13868
922.68	13582
922.789	13662
922.898	13616
923.007	13601
923.116	13628
923.224	13681
923.333	13578
923.442	13529
923.55	13480
923.659	13400
923.767	13495
923.876	13480
923.984	13430
924.092	13297
924.201	13400
924.309	13384
924.417	13331
924.525	13301
924.633	13270
924.741	14153
924.849	13160
924.956	13183
925.064	13126
925.172	12993
925.279	13027
925.387	13103
925.494	12977
925.602	13152
925.709	13088
925.816	12875
925.924	12958
926.031	13118
926.138	13095
926.245	12985
926.352	12973
926.459	13027
926.566	12981
926.673	12966
926.779	12859
926.886	12810
926.993	12623
927.099	12544
927.206	12608
927.312	12582
927.419	12597
927.525	12700
927.631	12532
927.737	12452
927.843	12479
927.95	12388
928.056	12460
928.162	12410
928.267	12509
928.373	13008
928.479	12502
928.585	12194
928.69	12372
928.796	12464
928.901	12311
929.007	12205
929.112	12323
929.218	12247
929.323	12175
929.428	12087
929.533	12270
929.638	12110
929.743	12114
929.848	12167
929.953	12064
930.058	12038
930.163	11817
930.267	11813
930.372	11893
930.477	11779
930.581	12136
930.685	11946
930.79	11805
930.894	11771
930.998	11737
931.103	11840
931.207	11471
931.311	11414
931.415	11288
931.519	11109
931.623	11090
