Data from test_V78500241_1271.txt Node
Date: Fri Mar 25 15:18:42 CST 2022
User: usil
Spectrometer: V785-0024
Trigger mode: 0
Integration Time (sec): 4.000000E-1
Scans to average: 1
Nonlinearity correction enabled: false
Boxcar width: 0
Storing dark spectrum: false
XAxis mode: Wavelengths
Number of Pixels in Spectrum: 1024
>>>>>Begin Spectral Data<<<<<
801.071	28169
801.214	28013
801.356	27736
801.499	27774
801.641	27622
801.783	27633
801.926	27561
802.068	27553
802.211	27580
802.353	27511
802.496	27306
802.638	27195
802.78	27329
802.923	27233
803.065	27135
803.208	27252
803.35	27325
803.492	27439
803.635	27511
803.777	27412
803.919	27408
804.061	27705
804.204	27553
804.346	27367
804.488	27386
804.63	27564
804.773	27283
804.915	27386
805.057	27477
805.199	27462
805.341	27618
805.483	27701
805.626	27549
805.768	27401
805.91	27523
806.052	27614
806.194	27481
806.336	27739
806.478	27469
806.62	27667
806.762	27682
806.904	27926
807.046	28040
807.188	28025
807.33	27937
807.472	28177
807.614	27937
807.756	27926
807.898	27838
808.04	27960
808.182	27918
808.324	28074
808.465	27914
808.607	28082
808.749	28390
808.891	28405
809.033	28375
809.174	28257
809.316	28238
809.458	28226
809.6	28143
809.741	28379
809.883	28303
810.025	28653
810.166	28512
810.308	28637
810.45	28569
810.591	28436
810.733	28386
810.875	28325
811.016	28120
811.158	28272
811.299	28303
811.441	28253
811.582	28413
811.724	28265
811.865	28272
812.007	28226
812.148	28261
812.29	28291
812.431	28459
812.573	28611
812.714	28782
812.855	28713
812.997	28763
813.138	29010
813.279	28801
813.421	28957
813.562	28828
813.703	28615
813.845	28466
813.986	28196
814.127	28063
814.268	28029
814.41	28010
814.551	27968
814.692	27991
814.833	27926
814.974	27884
815.115	27991
815.256	27876
815.397	27797
815.539	27854
815.68	27736
815.821	27766
815.962	27694
816.103	27876
816.244	27705
816.385	27557
816.526	27416
816.666	27416
816.807	27161
816.948	27218
817.089	27317
817.23	27294
817.371	27211
817.512	27291
817.653	27275
817.793	27119
817.934	27233
818.075	27321
818.216	27272
818.356	27207
818.497	27192
818.638	26937
818.778	27142
818.919	27192
819.06	27077
819.2	27287
819.341	27294
819.481	27226
819.622	27408
819.762	27705
819.903	27507
820.043	27557
820.184	27302
820.324	27416
820.465	27534
820.605	27427
820.746	27412
820.886	27325
821.026	27370
821.167	27412
821.307	27511
821.447	27195
821.588	27268
821.728	26952
821.868	26914
822.008	26678
822.149	26788
822.289	26765
822.429	26511
822.569	26453
822.709	26469
822.849	26362
822.99	26374
823.13	26358
823.27	26240
823.41	26077
823.55	25955
823.69	26096
823.83	26065
823.97	26008
824.11	25932
824.25	25928
824.389	25887
824.529	26008
824.669	25921
824.809	25974
824.949	26035
825.089	25890
825.228	25841
825.368	25803
825.508	25704
825.648	25719
825.787	25780
825.927	25875
826.067	25689
826.206	25765
826.346	25841
826.485	25750
826.625	25822
826.765	25852
826.904	25811
827.044	25594
827.183	25590
827.323	25358
827.462	25483
827.601	25559
827.741	25483
827.88	25616
828.02	25346
828.159	25476
828.298	25666
828.437	25537
828.577	25422
828.716	25514
828.855	25441
828.994	25331
829.134	25232
829.273	25171
829.412	25225
829.551	25228
829.69	25213
829.829	25202
829.968	25213
830.107	25259
830.246	25263
830.385	25137
830.524	25141
830.663	25000
830.802	24943
830.941	24787
831.08	24658
831.219	24935
831.357	24905
831.496	25095
831.635	24768
831.774	24757
831.913	24623
832.051	24494
832.19	24608
832.329	24616
832.467	24521
832.606	24498
832.744	24566
832.883	24399
833.022	24486
833.16	24441
833.299	24502
833.437	24654
833.576	24513
833.714	24582
833.852	24608
833.991	24779
834.129	24719
834.267	24502
834.406	24505
834.544	24540
834.682	24445
834.821	24521
834.959	24734
835.097	24525
835.235	24570
835.373	24540
835.511	24540
835.65	24513
835.788	24376
835.926	24254
836.064	24327
836.202	24235
836.34	24376
836.478	24426
836.615	24258
836.753	24228
836.891	24399
837.029	24311
837.167	24277
837.305	24346
837.443	24182
837.58	24251
837.718	24372
837.856	24136
837.993	24281
838.131	24106
838.269	24064
838.406	24163
838.544	24034
838.681	23939
838.819	23760
838.956	23737
839.094	23638
839.231	23642
839.369	23885
839.506	24178
839.643	23885
839.781	23646
839.918	23520
840.055	23752
840.193	23745
840.33	23543
840.467	23646
840.604	23608
840.742	23942
840.879	23611
841.016	23516
841.153	23505
841.29	23630
841.427	23570
841.564	23551
841.701	23684
841.838	23486
841.975	23562
842.112	23604
842.249	23376
842.385	23307
842.522	23497
842.659	23486
842.796	23364
842.933	23379
843.069	23311
843.206	23265
843.343	23353
843.479	23452
843.616	23288
843.752	23170
843.889	23223
844.025	23391
844.162	23109
844.298	23239
844.435	23124
844.571	23109
844.708	23258
844.844	23326
844.98	23174
845.117	23235
845.253	22987
845.389	23147
845.525	22949
845.661	23006
845.798	22904
845.934	22889
846.07	22873
846.206	22885
846.342	22919
846.478	22847
846.614	22767
846.75	22550
846.886	22500
847.022	22611
847.158	22611
847.294	22550
847.429	22615
847.565	22656
847.701	22835
847.837	22268
847.972	22276
848.108	22508
848.244	22504
848.379	22257
848.515	22329
848.65	22238
848.786	22272
848.921	22219
849.057	22379
849.192	22344
849.328	22200
849.463	22192
849.598	22230
849.734	21972
849.869	22059
850.004	22086
850.14	22048
850.275	22086
850.41	21903
850.545	22017
850.68	21816
850.815	22063
850.95	22070
851.085	22223
851.22	22036
851.355	22013
851.49	22021
851.625	21949
851.76	21937
851.895	21823
852.03	21884
852.165	21876
852.299	22048
852.434	22105
852.569	21945
852.703	21953
852.838	22074
852.973	22097
853.107	22074
853.242	21907
853.376	21876
853.511	21762
853.645	21766
853.78	21724
853.914	21945
854.048	21720
854.183	21762
854.317	21720
854.451	22036
854.585	21682
854.72	21831
854.854	21922
854.988	21717
855.122	21797
855.256	21671
855.39	21861
855.524	21759
855.658	21823
855.792	21793
855.926	21838
856.06	21869
856.194	21953
856.327	21808
856.461	21671
856.595	21747
856.729	21751
856.862	21831
856.996	21854
857.13	21850
857.263	21922
857.397	21968
857.53	21766
857.664	21751
857.797	21736
857.931	21876
858.064	21747
858.197	21835
858.331	21781
858.464	21656
858.597	21747
858.731	21743
858.864	21690
858.997	21762
859.13	21793
859.263	21781
859.396	21854
859.529	21732
859.662	21804
859.795	21812
859.928	21797
860.061	22025
860.194	21930
860.327	21857
860.46	21694
860.592	21842
860.725	21991
860.858	21857
860.99	21819
861.123	21667
861.256	21682
861.388	21698
861.521	22451
861.653	21675
861.786	21690
861.918	21641
862.05	21766
862.183	21675
862.315	21713
862.447	21797
862.58	21709
862.712	21481
862.844	21447
862.976	21428
863.108	21614
863.24	21911
863.372	21466
863.504	21500
863.636	21545
863.768	21523
863.9	21526
864.032	21351
864.164	21378
864.296	21595
864.428	21587
864.559	21553
864.691	21583
864.823	21519
864.954	21435
865.086	21500
865.217	21329
865.349	21199
865.48	21363
865.612	21329
865.743	21549
865.875	21332
866.006	21401
866.137	21363
866.269	21340
866.4	21348
866.531	21325
866.662	21256
866.793	21310
866.924	21279
867.055	21256
867.186	21306
867.317	21154
867.448	21142
867.579	21291
867.71	21138
867.841	21142
867.972	21294
868.103	21249
868.233	21249
868.364	21344
868.495	21351
868.625	21523
868.756	21622
868.886	21496
869.017	21557
869.147	21587
869.278	21660
869.408	21507
869.539	21542
869.669	21591
869.799	21526
869.929	21785
870.06	21610
870.19	21759
870.32	21823
870.45	21930
870.58	21861
870.71	22044
870.84	22051
870.97	21865
871.1	21842
871.23	22105
871.36	22200
871.489	22067
871.619	22006
871.749	22200
871.879	22200
872.008	22291
872.138	22166
872.267	22101
872.397	21953
872.526	21994
872.656	21918
872.785	21930
872.915	22116
873.044	22295
873.173	22143
873.303	22234
873.432	22360
873.561	22272
873.69	22242
873.819	22124
873.948	22230
874.077	22070
874.206	21918
874.335	22101
874.464	22242
874.593	22443
874.722	22303
874.851	22417
874.979	22428
875.108	22508
875.237	22303
875.365	22257
875.494	22360
875.623	22299
875.751	22386
875.88	22451
876.008	22527
876.136	22481
876.265	22725
876.393	22965
876.521	22748
876.65	22790
876.778	22923
876.906	22607
877.034	22790
877.162	22687
877.29	22710
877.418	22744
877.546	22767
877.674	22660
877.802	22797
877.93	22755
878.058	22740
878.185	22634
878.313	22622
878.441	22790
878.568	22481
878.696	22672
878.824	22782
878.951	22717
879.079	22900
879.206	23071
879.333	22885
879.461	22679
879.588	22809
879.715	22767
879.842	22892
879.97	22713
880.097	22550
880.224	22538
880.351	22519
880.478	22599
880.605	22470
880.732	22603
880.859	22824
880.986	22550
881.112	22557
881.239	22371
881.366	22249
881.493	22185
881.619	22188
881.746	22177
881.872	22112
881.999	22131
882.125	21983
882.252	22093
882.378	22051
882.505	22143
882.631	21994
882.757	21884
882.883	21907
883.01	21682
883.136	21644
883.262	21808
883.388	21663
883.514	21819
883.64	21739
883.766	21675
883.892	21515
884.018	21519
884.143	21854
884.269	21819
884.395	21557
884.52	21466
884.646	21481
884.772	21340
884.897	21317
885.023	21458
885.148	21412
885.274	21705
885.399	21488
885.524	21420
885.65	21511
885.775	21359
885.9	21412
886.025	21492
886.15	21545
886.275	21477
886.4	21329
886.525	21477
886.65	21378
886.775	21454
886.9	21496
887.025	21587
887.149	21340
887.274	21291
887.399	21146
887.523	21184
887.648	21188
887.773	21165
887.897	21154
888.021	21344
888.146	21096
888.27	21275
888.395	21241
888.519	21275
888.643	21154
888.767	21241
888.891	21188
889.015	20906
889.139	21096
889.263	20971
889.387	21192
889.511	21344
889.635	21112
889.759	21001
889.883	21024
890.006	21112
890.13	21154
890.254	21051
890.377	20986
890.501	20826
890.624	20701
890.748	20838
890.871	20701
890.995	20579
891.118	20613
891.241	20686
891.364	20617
891.488	20705
891.611	20743
891.734	20606
891.857	20735
891.98	20533
892.103	20590
892.226	20533
892.349	20507
892.471	20358
892.594	20583
892.717	20514
892.839	20465
892.962	20507
893.085	20560
893.207	20454
893.33	20389
893.452	20431
893.575	20507
893.697	20476
893.819	20594
893.941	20682
894.064	20655
894.186	20370
894.308	20450
894.43	20568
894.552	20762
894.674	20670
894.796	20370
894.918	20412
895.04	20461
895.161	20545
895.283	20541
895.405	20332
895.526	20461
895.648	20442
895.769	20514
895.891	20446
896.012	20648
896.134	20507
896.255	20492
896.376	20400
896.498	20434
896.619	20571
896.74	20347
896.861	20541
896.982	20781
897.103	20963
897.224	20678
897.345	20731
897.466	20602
897.587	20682
897.708	20914
897.828	20762
897.949	20583
898.07	20503
898.19	20613
898.311	20762
898.431	20511
898.552	20533
898.672	20609
898.792	20845
898.913	20625
899.033	20499
899.153	20488
899.273	20355
899.393	20465
899.513	20480
899.633	20366
899.753	20476
899.873	20366
899.993	20442
900.113	20419
900.232	20415
900.352	20248
900.472	20214
900.591	20077
900.711	20183
900.83	20145
900.95	20355
901.069	20271
901.189	20107
901.308	19837
901.427	19830
901.546	19689
901.665	19788
901.784	19841
901.904	19571
902.023	19582
902.141	19354
902.26	19270
902.379	19358
902.498	19327
902.617	19221
902.735	19400
902.854	19324
902.973	19171
903.091	18947
903.21	18985
903.328	18894
903.446	18875
903.565	18802
903.683	18776
903.801	18669
903.919	18719
904.038	18669
904.156	18494
904.274	18566
904.392	18494
904.51	18456
904.627	18536
904.745	18441
904.863	18547
904.981	18296
905.098	18296
905.216	18243
905.334	18232
905.451	18254
905.569	18155
905.686	18232
905.803	18125
905.921	17958
906.038	18144
906.155	17885
906.272	17870
906.389	17878
906.506	17760
906.623	17745
906.74	17767
906.857	17524
906.974	17608
907.091	17817
907.208	17722
907.324	17760
907.441	17562
907.557	17512
907.674	17455
907.79	17391
907.907	17501
908.023	17463
908.139	17463
908.256	17417
908.372	17322
908.488	17421
908.604	17090
908.72	17155
908.836	17166
908.952	17121
909.068	17189
909.184	17174
909.3	17208
909.415	17128
909.531	17128
909.647	16843
909.762	16889
909.878	16805
909.993	16755
910.108	16824
910.224	16774
910.339	16843
910.454	16626
910.57	16675
910.685	16672
910.8	16957
910.915	16877
911.03	16645
911.145	16485
911.259	16470
911.374	16421
911.489	16367
911.604	16337
911.718	16158
911.833	16253
911.947	16032
912.062	16055
912.176	16291
912.291	16188
912.405	16154
912.519	16306
912.633	16424
912.748	16280
912.862	16181
912.976	16082
913.09	15926
913.204	15930
913.318	16029
913.431	16150
913.545	16063
913.659	16067
913.772	15979
913.886	15850
914	15838
914.113	15857
914.226	15953
914.34	15884
914.453	15713
914.566	15831
914.68	15595
914.793	15587
914.906	15462
915.019	15317
915.132	15363
915.245	15374
915.358	15439
915.47	15477
915.583	15443
915.696	15450
915.809	15386
915.921	15447
916.034	15374
916.146	15313
916.259	15294
916.371	15367
916.483	15412
916.595	15294
916.708	15211
916.82	15207
916.932	15199
917.044	15062
917.156	15119
917.268	15062
917.38	15089
917.491	15017
917.603	15043
917.715	15108
917.826	15173
917.938	14944
918.049	14853
918.161	14906
918.272	15085
918.384	15074
918.495	14986
918.606	14811
918.717	14769
918.828	14807
918.939	14895
919.05	14693
919.161	14792
919.272	14598
919.383	14621
919.494	14701
919.604	14990
919.715	14796
919.826	14651
919.936	14739
920.047	14941
920.157	14800
920.267	14933
920.378	14682
920.488	14743
920.598	14963
920.708	15070
920.818	14861
920.928	14834
921.038	15047
921.148	15017
921.258	14686
921.368	14568
921.477	14617
921.587	14423
921.697	14442
921.806	14507
921.916	14278
922.025	14172
922.134	14161
922.244	14111
922.353	14244
922.462	13940
922.571	13860
922.68	13746
922.789	13719
922.898	13765
923.007	13765
923.116	13750
923.224	13769
923.333	13666
923.442	13628
923.55	13518
923.659	13647
923.767	13696
923.876	13510
923.984	13563
924.092	13464
924.201	13468
924.309	13548
924.417	13537
924.525	13422
924.633	13316
924.741	14157
924.849	13244
924.956	13400
925.064	13247
925.172	13149
925.279	13122
925.387	13225
925.494	13103
925.602	13304
925.709	13099
925.816	13019
925.924	13236
926.031	13202
926.138	13031
926.245	13114
926.352	13080
926.459	13141
926.566	13206
926.673	13023
926.779	12856
926.886	12973
926.993	12741
927.099	12719
927.206	12684
927.312	12604
927.419	12692
927.525	12749
927.631	12719
927.737	12677
927.843	12574
927.95	12506
928.056	12559
928.162	12551
928.267	12559
928.373	13278
928.479	12612
928.585	12403
928.69	12445
928.796	12570
928.901	12407
929.007	12281
929.112	12486
929.218	12369
929.323	12369
929.428	12342
929.533	12441
929.638	12216
929.743	12133
929.848	12239
929.953	12266
930.058	12205
930.163	11969
930.267	11946
930.372	12136
930.477	11912
930.581	12049
930.685	11958
930.79	11817
930.894	11954
930.998	11726
931.103	12022
931.207	11566
931.311	11532
931.415	11440
931.519	11181
931.623	11185
