Data from test_V78500241_813.txt Node
Date: Fri Mar 25 15:15:31 CST 2022
User: usil
Spectrometer: V785-0024
Trigger mode: 0
Integration Time (sec): 4.000000E-1
Scans to average: 1
Nonlinearity correction enabled: false
Boxcar width: 0
Storing dark spectrum: false
XAxis mode: Wavelengths
Number of Pixels in Spectrum: 1024
>>>>>Begin Spectral Data<<<<<
801.071	28318
801.214	28265
801.356	28063
801.499	27975
801.641	27827
801.783	27865
801.926	27941
802.068	27880
802.211	27739
802.353	27686
802.496	27534
802.638	27553
802.78	27511
802.923	27435
803.065	27469
803.208	27542
803.35	27534
803.492	27720
803.635	27800
803.777	27690
803.919	27709
804.061	28120
804.204	27728
804.346	27713
804.488	27534
804.63	27713
804.773	27644
804.915	27660
805.057	27728
805.199	27720
805.341	27895
805.483	27831
805.626	27903
805.768	27720
805.91	27892
806.052	27838
806.194	27781
806.336	28002
806.478	27987
806.62	28010
806.762	28029
806.904	28200
807.046	28440
807.188	28352
807.33	28268
807.472	28398
807.614	28105
807.756	28200
807.898	28169
808.04	28124
808.182	28124
808.324	28261
808.465	28150
808.607	28508
808.749	28546
808.891	28561
809.033	28763
809.174	28706
809.316	28459
809.458	28588
809.6	28557
809.741	28774
809.883	28649
810.025	28786
810.166	28854
810.308	28835
810.45	28801
810.591	28774
810.733	28603
810.875	28634
811.016	28569
811.158	28493
811.299	28523
811.441	28843
811.582	28721
811.724	28493
811.865	28451
812.007	28508
812.148	28527
812.29	28649
812.431	28717
812.573	28854
812.714	29029
812.855	29102
812.997	29269
813.138	29410
813.279	29318
813.421	29132
813.562	29022
813.703	28999
813.845	28816
813.986	28706
814.127	28322
814.268	28242
814.41	28341
814.551	28211
814.692	28341
814.833	28181
814.974	28181
815.115	28257
815.256	28135
815.397	28299
815.539	28234
815.68	28215
815.821	28166
815.962	28116
816.103	27953
816.244	27983
816.385	27895
816.526	27865
816.666	27739
816.807	27648
816.948	27865
817.089	27618
817.23	27751
817.371	27618
817.512	27587
817.653	27622
817.793	27526
817.934	27564
818.075	27614
818.216	27614
818.356	27622
818.497	27511
818.638	27454
818.778	27344
818.919	27435
819.06	27431
819.2	27481
819.341	27534
819.481	27599
819.622	27713
819.762	27861
819.903	27789
820.043	27751
820.184	27812
820.324	27694
820.465	27694
820.605	27671
820.746	27812
820.886	27656
821.026	27720
821.167	27736
821.307	27713
821.447	27720
821.588	27507
821.728	27412
821.868	27291
822.008	26948
822.149	27047
822.289	27058
822.429	26758
822.569	26720
822.709	26629
822.849	26606
822.99	26514
823.13	26613
823.27	26503
823.41	26495
823.55	26278
823.69	26351
823.83	26389
823.97	26393
824.11	26244
824.25	26115
824.389	26298
824.529	26294
824.669	26237
824.809	26328
824.949	26343
825.089	26339
825.228	26233
825.368	26062
825.508	26237
825.648	26069
825.787	26199
825.927	26153
826.067	25963
826.206	26149
826.346	26031
826.485	26111
826.625	26084
826.765	26290
826.904	26107
827.044	25909
827.183	25913
827.323	25818
827.462	25890
827.601	25837
827.741	25769
827.88	25852
828.02	25723
828.159	25750
828.298	25833
828.437	25906
828.577	25708
828.716	26001
828.855	25799
828.994	25594
829.134	25556
829.273	25746
829.412	25544
829.551	25487
829.69	25495
829.829	25521
829.968	25563
830.107	25510
830.246	25502
830.385	25445
830.524	25392
830.663	25270
830.802	25209
830.941	25175
831.08	25145
831.219	25240
831.357	25183
831.496	25400
831.635	25099
831.774	25034
831.913	25042
832.051	24875
832.19	24947
832.329	24837
832.467	24806
832.606	24814
832.744	24772
832.883	24810
833.022	24829
833.16	24821
833.299	24878
833.437	24905
833.576	24928
833.714	24894
833.852	24875
833.991	24882
834.129	24947
834.267	25023
834.406	24973
834.544	24848
834.682	24848
834.821	24783
834.959	24985
835.097	24867
835.235	24943
835.373	24833
835.511	24817
835.65	24597
835.788	24722
835.926	24528
836.064	24509
836.202	24585
836.34	24734
836.478	24795
836.615	24665
836.753	24703
836.891	24688
837.029	24738
837.167	24589
837.305	24620
837.443	24483
837.58	24589
837.718	24654
837.856	24536
837.993	24525
838.131	24445
838.269	24460
838.406	24422
838.544	24315
838.681	24095
838.819	24159
838.956	23961
839.094	24041
839.231	24022
839.369	24167
839.506	24285
839.643	24281
839.781	24064
839.918	23950
840.055	24053
840.193	23870
840.33	23832
840.467	23828
840.604	23992
840.742	24178
840.879	23775
841.016	23805
841.153	23767
841.29	23931
841.427	24007
841.564	23889
841.701	23901
841.838	23767
841.975	23695
842.112	23794
842.249	23676
842.385	23642
842.522	23802
842.659	23672
842.796	23665
842.933	23646
843.069	23638
843.206	23551
843.343	23817
843.479	23821
843.616	23680
843.752	23467
843.889	23410
844.025	23642
844.162	23459
844.298	23509
844.435	23459
844.571	23406
844.708	23467
844.844	23619
844.98	23551
845.117	23600
845.253	23353
845.389	23417
845.525	23414
845.661	23269
845.798	23235
845.934	23345
846.07	23193
846.206	23204
846.342	23159
846.478	23124
846.614	23022
846.75	22889
846.886	22824
847.022	23022
847.158	22972
847.294	22972
847.429	23048
847.565	22915
847.701	23105
847.837	22679
847.972	22607
848.108	22721
848.244	22679
848.379	22519
848.515	22421
848.65	22500
848.786	22478
848.921	22508
849.057	22573
849.192	22649
849.328	22459
849.463	22379
849.598	22459
849.734	22367
849.869	22291
850.004	22356
850.14	22333
850.275	22177
850.41	22337
850.545	22200
850.68	22261
850.815	22246
850.95	22101
851.085	22390
851.22	22356
851.355	22169
851.49	22143
851.625	22226
851.76	22261
851.895	22059
852.03	22097
852.165	22204
852.299	22226
852.434	22291
852.569	22333
852.703	22211
852.838	22363
852.973	22432
853.107	22367
853.242	22162
853.376	22093
853.511	21991
853.645	21960
853.78	22158
853.914	21983
854.048	22067
854.183	22074
854.317	22162
854.451	22253
854.585	22048
854.72	22040
854.854	22169
854.988	22101
855.122	21983
855.256	21987
855.39	22074
855.524	22070
855.658	22048
855.792	22082
855.926	22097
856.06	22185
856.194	22268
856.327	22086
856.461	21987
856.595	22002
856.729	22207
856.862	22002
856.996	22032
857.13	22177
857.263	22322
857.397	22116
857.53	22101
857.664	22135
857.797	22173
857.931	22154
858.064	22097
858.197	22131
858.331	22158
858.464	21987
858.597	22006
858.731	22070
858.864	22097
858.997	22029
859.13	22070
859.263	22093
859.396	22128
859.529	21956
859.662	21994
859.795	22067
859.928	21998
860.061	22253
860.194	22246
860.327	22074
860.46	22112
860.592	22177
860.725	22242
860.858	22234
860.99	22093
861.123	22025
861.256	22097
861.388	21972
861.521	22835
861.653	22055
861.786	21831
861.918	21926
862.05	21983
862.183	21934
862.315	22120
862.447	22086
862.58	21941
862.712	21949
862.844	21804
862.976	21945
863.108	21922
863.24	22169
863.372	21781
863.504	21804
863.636	21739
863.768	21823
863.9	21743
864.032	21774
864.164	21736
864.296	21816
864.428	21972
864.559	21713
864.691	21899
864.823	21835
864.954	21656
865.086	21690
865.217	21663
865.349	21663
865.48	21572
865.612	21759
865.743	21770
865.875	21656
866.006	21690
866.137	21591
866.269	21648
866.4	21637
866.531	21629
866.662	21500
866.793	21492
866.924	21511
867.055	21629
867.186	21816
867.317	21568
867.448	21564
867.579	21564
867.71	21488
867.841	21405
867.972	21606
868.103	21587
868.233	21538
868.364	21576
868.495	21720
868.625	21709
868.756	21941
868.886	21690
869.017	21892
869.147	21846
869.278	21998
869.408	21857
869.539	21812
869.669	21846
869.799	21876
869.929	21994
870.06	21975
870.19	22162
870.32	22051
870.45	22135
870.58	22310
870.71	22272
870.84	22268
870.97	22257
871.1	22158
871.23	22363
871.36	22428
871.489	22333
871.619	22257
871.749	22360
871.879	22474
872.008	22531
872.138	22470
872.267	22409
872.397	22181
872.526	22181
872.656	22238
872.785	22211
872.915	22371
873.044	22341
873.173	22440
873.303	22485
873.432	22550
873.561	22398
873.69	22390
873.819	22417
873.948	22474
874.077	22474
874.206	22367
874.335	22322
874.464	22504
874.593	22710
874.722	22554
874.851	22744
874.979	22733
875.108	22812
875.237	22538
875.365	22592
875.494	22596
875.623	22706
875.751	22626
875.88	22668
876.008	22752
876.136	22828
876.265	23060
876.393	23132
876.521	23170
876.65	22999
876.778	23071
876.906	22915
877.034	22881
877.162	22965
877.29	22889
877.418	22972
877.546	22938
877.674	23003
877.802	23006
877.93	22938
878.058	22843
878.185	22816
878.313	22869
878.441	22999
878.568	22782
878.696	22858
878.824	23048
878.951	23075
879.079	23174
879.206	23299
879.333	23064
879.461	23041
879.588	23193
879.715	23170
879.842	23193
879.97	22968
880.097	22752
880.224	22713
880.351	22774
880.478	22816
880.605	22668
880.732	22771
880.859	22999
880.986	22752
881.112	22866
881.239	22622
881.366	22615
881.493	22428
881.619	22363
881.746	22375
881.872	22481
881.999	22371
882.125	22398
882.252	22246
882.378	22310
882.505	22402
882.631	22230
882.757	22128
882.883	22162
883.01	21956
883.136	22051
883.262	21903
883.388	22002
883.514	21949
883.64	22025
883.766	22002
883.892	21789
884.018	21911
884.143	22044
884.269	22059
884.395	21785
884.52	21583
884.646	21724
884.772	21732
884.897	21648
885.023	21842
885.148	21644
885.274	21789
885.399	21720
885.524	21709
885.65	21603
885.775	21789
885.9	21599
886.025	21793
886.15	21603
886.275	21614
886.4	21618
886.525	21652
886.65	21583
886.775	21724
886.9	21781
887.025	21876
887.149	21701
887.274	21481
887.399	21374
887.523	21492
887.648	21412
887.773	21325
887.897	21557
888.021	21393
888.146	21291
888.27	21568
888.395	21530
888.519	21363
888.643	21561
888.767	21519
888.891	21367
889.015	21218
889.139	21450
889.263	21203
889.387	21348
889.511	21405
889.635	21450
889.759	21211
889.883	21192
890.006	21306
890.13	21405
890.254	21226
890.377	21116
890.501	21005
890.624	20975
890.748	21119
890.871	20788
890.995	20754
891.118	20701
891.241	20807
891.364	20693
891.488	21009
891.611	20762
891.734	20811
891.857	20861
891.98	20807
892.103	20845
892.226	20842
892.349	20739
892.471	20617
892.594	20746
892.717	20788
892.839	20644
892.962	20701
893.085	20800
893.207	20644
893.33	20609
893.452	20518
893.575	20629
893.697	20552
893.819	20853
893.941	20853
894.064	20743
894.186	20621
894.308	20613
894.43	20716
894.552	20842
894.674	20716
894.796	20518
894.918	20549
895.04	20629
895.161	20686
895.283	20777
895.405	20632
895.526	20564
895.648	20556
895.769	20735
895.891	20686
896.012	20667
896.134	20792
896.255	20663
896.376	20571
896.498	20708
896.619	20750
896.74	20754
896.861	20697
896.982	20880
897.103	21123
897.224	20895
897.345	20849
897.466	20880
897.587	20800
897.708	21036
897.828	20902
897.949	20815
898.07	20708
898.19	20800
898.311	20994
898.431	20724
898.552	20887
898.672	20765
898.792	20883
898.913	20834
899.033	20796
899.153	20598
899.273	20609
899.393	20590
899.513	20640
899.633	20655
899.753	20530
899.873	20541
899.993	20689
900.113	20480
900.232	20606
900.352	20488
900.472	20423
900.591	20298
900.711	20465
900.83	20324
900.95	20427
901.069	20518
901.189	20298
901.308	20005
901.427	19932
901.546	20027
901.665	20001
901.784	19955
901.904	19852
902.023	19681
902.141	19571
902.26	19510
902.379	19521
902.498	19502
902.617	19464
902.735	19434
902.854	19396
902.973	19343
903.091	19084
903.21	19160
903.328	19137
903.446	19008
903.565	18996
903.683	18996
903.801	18878
903.919	18913
904.038	18886
904.156	18677
904.274	18722
904.392	18673
904.51	18536
904.627	18661
904.745	18715
904.863	18768
904.981	18559
905.098	18315
905.216	18441
905.334	18403
905.451	18429
905.569	18300
905.686	18498
905.803	18334
905.921	18201
906.038	18243
906.155	18155
906.272	18049
906.389	18174
906.506	17874
906.623	18011
906.74	17843
906.857	17748
906.974	17809
907.091	17954
907.208	17946
907.324	17939
907.441	17707
907.557	17512
907.674	17562
907.79	17661
907.907	17562
908.023	17604
908.139	17547
908.256	17516
908.372	17459
908.488	17463
908.604	17433
908.72	17239
908.836	17292
908.952	17254
909.068	17360
909.184	17406
909.3	17254
909.415	17277
909.531	17478
909.647	17083
909.762	17022
909.878	17113
909.993	17029
910.108	16915
910.224	17003
910.339	16965
910.454	16976
910.57	16862
910.685	16736
910.8	17029
910.915	16934
911.03	16927
911.145	16649
911.259	16683
911.374	16729
911.489	16504
911.604	16451
911.718	16398
911.833	16341
911.947	16257
912.062	16154
912.176	16363
912.291	16421
912.405	16375
912.519	16440
912.633	16443
912.748	16390
912.862	16329
912.976	16128
913.09	16055
913.204	16078
913.318	16242
913.431	16291
913.545	16272
913.659	16177
913.772	16063
913.886	16093
914	15956
914.113	15941
914.226	16055
914.34	16051
914.453	15804
914.566	15979
914.68	15880
914.793	15819
914.906	15618
915.019	15545
915.132	15568
915.245	15591
915.358	15625
915.47	15469
915.583	15542
915.696	15553
915.809	15644
915.921	15660
916.034	15542
916.146	15435
916.259	15496
916.371	15534
916.483	15488
916.595	15397
916.708	15313
916.82	15355
916.932	15344
917.044	15344
917.156	15302
917.268	15142
917.38	15245
917.491	15074
917.603	15157
917.715	15260
917.826	15272
917.938	15100
918.049	14952
918.161	15127
918.272	15298
918.384	15268
918.495	15051
918.606	14918
918.717	14925
918.828	15081
918.939	14956
919.05	14910
919.161	14960
919.272	14701
919.383	14785
919.494	14986
919.604	15081
919.715	14876
919.826	14899
919.936	14902
920.047	15005
920.157	14872
920.267	15131
920.378	14895
920.488	14868
920.598	15009
920.708	15123
920.818	14998
920.928	15081
921.038	15157
921.148	15093
921.258	14921
921.368	14594
921.477	14590
921.587	14575
921.697	14598
921.806	14613
921.916	14442
922.025	14351
922.134	14180
922.244	14248
922.353	14301
922.462	14191
922.571	14062
922.68	13947
922.789	13940
922.898	13837
923.007	13818
923.116	13967
923.224	13826
923.333	13852
923.442	13734
923.55	13765
923.659	13742
923.767	13803
923.876	13639
923.984	13738
924.092	13609
924.201	13696
924.309	13681
924.417	13647
924.525	13567
924.633	13495
924.741	14355
924.849	13445
924.956	13453
925.064	13426
925.172	13308
925.279	13217
925.387	13354
925.494	13247
925.602	13438
925.709	13320
925.816	13145
925.924	13240
926.031	13244
926.138	13168
926.245	13297
926.352	13160
926.459	13255
926.566	13278
926.673	13175
926.779	13053
926.886	13012
926.993	12962
927.099	12749
927.206	12840
927.312	12791
927.419	12875
927.525	12825
927.631	12939
927.737	12745
927.843	12734
927.95	12623
928.056	12707
928.162	12673
928.267	12787
928.373	13316
928.479	12711
928.585	12471
928.69	12616
928.796	12627
928.901	12502
929.007	12410
929.112	12483
929.218	12528
929.323	12429
929.428	12338
929.533	12604
929.638	12315
929.743	12369
929.848	12300
929.953	12273
930.058	12239
930.163	12030
930.267	12030
930.372	12228
930.477	11996
930.581	12186
930.685	11996
930.79	11999
930.894	11980
930.998	11851
931.103	12102
931.207	11699
931.311	11600
931.415	11547
931.519	11334
931.623	11353
