Data from test_V78500241_2759.txt Node
Date: Fri Mar 25 15:29:04 CST 2022
User: usil
Spectrometer: V785-0024
Trigger mode: 0
Integration Time (sec): 4.000000E-1
Scans to average: 1
Nonlinearity correction enabled: false
Boxcar width: 0
Storing dark spectrum: false
XAxis mode: Wavelengths
Number of Pixels in Spectrum: 1024
>>>>>Begin Spectral Data<<<<<
801.071	27001
801.214	26895
801.356	26765
801.499	26670
801.641	26533
801.783	26461
801.926	26514
802.068	26453
802.211	26408
802.353	26328
802.496	26130
802.638	26199
802.78	26046
802.923	26161
803.065	26024
803.208	26065
803.35	26183
803.492	26221
803.635	26229
803.777	26168
803.919	26396
804.061	26609
804.204	26396
804.346	26244
804.488	26248
804.63	26294
804.773	26225
804.915	26362
805.057	26355
805.199	26176
805.341	26400
805.483	26446
805.626	26446
805.768	26218
805.91	26328
806.052	26366
806.194	26427
806.336	26587
806.478	26332
806.62	26366
806.762	26522
806.904	26609
807.046	26796
807.188	26876
807.33	26823
807.472	27001
807.614	26807
807.756	26777
807.898	26598
808.04	26552
808.182	26651
808.324	26636
808.465	26617
808.607	26819
808.749	26914
808.891	27039
809.033	27157
809.174	27020
809.316	26883
809.458	26933
809.6	26963
809.741	26994
809.883	27036
810.025	27154
810.166	27211
810.308	27237
810.45	27256
810.591	27142
810.733	27020
810.875	27024
811.016	26929
811.158	26902
811.299	27070
811.441	27119
811.582	27108
811.724	26918
811.865	26864
812.007	26982
812.148	26880
812.29	27062
812.431	27123
812.573	27264
812.714	27378
812.855	27477
812.997	27557
813.138	27759
813.279	27526
813.421	27427
813.562	27382
813.703	27252
813.845	27154
813.986	26876
814.127	26750
814.268	26701
814.41	26716
814.551	26552
814.692	26731
814.833	26613
814.974	26571
815.115	26606
815.256	26621
815.397	26450
815.539	26351
815.68	26351
815.821	26343
815.962	26324
816.103	26507
816.244	26263
816.385	26256
816.526	26214
816.666	25860
816.807	25837
816.948	25890
817.089	25986
817.23	25925
817.371	25780
817.512	25738
817.653	25868
817.793	25765
817.934	25776
818.075	25784
818.216	25883
818.356	25799
818.497	25845
818.638	25525
818.778	25533
818.919	25647
819.06	25757
819.2	25696
819.341	25753
819.481	25750
819.622	25955
819.762	26233
819.903	26126
820.043	25909
820.184	25928
820.324	26001
820.465	25963
820.605	25966
820.746	25940
820.886	25780
821.026	26008
821.167	25860
821.307	25986
821.447	25807
821.588	25700
821.728	25571
821.868	25415
822.008	25354
822.149	25400
822.289	25240
822.429	24985
822.569	24970
822.709	25038
822.849	24859
822.99	24863
823.13	24802
823.27	24730
823.41	24722
823.55	24544
823.69	24654
823.83	24688
823.97	24616
824.11	24437
824.25	24403
824.389	24365
824.529	24547
824.669	24429
824.809	24509
824.949	24532
825.089	24654
825.228	24540
825.368	24380
825.508	24323
825.648	24388
825.787	24213
825.927	24334
826.067	24292
826.206	24220
826.346	24361
826.485	24380
826.625	24285
826.765	24452
826.904	24574
827.044	24106
827.183	24155
827.323	24007
827.462	24007
827.601	24091
827.741	23958
827.88	24022
828.02	23885
828.159	23969
828.298	23950
828.437	23939
828.577	23931
828.716	24186
828.855	23965
828.994	23756
829.134	23718
829.273	23718
829.412	23813
829.551	23752
829.69	23707
829.829	23771
829.968	23798
830.107	23885
830.246	23741
830.385	23794
830.524	23653
830.663	23577
830.802	23463
830.941	23364
831.08	23322
831.219	23524
831.357	23528
831.496	23577
831.635	23277
831.774	23250
831.913	23337
832.051	23258
832.19	23090
832.329	23159
832.467	23003
832.606	22965
832.744	23033
832.883	23044
833.022	22896
833.16	23079
833.299	23185
833.437	23086
833.576	23200
833.714	23090
833.852	23197
833.991	23136
834.129	23132
834.267	23178
834.406	23079
834.544	23079
834.682	23121
834.821	23109
834.959	23356
835.097	22873
835.235	23140
835.373	22957
835.511	23018
835.65	22953
835.788	22858
835.926	22812
836.064	22683
836.202	22892
836.34	22953
836.478	22930
836.615	22972
836.753	23022
836.891	23094
837.029	22976
837.167	22904
837.305	22839
837.443	22843
837.58	22892
837.718	22767
837.856	22828
837.993	22740
838.131	22744
838.269	22717
838.406	22687
838.544	22679
838.681	22561
838.819	22436
838.956	22268
839.094	22257
839.231	22436
839.369	22409
839.506	22653
839.643	22675
839.781	22329
839.918	22128
840.055	22276
840.193	22246
840.33	22166
840.467	22147
840.604	22261
840.742	22424
840.879	22086
841.016	22101
841.153	22097
841.29	22272
841.427	22177
841.564	22147
841.701	22112
841.838	22181
841.975	22051
842.112	22032
842.249	22120
842.385	22082
842.522	22154
842.659	22105
842.796	21960
842.933	21888
843.069	21861
843.206	21842
843.343	22048
843.479	21880
843.616	22006
843.752	21739
843.889	21781
844.025	21892
844.162	21698
844.298	21800
844.435	21762
844.571	21671
844.708	21766
844.844	21956
844.98	21892
845.117	21663
845.253	21728
845.389	21492
845.525	21587
845.661	21599
845.798	21496
845.934	21549
846.07	21454
846.206	21485
846.342	21545
846.478	21412
846.614	21344
846.75	21195
846.886	21176
847.022	21252
847.158	21298
847.294	21249
847.429	21188
847.565	21116
847.701	21405
847.837	20998
847.972	20933
848.108	20963
848.244	20982
848.379	20872
848.515	20872
848.65	20838
848.786	20727
848.921	20891
849.057	20815
849.192	20834
849.328	20880
849.463	20826
849.598	20781
849.734	20625
849.869	20651
850.004	20579
850.14	20693
850.275	20629
850.41	20431
850.545	20484
850.68	20461
850.815	20632
850.95	20651
851.085	20758
851.22	20651
851.355	20678
851.49	20530
851.625	20530
851.76	20533
851.895	20568
852.03	20480
852.165	20590
852.299	20727
852.434	20659
852.569	20495
852.703	20568
852.838	20708
852.973	20571
853.107	20743
853.242	20446
853.376	20469
853.511	20275
853.645	20313
853.78	20484
853.914	20355
854.048	20381
854.183	20434
854.317	20355
854.451	20606
854.585	20362
854.72	20461
854.854	20358
854.988	20374
855.122	20362
855.256	20271
855.39	20374
855.524	20423
855.658	20533
855.792	20499
855.926	20355
856.06	20461
856.194	20415
856.327	20419
856.461	20324
856.595	20259
856.729	20393
856.862	20393
856.996	20431
857.13	20381
857.263	20476
857.397	20507
857.53	20324
857.664	20454
857.797	20457
857.931	20530
858.064	20339
858.197	20396
858.331	20415
858.464	20275
858.597	20298
858.731	20389
858.864	20374
858.997	20358
859.13	20431
859.263	20457
859.396	20480
859.529	20358
859.662	20332
859.795	20332
859.928	20423
860.061	20549
860.194	20644
860.327	20442
860.46	20389
860.592	20552
860.725	20575
860.858	20484
860.99	20427
861.123	20301
861.256	20431
861.388	20351
861.521	20929
861.653	20221
861.786	20252
861.918	20218
862.05	20218
862.183	20248
862.315	20362
862.447	20434
862.58	20263
862.712	20157
862.844	20126
862.976	20187
863.108	20256
863.24	20560
863.372	20008
863.504	20126
863.636	20096
863.768	20107
863.9	20084
864.032	20111
864.164	20138
864.296	20031
864.428	20161
864.559	20206
864.691	20183
864.823	20180
864.954	20027
865.086	20096
865.217	19963
865.349	19947
865.48	20027
865.612	20005
865.743	20046
865.875	20016
866.006	19997
866.137	20130
866.269	20020
866.4	20092
866.531	19955
866.662	19974
866.793	20024
866.924	19928
867.055	19997
867.186	19906
867.317	19986
867.448	19898
867.579	19921
867.71	19898
867.841	19871
867.972	19993
868.103	19947
868.233	19955
868.364	19978
868.495	20096
868.625	20187
868.756	20267
868.886	20161
869.017	20138
869.147	20343
869.278	20366
869.408	20164
869.539	20271
869.669	20225
869.799	20317
869.929	20301
870.06	20309
870.19	20434
870.32	20469
870.45	20492
870.58	20674
870.71	20648
870.84	20731
870.97	20678
871.1	20712
871.23	20686
871.36	20842
871.489	20575
871.619	20811
871.749	20796
871.879	20857
872.008	20838
872.138	20667
872.267	20876
872.397	20571
872.526	20640
872.656	20682
872.785	20552
872.915	20746
873.044	20872
873.173	20697
873.303	20925
873.432	20895
873.561	20994
873.69	20807
873.819	20826
873.948	20944
874.077	20773
874.206	20815
874.335	20746
874.464	20906
874.593	21077
874.722	20937
874.851	21058
874.979	21047
875.108	21169
875.237	20994
875.365	20902
875.494	20971
875.623	21119
875.751	21017
875.88	21116
876.008	21047
876.136	21264
876.265	21507
876.393	21549
876.521	21568
876.65	21500
876.778	21485
876.906	21374
877.034	21302
877.162	21618
877.29	21310
877.418	21424
877.546	21374
877.674	21351
877.802	21340
877.93	21359
878.058	21454
878.185	21302
878.313	21363
878.441	21504
878.568	21154
878.696	21450
878.824	21443
878.951	21408
879.079	21572
879.206	21690
879.333	21656
879.461	21496
879.588	21549
879.715	21660
879.842	21816
879.97	21507
880.097	21249
880.224	21192
880.351	21275
880.478	21252
880.605	21245
880.732	21226
880.859	21450
880.986	21340
881.112	21203
881.239	21138
881.366	21020
881.493	20902
881.619	20937
881.746	20857
881.872	20765
881.999	20838
882.125	20693
882.252	20777
882.378	20872
882.505	20895
882.631	20663
882.757	20621
882.883	20579
883.01	20621
883.136	20469
883.262	20427
883.388	20210
883.514	20571
883.64	20526
883.766	20533
883.892	20328
884.018	20339
884.143	20522
884.269	20609
884.395	20290
884.52	20240
884.646	20202
884.772	20084
884.897	20073
885.023	20202
885.148	20229
885.274	20309
885.399	20317
885.524	20218
885.65	20218
885.775	20191
885.9	20096
886.025	20263
886.15	20259
886.275	20027
886.4	20225
886.525	20187
886.65	20145
886.775	20111
886.9	20225
887.025	20427
887.149	20229
887.274	19921
887.399	19925
887.523	19928
887.648	19947
887.773	19833
887.897	19913
888.021	20024
888.146	19830
888.27	20103
888.395	20046
888.519	20065
888.643	19925
888.767	20081
888.891	19860
889.015	19803
889.139	19826
889.263	19753
889.387	19997
889.511	19849
889.635	19974
889.759	19734
889.883	19753
890.006	19856
890.13	19909
890.254	19582
890.377	19704
890.501	19597
890.624	19468
890.748	19510
890.871	19472
890.995	19388
891.118	19403
891.241	19266
891.364	19324
891.488	19430
891.611	19312
891.734	19396
891.857	19407
891.98	19331
892.103	19422
892.226	19369
892.349	19285
892.471	19198
892.594	19373
892.717	19350
892.839	19266
892.962	19316
893.085	19350
893.207	19297
893.33	19194
893.452	19324
893.575	19301
893.697	19362
893.819	19422
893.941	19457
894.064	19434
894.186	19259
894.308	19190
894.43	19400
894.552	19358
894.674	19266
894.796	19266
894.918	19259
895.04	19175
895.161	19392
895.283	19225
895.405	19209
895.526	19335
895.648	19137
895.769	19422
895.891	19293
896.012	19403
896.134	19324
896.255	19396
896.376	19316
896.498	19236
896.619	19339
896.74	19369
896.861	19381
896.982	19609
897.103	19852
897.224	19521
897.345	19403
897.466	19430
897.587	19582
897.708	19609
897.828	19609
897.949	19487
898.07	19388
898.19	19483
898.311	19616
898.431	19487
898.552	19616
898.672	19643
898.792	19639
898.913	19533
899.033	19411
899.153	19327
899.273	19285
899.393	19266
899.513	19373
899.633	19217
899.753	19369
899.873	19202
899.993	19324
900.113	19259
900.232	19327
900.352	19156
900.472	19145
900.591	19069
900.711	19046
900.83	18993
900.95	19194
901.069	19179
901.189	18962
901.308	18802
901.427	18654
901.546	18555
901.665	18730
901.784	18665
901.904	18627
902.023	18528
902.141	18174
902.26	18319
902.379	18369
902.498	18083
902.617	18098
902.735	18186
902.854	18121
902.973	18159
903.091	17954
903.21	17904
903.328	17874
903.446	17745
903.565	17775
903.683	17756
903.801	17611
903.919	17668
904.038	17722
904.156	17558
904.274	17547
904.392	17474
904.51	17512
904.627	17410
904.745	17608
904.863	17436
904.981	17341
905.098	17121
905.216	17277
905.334	17098
905.451	17208
905.569	17067
905.686	17155
905.803	17128
905.921	16900
906.038	17033
906.155	16987
906.272	16835
906.389	16915
906.506	16763
906.623	16744
906.74	16771
906.857	16588
906.974	16588
907.091	16869
907.208	16828
907.324	16729
907.441	16641
907.557	16497
907.674	16459
907.79	16356
907.907	16402
908.023	16436
908.139	16375
908.256	16497
908.372	16314
908.488	16188
908.604	16147
908.72	16067
908.836	16082
908.952	16196
909.068	16204
909.184	16223
909.3	16139
909.415	16200
909.531	16223
909.647	15968
909.762	15949
909.878	15694
909.993	15831
910.108	15816
910.224	15808
910.339	15918
910.454	15842
910.57	15762
910.685	15644
910.8	15857
910.915	15888
911.03	15709
911.145	15424
911.259	15393
911.374	15454
911.489	15431
911.604	15370
911.718	15176
911.833	15188
911.947	15180
912.062	15131
912.176	15298
912.291	15359
912.405	15256
912.519	15435
912.633	15424
912.748	15317
912.862	15184
912.976	15039
913.09	14933
913.204	15009
913.318	15009
913.431	15180
913.545	15195
913.659	15165
913.772	15039
913.886	14887
914	14921
914.113	14944
914.226	14967
914.34	14910
914.453	14758
914.566	14887
914.68	14746
914.793	14678
914.906	14499
915.019	14484
915.132	14408
915.245	14434
915.358	14499
915.47	14446
915.583	14560
915.696	14438
915.809	14579
915.921	14590
916.034	14412
916.146	14385
916.259	14290
916.371	14427
916.483	14457
916.595	14267
916.708	14358
916.82	14332
916.932	14286
917.044	14275
917.156	14290
917.268	14176
917.38	14233
917.491	14142
917.603	14123
917.715	14191
917.826	14210
917.938	14168
918.049	14035
918.161	14183
918.272	14271
918.384	14267
918.495	14119
918.606	13974
918.717	13894
918.828	14027
918.939	13906
919.05	13906
919.161	13947
919.272	13704
919.383	13849
919.494	13944
919.604	14123
919.715	14001
919.826	13723
919.936	13791
920.047	13951
920.157	13925
920.267	14058
920.378	13955
920.488	13917
920.598	14073
920.708	14225
920.818	14008
920.928	14031
921.038	14183
921.148	14149
921.258	13871
921.368	13837
921.477	13647
921.587	13609
921.697	13529
921.806	13616
921.916	13483
922.025	13388
922.134	13316
922.244	13335
922.353	13301
922.462	13126
922.571	13198
922.68	12985
922.789	12996
922.898	13000
923.007	12962
923.116	12989
923.224	12913
923.333	12958
923.442	12863
923.55	12806
923.659	12783
923.767	12825
923.876	12642
923.984	12798
924.092	12726
924.201	12825
924.309	12745
924.417	12760
924.525	12734
924.633	12608
924.741	13590
924.849	12536
924.956	12642
925.064	12460
925.172	12281
925.279	12418
925.387	12475
925.494	12490
925.602	12563
925.709	12422
925.816	12372
925.924	12384
926.031	12464
926.138	12410
926.245	12376
926.352	12296
926.459	12448
926.566	12536
926.673	12327
926.779	12213
926.886	12186
926.993	12034
927.099	12019
927.206	12049
927.312	11904
927.419	12045
927.525	12007
927.631	12015
927.737	11980
927.843	11840
927.95	11714
928.056	11851
928.162	11786
928.267	11882
928.373	12391
928.479	11980
928.585	11691
928.69	11737
928.796	11802
928.901	11695
929.007	11668
929.112	11733
929.218	11585
929.323	11634
929.428	11543
929.533	11805
929.638	11501
929.743	11509
929.848	11558
929.953	11414
930.058	11410
930.163	11284
930.267	11280
930.372	11444
930.477	11246
930.581	11421
930.685	11307
930.79	11132
930.894	11151
930.998	11143
931.103	11299
931.207	10987
931.311	10934
931.415	10778
931.519	10584
931.623	10546
