Data from test_V78500241_3108.txt Node
Date: Fri Mar 25 15:31:30 CST 2022
User: usil
Spectrometer: V785-0024
Trigger mode: 0
Integration Time (sec): 4.000000E-1
Scans to average: 1
Nonlinearity correction enabled: false
Boxcar width: 0
Storing dark spectrum: false
XAxis mode: Wavelengths
Number of Pixels in Spectrum: 1024
>>>>>Begin Spectral Data<<<<<
801.071	26522
801.214	26446
801.356	26366
801.499	26248
801.641	26088
801.783	26183
801.926	26122
802.068	26122
802.211	26065
802.353	25932
802.496	25833
802.638	25871
802.78	25742
802.923	25514
803.065	25537
803.208	25575
803.35	25628
803.492	25757
803.635	25898
803.777	25632
803.919	25868
804.061	26077
804.204	25963
804.346	25936
804.488	25689
804.63	25776
804.773	25677
804.915	25776
805.057	25947
805.199	25658
805.341	25822
805.483	25963
805.626	26050
805.768	25746
805.91	25932
806.052	25887
806.194	25734
806.336	26103
806.478	25849
806.62	25883
806.762	26012
806.904	26145
807.046	26484
807.188	26328
807.33	26355
807.472	26476
807.614	26153
807.756	26187
807.898	26035
808.04	26039
808.182	26103
808.324	26199
808.465	26149
808.607	26290
808.749	26389
808.891	26571
809.033	26762
809.174	26590
809.316	26400
809.458	26522
809.6	26438
809.741	26708
809.883	26533
810.025	26735
810.166	26689
810.308	26777
810.45	26625
810.591	26606
810.733	26583
810.875	26530
811.016	26278
811.158	26385
811.299	26549
811.441	26617
811.582	26644
811.724	26431
811.865	26374
812.007	26415
812.148	26332
812.29	26389
812.431	26587
812.573	26686
812.714	26823
812.855	26906
812.997	27017
813.138	27146
813.279	27039
813.421	26815
813.562	26750
813.703	26788
813.845	26621
813.986	26278
814.127	26210
814.268	26100
814.41	26077
814.551	26035
814.692	26210
814.833	26092
814.974	26062
815.115	26073
815.256	25955
815.397	26001
815.539	25963
815.68	25921
815.821	25818
815.962	25845
816.103	25772
816.244	25647
816.385	25647
816.526	25552
816.666	25415
816.807	25232
816.948	25350
817.089	25419
817.23	25324
817.371	25415
817.512	25206
817.653	25373
817.793	25362
817.934	25240
818.075	25407
818.216	25285
818.356	25308
818.497	25217
818.638	25000
818.778	25091
818.919	25042
819.06	24992
819.2	25198
819.341	25358
819.481	25198
819.622	25533
819.762	25590
819.903	25483
820.043	25476
820.184	25449
820.324	25472
820.465	25377
820.605	25434
820.746	25407
820.886	25278
821.026	25400
821.167	25255
821.307	25377
821.447	25369
821.588	25278
821.728	25072
821.868	24966
822.008	24821
822.149	24817
822.289	24681
822.429	24513
822.569	24513
822.709	24346
822.849	24266
822.99	24243
823.13	24178
823.27	24289
823.41	24197
823.55	23973
823.69	24007
823.83	24102
823.97	23996
824.11	23977
824.25	23680
824.389	23851
824.529	23939
824.669	23779
824.809	24030
824.949	23908
825.089	23874
825.228	23980
825.368	23775
825.508	23718
825.648	23870
825.787	23874
825.927	23741
826.067	23726
826.206	23745
826.346	23805
826.485	23802
826.625	23726
826.765	23961
826.904	23680
827.044	23649
827.183	23531
827.323	23444
827.462	23391
827.601	23554
827.741	23322
827.88	23630
828.02	23296
828.159	23425
828.298	23471
828.437	23444
828.577	23364
828.716	23551
828.855	23406
828.994	23246
829.134	23162
829.273	23299
829.412	23048
829.551	23086
829.69	23140
829.829	23064
829.968	23197
830.107	23151
830.246	23105
830.385	23143
830.524	23155
830.663	23029
830.802	22911
830.941	22733
831.08	22691
831.219	22923
831.357	22843
831.496	22946
831.635	22725
831.774	22679
831.913	22660
832.051	22432
832.19	22577
832.329	22557
832.467	22417
832.606	22314
832.744	22413
832.883	22512
833.022	22386
833.16	22451
833.299	22535
833.437	22432
833.576	22531
833.714	22500
833.852	22710
833.991	22542
834.129	22622
834.267	22493
834.406	22497
834.544	22599
834.682	22641
834.821	22649
834.959	22694
835.097	22447
835.235	22523
835.373	22481
835.511	22500
835.65	22371
835.788	22360
835.926	22192
836.064	22067
836.202	22128
836.34	22394
836.478	22493
836.615	22325
836.753	22409
836.891	22440
837.029	22341
837.167	22348
837.305	22257
837.443	22314
837.58	22196
837.718	22284
837.856	22242
837.993	22223
838.131	22169
838.269	22013
838.406	22139
838.544	22040
838.681	21854
838.819	21838
838.956	21728
839.094	21690
839.231	21816
839.369	21861
839.506	22086
839.643	21831
839.781	21747
839.918	21686
840.055	21667
840.193	21629
840.33	21637
840.467	21667
840.604	21709
840.742	21804
840.879	21481
841.016	21629
841.153	21583
841.29	21690
841.427	21568
841.564	21652
841.701	21656
841.838	21633
841.975	21625
842.112	21606
842.249	21545
842.385	21401
842.522	21781
842.659	21473
842.796	21572
842.933	21355
843.069	21374
843.206	21393
843.343	21344
843.479	21439
843.616	21507
843.752	21211
843.889	21165
844.025	21272
844.162	21207
844.298	21298
844.435	21302
844.571	21150
844.708	21176
844.844	21275
844.98	21169
845.117	21363
845.253	21055
845.389	21005
845.525	21039
845.661	21112
845.798	20883
845.934	20921
846.07	20834
846.206	20986
846.342	20986
846.478	20971
846.614	20823
846.75	20568
846.886	20708
847.022	20781
847.158	20693
847.294	20659
847.429	20720
847.565	20602
847.701	20830
847.837	20339
847.972	20396
848.108	20568
848.244	20461
848.379	20332
848.515	20237
848.65	20275
848.786	20252
848.921	20225
849.057	20355
849.192	20347
849.328	20290
849.463	20130
849.598	20233
849.734	20191
849.869	20065
850.004	20065
850.14	20130
850.275	20092
850.41	19993
850.545	19967
850.68	19959
850.815	20081
850.95	19982
851.085	20164
851.22	20077
851.355	20069
851.49	19982
851.625	19997
851.76	19925
851.895	19887
852.03	19849
852.165	20065
852.299	20134
852.434	20073
852.569	20062
852.703	20039
852.838	20081
852.973	20145
853.107	20115
853.242	19970
853.376	19795
853.511	19715
853.645	19742
853.78	19932
853.914	19955
854.048	19727
854.183	19868
854.317	19955
854.451	20035
854.585	19898
854.72	19788
854.854	19967
854.988	19822
855.122	19883
855.256	19674
855.39	19791
855.524	19951
855.658	19947
855.792	19993
855.926	19887
856.06	19944
856.194	19978
856.327	19852
856.461	19708
856.595	19704
856.729	19791
856.862	19951
856.996	19856
857.13	19852
857.263	20001
857.397	20031
857.53	19841
857.664	19860
857.797	19932
857.931	19982
858.064	19940
858.197	19917
858.331	19944
858.464	19700
858.597	19712
858.731	19837
858.864	19868
858.997	19719
859.13	19917
859.263	19913
859.396	19932
859.529	19761
859.662	19830
859.795	19795
859.928	19799
860.061	19978
860.194	20081
860.327	19860
860.46	19818
860.592	19852
860.725	19963
860.858	20054
860.99	19841
861.123	19651
861.256	19894
861.388	19951
861.521	20404
861.653	19780
861.786	19715
861.918	19780
862.05	19746
862.183	19757
862.315	19761
862.447	19860
862.58	19807
862.712	19635
862.844	19624
862.976	19689
863.108	19674
863.24	19967
863.372	19483
863.504	19586
863.636	19708
863.768	19601
863.9	19708
864.032	19457
864.164	19506
864.296	19658
864.428	19784
864.559	19712
864.691	19731
864.823	19624
864.954	19655
865.086	19647
865.217	19495
865.349	19339
865.48	19495
865.612	19563
865.743	19738
865.875	19502
866.006	19559
866.137	19514
866.269	19540
866.4	19594
866.531	19491
866.662	19559
866.793	19453
866.924	19487
867.055	19575
867.186	19457
867.317	19563
867.448	19388
867.579	19464
867.71	19422
867.841	19430
867.972	19430
868.103	19449
868.233	19400
868.364	19438
868.495	19491
868.625	19658
868.756	19765
868.886	19639
869.017	19674
869.147	19799
869.278	19913
869.408	19674
869.539	19586
869.669	19814
869.799	19788
869.929	19860
870.06	19803
870.19	20130
870.32	19993
870.45	20138
870.58	20161
870.71	20252
870.84	20278
870.97	20103
871.1	20046
871.23	20294
871.36	20294
871.489	20248
871.619	20423
871.749	20259
871.879	20248
872.008	20298
872.138	20408
872.267	20259
872.397	20199
872.526	20122
872.656	20149
872.785	20225
872.915	20290
873.044	20263
873.173	20290
873.303	20358
873.432	20336
873.561	20488
873.69	20305
873.819	20419
873.948	20412
874.077	20305
874.206	20415
874.335	20343
874.464	20495
874.593	20632
874.722	20651
874.851	20686
874.979	20640
875.108	20629
875.237	20678
875.365	20454
875.494	20583
875.623	20663
875.751	20594
875.88	20613
876.008	20743
876.136	20807
876.265	21085
876.393	21146
876.521	21051
876.65	21036
876.778	21036
876.906	21039
877.034	20979
877.162	20895
877.29	20883
877.418	20967
877.546	21017
877.674	20986
877.802	20960
877.93	21005
878.058	20887
878.185	20826
878.313	20880
878.441	20883
878.568	20792
878.696	20826
878.824	20975
878.951	21077
879.079	21161
879.206	21359
879.333	21100
879.461	20853
879.588	21017
879.715	21237
879.842	21249
879.97	21100
880.097	20823
880.224	20838
880.351	20849
880.478	20750
880.605	20708
880.732	20724
880.859	20963
880.986	20720
881.112	20804
881.239	20716
881.366	20598
881.493	20488
881.619	20343
881.746	20446
881.872	20404
881.999	20400
882.125	20309
882.252	20533
882.378	20339
882.505	20492
882.631	20294
882.757	20122
882.883	20111
883.01	20161
883.136	20115
883.262	20020
883.388	19841
883.514	20199
883.64	20187
883.766	20050
883.892	19894
884.018	19868
884.143	20088
884.269	20054
884.395	19807
884.52	19727
884.646	19879
884.772	19677
884.897	19750
885.023	19761
885.148	19742
885.274	19818
885.399	19913
885.524	19799
885.65	19708
885.775	19780
885.9	19776
886.025	19803
886.15	19875
886.275	19769
886.4	19674
886.525	19708
886.65	19632
886.775	19616
886.9	19890
887.025	19978
887.149	19772
887.274	19510
887.399	19567
887.523	19441
887.648	19552
887.773	19472
887.897	19544
888.021	19594
888.146	19422
888.27	19670
888.395	19609
888.519	19628
888.643	19613
888.767	19533
888.891	19457
889.015	19388
889.139	19441
889.263	19293
889.387	19525
889.511	19499
889.635	19464
889.759	19304
889.883	19354
890.006	19483
890.13	19369
890.254	19259
890.377	19244
890.501	19084
890.624	19065
890.748	19171
890.871	18943
890.995	18935
891.118	18977
891.241	18947
891.364	18916
891.488	19141
891.611	18947
891.734	18985
891.857	19031
891.98	19042
892.103	18897
892.226	19019
892.349	18882
892.471	18749
892.594	18795
892.717	18852
892.839	18951
892.962	18795
893.085	19015
893.207	18932
893.33	18661
893.452	18810
893.575	18962
893.697	18833
893.819	19122
893.941	19080
894.064	19065
894.186	18871
894.308	18764
894.43	19000
894.552	19095
894.674	18859
894.796	18795
894.918	18837
895.04	18783
895.161	18939
895.283	18905
895.405	18871
895.526	18863
895.648	18920
895.769	18878
895.891	18840
896.012	18981
896.134	18966
896.255	18867
896.376	18829
896.498	18905
896.619	18962
896.74	18833
896.861	18878
896.982	19346
897.103	19263
897.224	19156
897.345	19110
897.466	19069
897.587	19076
897.708	19278
897.828	19171
897.949	19160
898.07	19091
898.19	19122
898.311	19259
898.431	19118
898.552	19194
898.672	19126
898.792	19225
898.913	19145
899.033	19027
899.153	19084
899.273	18806
899.393	18939
899.513	19008
899.633	18935
899.753	18970
899.873	18852
899.993	18951
900.113	18787
900.232	18901
900.352	18852
900.472	18692
900.591	18681
900.711	18700
900.83	18661
900.95	18867
901.069	18783
901.189	18620
901.308	18407
901.427	18273
901.546	18308
901.665	18251
901.784	18418
901.904	18308
902.023	18171
902.141	17889
902.26	17977
902.379	17977
902.498	17851
902.617	17836
902.735	17855
902.854	17760
902.973	17653
903.091	17558
903.21	17452
903.328	17440
903.446	17452
903.565	17296
903.683	17349
903.801	17341
903.919	17174
904.038	17220
904.156	17090
904.274	17124
904.392	17098
904.51	17155
904.627	17060
904.745	17189
904.863	17151
904.981	16968
905.098	16866
905.216	16881
905.334	16946
905.451	16782
905.569	16733
905.686	16729
905.803	16809
905.921	16527
906.038	16668
906.155	16538
906.272	16531
906.389	16481
906.506	16253
906.623	16280
906.74	16322
906.857	16280
906.974	16249
907.091	16398
907.208	16447
907.324	16348
907.441	16192
907.557	16166
907.674	15998
907.79	15983
907.907	16013
908.023	16021
908.139	16124
908.256	16032
908.372	15930
908.488	15983
908.604	15838
908.72	15774
908.836	15823
908.952	15808
909.068	15842
909.184	15861
909.3	15717
909.415	15816
909.531	15880
909.647	15515
909.762	15534
909.878	15431
909.993	15591
910.108	15500
910.224	15420
910.339	15515
910.454	15344
910.57	15268
910.685	15317
910.8	15526
910.915	15408
911.03	15283
911.145	15135
911.259	15055
911.374	15119
911.489	15024
911.604	14883
911.718	14842
911.833	14830
911.947	14861
912.062	14716
912.176	14891
912.291	14982
912.405	14887
912.519	15062
912.633	15081
912.748	14849
912.862	14765
912.976	14701
913.09	14537
913.204	14644
913.318	14659
913.431	14746
913.545	14773
913.659	14826
913.772	14659
913.886	14499
914	14469
914.113	14606
914.226	14644
914.34	14667
914.453	14393
914.566	14465
914.68	14442
914.793	14370
914.906	14142
915.019	14138
915.132	14111
915.245	14119
915.358	14119
915.47	14153
915.583	14187
915.696	14103
915.809	14180
915.921	14324
916.034	14088
916.146	14039
916.259	14062
916.371	14134
916.483	14130
916.595	13989
916.708	14008
916.82	13936
916.932	13917
917.044	13986
917.156	13928
917.268	13830
917.38	13925
917.491	13772
917.603	13807
917.715	13776
917.826	13921
917.938	13807
918.049	13670
918.161	13830
918.272	13871
918.384	13894
918.495	13708
918.606	13700
918.717	13540
918.828	13731
918.939	13597
919.05	13597
919.161	13582
919.272	13430
919.383	13468
919.494	13616
919.604	13799
919.715	13662
919.826	13548
919.936	13502
920.047	13658
920.157	13578
920.267	13807
920.378	13571
920.488	13575
920.598	13719
920.708	13887
920.818	13715
920.928	13666
921.038	13894
921.148	13723
921.258	13624
921.368	13521
921.477	13354
921.587	13289
921.697	13240
921.806	13434
921.916	13202
922.025	13031
922.134	12951
922.244	13027
922.353	13034
922.462	12924
922.571	12825
922.68	12673
922.789	12585
922.898	12673
923.007	12578
923.116	12745
923.224	12730
923.333	12563
923.442	12448
923.55	12486
923.659	12566
923.767	12486
923.876	12414
923.984	12506
924.092	12391
924.201	12445
924.309	12456
924.417	12380
924.525	12292
924.633	12422
924.741	13293
924.849	12167
924.956	12281
925.064	12148
925.172	12015
925.279	12148
925.387	12152
925.494	12152
925.602	12178
925.709	12220
925.816	12076
925.924	12133
926.031	12171
926.138	12064
926.245	12159
926.352	12041
926.459	12136
926.566	12159
926.673	12064
926.779	11893
926.886	11920
926.993	11733
927.099	11779
927.206	11699
927.312	11733
927.419	11756
927.525	11676
927.631	11767
927.737	11642
927.843	11581
927.95	11539
928.056	11524
928.162	11551
928.267	11611
928.373	12167
928.479	11611
928.585	11417
928.69	11589
928.796	11585
928.901	11417
929.007	11364
929.112	11573
929.218	11478
929.323	11356
929.428	11334
929.533	11505
929.638	11223
929.743	11193
929.848	11326
929.953	11292
930.058	11220
930.163	10987
930.267	11010
930.372	11109
930.477	10987
930.581	11269
930.685	11105
930.79	10938
930.894	11003
930.998	10965
931.103	10991
931.207	10691
931.311	10630
931.415	10588
931.519	10360
931.623	10386
