Data from test_V78500241_2367.txt Node
Date: Fri Mar 25 15:26:20 CST 2022
User: usil
Spectrometer: V785-0024
Trigger mode: 0
Integration Time (sec): 4.000000E-1
Scans to average: 1
Nonlinearity correction enabled: false
Boxcar width: 0
Storing dark spectrum: false
XAxis mode: Wavelengths
Number of Pixels in Spectrum: 1024
>>>>>Begin Spectral Data<<<<<
801.071	27580
801.214	27492
801.356	27100
801.499	27131
801.641	27104
801.783	26830
801.926	27100
802.068	26975
802.211	26849
802.353	26762
802.496	26655
802.638	26651
802.78	26632
802.923	26583
803.065	26499
803.208	26640
803.35	26682
803.492	26796
803.635	26765
803.777	26823
803.919	26743
804.061	27119
804.204	26823
804.346	26842
804.488	26701
804.63	26716
804.773	26564
804.915	26792
805.057	26845
805.199	26746
805.341	26777
805.483	26826
805.626	26944
805.768	26625
805.91	26918
806.052	26925
806.194	26864
806.336	27039
806.478	26868
806.62	26944
806.762	26937
806.904	27218
807.046	27462
807.188	27348
807.33	27329
807.472	27325
807.614	27374
807.756	27260
807.898	27157
808.04	27173
808.182	27188
808.324	27127
808.465	27123
808.607	27454
808.749	27450
808.891	27507
809.033	27583
809.174	27481
809.316	27416
809.458	27439
809.6	27511
809.741	27500
809.883	27564
810.025	27846
810.166	27747
810.308	27793
810.45	27797
810.591	27557
810.733	27458
810.875	27450
811.016	27382
811.158	27302
811.299	27466
811.441	27595
811.582	27583
811.724	27389
811.865	27481
812.007	27557
812.148	27595
812.29	27564
812.431	27762
812.573	27808
812.714	27850
812.855	28006
812.997	28105
813.138	28322
813.279	28109
813.421	27972
813.562	27888
813.703	27724
813.845	27720
813.986	27382
814.127	27367
814.268	27199
814.41	27154
814.551	27116
814.692	27138
814.833	27123
814.974	27085
815.115	27154
815.256	26845
815.397	27188
815.539	26842
815.68	27062
815.821	27032
815.962	26975
816.103	26845
816.244	26823
816.385	26716
816.526	26670
816.666	26492
816.807	26469
816.948	26480
817.089	26453
817.23	26465
817.371	26374
817.512	26461
817.653	26408
817.793	26317
817.934	26514
818.075	26389
818.216	26362
818.356	26480
818.497	26358
818.638	26142
818.778	26176
818.919	26103
819.06	26237
819.2	26358
819.341	26415
819.481	26396
819.622	26526
819.762	26655
819.903	26613
820.043	26613
820.184	26503
820.324	26492
820.465	26541
820.605	26415
820.746	26511
820.886	26240
821.026	26499
821.167	26396
821.307	26617
821.447	26514
821.588	26248
821.728	26111
821.868	26153
822.008	26039
822.149	26031
822.289	25913
822.429	25712
822.569	25540
822.709	25506
822.849	25438
822.99	25438
823.13	25392
823.27	25308
823.41	25236
823.55	25221
823.69	25308
823.83	25160
823.97	25072
824.11	25080
824.25	25038
824.389	25057
824.529	25095
824.669	24966
824.809	25046
824.949	25031
825.089	25031
825.228	25107
825.368	24913
825.508	24909
825.648	24783
825.787	24966
825.927	24932
826.067	24856
826.206	25034
826.346	25072
826.485	24962
826.625	24768
826.765	24875
826.904	24947
827.044	24631
827.183	24707
827.323	24597
827.462	24639
827.601	24559
827.741	24544
827.88	24654
828.02	24464
828.159	24585
828.298	24601
828.437	24627
828.577	24486
828.716	24604
828.855	24429
828.994	24300
829.134	24254
829.273	24174
829.412	24361
829.551	24281
829.69	24285
829.829	24308
829.968	24247
830.107	24266
830.246	24232
830.385	24205
830.524	24304
830.663	24091
830.802	24034
830.941	24045
831.08	23847
831.219	24022
831.357	23965
831.496	24102
831.635	23878
831.774	23775
831.913	23817
832.051	23630
832.19	23642
832.329	23668
832.467	23691
832.606	23482
832.744	23554
832.883	23482
833.022	23630
833.16	23520
833.299	23699
833.437	23596
833.576	23661
833.714	23687
833.852	23676
833.991	23668
834.129	23699
834.267	23710
834.406	23554
834.544	23752
834.682	23695
834.821	23490
834.959	23756
835.097	23573
835.235	23722
835.373	23589
835.511	23566
835.65	23360
835.788	23505
835.926	23417
836.064	23261
836.202	23303
836.34	23463
836.478	23490
836.615	23383
836.753	23699
836.891	23627
837.029	23463
837.167	23471
837.305	23444
837.443	23360
837.58	23406
837.718	23391
837.856	23353
837.993	23200
838.131	23353
838.269	23261
838.406	23254
838.544	23178
838.681	22953
838.819	23010
838.956	22843
839.094	22778
839.231	22850
839.369	23090
839.506	23189
839.643	23075
839.781	22923
839.918	22694
840.055	22786
840.193	22740
840.33	22759
840.467	22721
840.604	22752
840.742	23025
840.879	22592
841.016	22778
841.153	22637
841.29	22908
841.427	22687
841.564	22869
841.701	22649
841.838	22641
841.975	22569
842.112	22660
842.249	22531
842.385	22500
842.522	22607
842.659	22550
842.796	22474
842.933	22637
843.069	22561
843.206	22451
843.343	22535
843.479	22531
843.616	22478
843.752	22249
843.889	22390
844.025	22466
844.162	22310
844.298	22268
844.435	22280
844.571	22299
844.708	22379
844.844	22284
844.98	22497
845.117	22436
845.253	22204
845.389	22143
845.525	22154
845.661	22017
845.798	22067
845.934	22048
846.07	22013
846.206	21899
846.342	22135
846.478	22067
846.614	21861
846.75	21717
846.886	21831
847.022	21812
847.158	21759
847.294	21724
847.429	21770
847.565	21781
847.701	21880
847.837	21580
847.972	21428
848.108	21583
848.244	21599
848.379	21466
848.515	21321
848.65	21291
848.786	21397
848.921	21294
849.057	21473
849.192	21382
849.328	21321
849.463	21275
849.598	21317
849.734	21214
849.869	21211
850.004	21127
850.14	21127
850.275	21226
850.41	21135
850.545	20948
850.68	21089
850.815	21146
850.95	21093
851.085	21340
851.22	21157
851.355	21077
851.49	21245
851.625	21062
851.76	21055
851.895	21096
852.03	20944
852.165	21093
852.299	21138
852.434	21112
852.569	21176
852.703	21146
852.838	21051
852.973	21226
853.107	21165
853.242	21066
853.376	21020
853.511	20720
853.645	20864
853.78	21024
853.914	20956
854.048	20925
854.183	20826
854.317	21005
854.451	21039
854.585	20921
854.72	20861
854.854	20899
854.988	20876
855.122	20845
855.256	20701
855.39	20994
855.524	20872
855.658	21009
855.792	20918
855.926	20990
856.06	20937
856.194	21009
856.327	20963
856.461	20941
856.595	20891
856.729	20914
856.862	20937
856.996	20872
857.13	21051
857.263	21028
857.397	21066
857.53	20910
857.664	21013
857.797	20929
857.931	20990
858.064	20941
858.197	21017
858.331	20811
858.464	20906
858.597	20853
858.731	20941
858.864	20826
858.997	20914
859.13	20910
859.263	20864
859.396	21020
859.529	20880
859.662	20804
859.795	20788
859.928	20914
860.061	21058
860.194	21150
860.327	20982
860.46	20960
860.592	21081
860.725	20998
860.858	20921
860.99	20994
861.123	20861
861.256	20769
861.388	20956
861.521	21500
861.653	20708
861.786	20674
861.918	20765
862.05	20735
862.183	20796
862.315	20929
862.447	20800
862.58	20792
862.712	20693
862.844	20568
862.976	20769
863.108	20701
863.24	21119
863.372	20609
863.504	20655
863.636	20644
863.768	20800
863.9	20575
864.032	20606
864.164	20617
864.296	20655
864.428	20750
864.559	20636
864.691	20708
864.823	20731
864.954	20716
865.086	20636
865.217	20667
865.349	20434
865.48	20480
865.612	20389
865.743	20560
865.875	20648
866.006	20571
866.137	20526
866.269	20545
866.4	20492
866.531	20465
866.662	20377
866.793	20450
866.924	20613
867.055	20568
867.186	20484
867.317	20389
867.448	20366
867.579	20332
867.71	20442
867.841	20431
867.972	20476
868.103	20423
868.233	20492
868.364	20545
868.495	20587
868.625	20632
868.756	20788
868.886	20533
869.017	20655
869.147	20743
869.278	20777
869.408	20659
869.539	20746
869.669	20739
869.799	20746
869.929	20910
870.06	20743
870.19	20986
870.32	20906
870.45	21055
870.58	21146
870.71	21237
870.84	21165
870.97	21135
871.1	21131
871.23	21275
871.36	21298
871.489	21203
871.619	21332
871.749	21370
871.879	21378
872.008	21500
872.138	21321
872.267	21336
872.397	21226
872.526	21180
872.656	21112
872.785	21237
872.915	21386
873.044	21439
873.173	21462
873.303	21389
873.432	21439
873.561	21443
873.69	21428
873.819	21393
873.948	21412
874.077	21355
874.206	21294
874.335	21397
874.464	21530
874.593	21534
874.722	21580
874.851	21572
874.979	21603
875.108	21633
875.237	21557
875.365	21458
875.494	21515
875.623	21633
875.751	21424
875.88	21652
876.008	21698
876.136	21808
876.265	21937
876.393	22032
876.521	22010
876.65	22017
876.778	22025
876.906	21880
877.034	21915
877.162	21911
877.29	21838
877.418	21956
877.546	21880
877.674	22002
877.802	21953
877.93	21808
878.058	21987
878.185	21766
878.313	21854
878.441	21934
878.568	21675
878.696	21781
878.824	21854
878.951	21846
879.079	21949
879.206	22169
879.333	21998
879.461	21827
879.588	22044
879.715	22143
879.842	22128
879.97	22006
880.097	21648
880.224	21705
880.351	21823
880.478	21751
880.605	21751
880.732	21728
880.859	22006
880.986	21717
881.112	21686
881.239	21469
881.366	21488
881.493	21458
881.619	21226
881.746	21370
881.872	21302
881.999	21344
882.125	21237
882.252	21416
882.378	21321
882.505	21405
882.631	21066
882.757	21165
882.883	21192
883.01	21165
883.136	20906
883.262	20895
883.388	20933
883.514	20986
883.64	21039
883.766	20979
883.892	20857
884.018	20941
884.143	20937
884.269	21039
884.395	20735
884.52	20678
884.646	20724
884.772	20686
884.897	20606
885.023	20697
885.148	20838
885.274	20807
885.399	20758
885.524	20689
885.65	20739
885.775	20621
885.9	20587
886.025	20739
886.15	20746
886.275	20705
886.4	20492
886.525	20735
886.65	20621
886.775	20564
886.9	20765
887.025	20895
887.149	20663
887.274	20511
887.399	20431
887.523	20393
887.648	20511
887.773	20343
887.897	20499
888.021	20522
888.146	20412
888.27	20522
888.395	20533
888.519	20511
888.643	20514
888.767	20488
888.891	20381
889.015	20210
889.139	20290
889.263	20218
889.387	20320
889.511	20374
889.635	20351
889.759	20237
889.883	20149
890.006	20309
890.13	20343
890.254	20111
890.377	20130
890.501	19986
890.624	19944
890.748	19955
890.871	20001
890.995	19784
891.118	19791
891.241	19841
891.364	19826
891.488	19932
891.611	19928
891.734	19780
891.857	19894
891.98	19898
892.103	19906
892.226	19757
892.349	19757
892.471	19670
892.594	19795
892.717	19795
892.839	19651
892.962	19791
893.085	19890
893.207	19780
893.33	19628
893.452	19628
893.575	19818
893.697	19731
893.819	19864
893.941	20020
894.064	19932
894.186	19674
894.308	19613
894.43	19746
894.552	19894
894.674	19852
894.796	19727
894.918	19693
895.04	19662
895.161	19830
895.283	19780
895.405	19689
895.526	19830
895.648	19658
895.769	19833
895.891	19677
896.012	19841
896.134	19871
896.255	19822
896.376	19731
896.498	19734
896.619	19788
896.74	19746
896.861	19791
896.982	20027
897.103	20092
897.224	19978
897.345	19967
897.466	19967
897.587	19917
897.708	20130
897.828	19890
897.949	19841
898.07	19784
898.19	19875
898.311	20020
898.431	19887
898.552	20062
898.672	19986
898.792	20092
898.913	19944
899.033	19887
899.153	19784
899.273	19674
899.393	19757
899.513	19788
899.633	19864
899.753	19746
899.873	19727
899.993	19750
900.113	19651
900.232	19700
900.352	19715
900.472	19533
900.591	19609
900.711	19529
900.83	19521
900.95	19491
901.069	19620
901.189	19362
901.308	19122
901.427	19126
901.546	19156
901.665	19133
901.784	19110
901.904	18973
902.023	18863
902.141	18604
902.26	18623
902.379	18635
902.498	18612
902.617	18525
902.735	18585
902.854	18658
902.973	18547
903.091	18266
903.21	18182
903.328	18285
903.446	18194
903.565	18079
903.683	18152
903.801	17980
903.919	18038
904.038	18026
904.156	17889
904.274	18060
904.392	17878
904.51	17684
904.627	17878
904.745	17939
904.863	17958
904.981	17733
905.098	17493
905.216	17581
905.334	17554
905.451	17505
905.569	17592
905.686	17528
905.803	17455
905.921	17318
906.038	17429
906.155	17364
906.272	17227
906.389	17303
906.506	17094
906.623	17132
906.74	16949
906.857	16949
906.974	16957
907.091	17189
907.208	17189
907.324	17090
907.441	17025
907.557	16904
907.674	16816
907.79	16649
907.907	16637
908.023	16885
908.139	16980
908.256	16835
908.372	16607
908.488	16656
908.604	16478
908.72	16474
908.836	16535
908.952	16493
909.068	16516
909.184	16504
909.3	16542
909.415	16569
909.531	16478
909.647	16265
909.762	16192
909.878	16310
909.993	16234
910.108	16219
910.224	16071
910.339	16154
910.454	16109
910.57	16074
910.685	16017
910.8	16223
910.915	16112
911.03	16021
911.145	15899
911.259	15861
911.374	15854
911.489	15682
911.604	15709
911.718	15549
911.833	15637
911.947	15405
912.062	15336
912.176	15584
912.291	15568
912.405	15542
912.519	15751
912.633	15701
912.748	15622
912.862	15599
912.976	15526
913.09	15252
913.204	15367
913.318	15367
913.431	15443
913.545	15526
913.659	15523
913.772	15313
913.886	15287
914	15157
914.113	15211
914.226	15367
914.34	15302
914.453	15013
914.566	15237
914.68	15077
914.793	15085
914.906	14876
915.019	14800
915.132	14712
915.245	14750
915.358	14823
915.47	14849
915.583	14773
915.696	14857
915.809	14902
915.921	15001
916.034	14838
916.146	14724
916.259	14739
916.371	14712
916.483	14773
916.595	14621
916.708	14689
916.82	14556
916.932	14556
917.044	14590
917.156	14552
917.268	14461
917.38	14526
917.491	14431
917.603	14507
917.715	14602
917.826	14476
917.938	14355
918.049	14332
918.161	14476
918.272	14583
918.384	14530
918.495	14431
918.606	14252
918.717	14157
918.828	14313
918.939	14328
919.05	14202
919.161	14168
919.272	14016
919.383	14001
919.494	14252
919.604	14328
919.715	14286
919.826	14054
919.936	14088
920.047	14278
920.157	14237
920.267	14278
920.378	14233
920.488	14157
920.598	14412
920.708	14507
920.818	14328
920.928	14396
921.038	14492
921.148	14492
921.258	14145
921.368	14130
921.477	14046
921.587	13826
921.697	13894
921.806	13909
921.916	13742
922.025	13533
922.134	13548
922.244	13597
922.353	13609
922.462	13529
922.571	13362
922.68	13213
922.789	13289
922.898	13293
923.007	13236
923.116	13304
923.224	13194
923.333	13198
923.442	13122
923.55	13091
923.659	13065
923.767	13076
923.876	13053
923.984	13027
924.092	13019
924.201	13034
924.309	13042
924.417	12939
924.525	12829
924.633	12863
924.741	13811
924.849	12772
924.956	12901
925.064	12707
925.172	12635
925.279	12665
925.387	12681
925.494	12650
925.602	12798
925.709	12738
925.816	12700
925.924	12597
926.031	12597
926.138	12635
926.245	12665
926.352	12528
926.459	12639
926.566	12719
926.673	12585
926.779	12441
926.886	12464
926.993	12289
927.099	12205
927.206	12197
927.312	12239
927.419	12224
927.525	12304
927.631	12243
927.737	12068
927.843	12076
927.95	12026
928.056	12038
928.162	12072
928.267	12030
928.373	12677
928.479	12194
928.585	11920
928.69	12102
928.796	12140
928.901	11927
929.007	11889
929.112	11969
929.218	11950
929.323	11828
929.428	11767
929.533	11996
929.638	11805
929.743	11840
929.848	11832
929.953	11672
930.058	11646
930.163	11509
930.267	11478
930.372	11634
930.477	11478
930.581	11688
930.685	11554
930.79	11471
930.894	11440
930.998	11391
931.103	11493
931.207	11140
931.311	11052
931.415	10961
931.519	10790
931.623	10694
