Data from test_V78500241_467.txt Node
Date: Fri Mar 25 15:13:06 CST 2022
User: usil
Spectrometer: V785-0024
Trigger mode: 0
Integration Time (sec): 4.000000E-1
Scans to average: 1
Nonlinearity correction enabled: false
Boxcar width: 0
Storing dark spectrum: false
XAxis mode: Wavelengths
Number of Pixels in Spectrum: 1024
>>>>>Begin Spectral Data<<<<<
801.071	27283
801.214	27416
801.356	27188
801.499	27150
801.641	27001
801.783	26895
801.926	27077
802.068	26891
802.211	26868
802.353	26872
802.496	26632
802.638	26701
802.78	26651
802.923	26602
803.065	26613
803.208	26518
803.35	26583
803.492	26556
803.635	26857
803.777	26545
803.919	26693
804.061	27055
804.204	26765
804.346	26769
804.488	26670
804.63	26796
804.773	26632
804.915	26655
805.057	26800
805.199	26678
805.341	26845
805.483	26845
805.626	26727
805.768	26727
805.91	26929
806.052	26899
806.194	26842
806.336	27138
806.478	26849
806.62	26689
806.762	27001
806.904	27161
807.046	27340
807.188	27287
807.33	27283
807.472	27363
807.614	27283
807.756	27199
807.898	26979
808.04	27119
808.182	27100
808.324	27199
808.465	27135
808.607	27359
808.749	27348
808.891	27580
809.033	27690
809.174	27656
809.316	27591
809.458	27644
809.6	27492
809.741	27553
809.883	27561
810.025	27838
810.166	27762
810.308	27774
810.45	27637
810.591	27736
810.733	27393
810.875	27488
811.016	27211
811.158	27367
811.299	27473
811.441	27679
811.582	27591
811.724	27447
811.865	27401
812.007	27507
812.148	27507
812.29	27595
812.431	27549
812.573	27629
812.714	27918
812.855	28116
812.997	28105
813.138	28287
813.279	28386
813.421	28169
813.562	28070
813.703	27911
813.845	27564
813.986	27420
814.127	27291
814.268	27226
814.41	27180
814.551	27199
814.692	27298
814.833	27116
814.974	26998
815.115	27119
815.256	27081
815.397	26975
815.539	27001
815.68	26838
815.821	26952
815.962	26849
816.103	26887
816.244	26849
816.385	26655
816.526	26693
816.666	26613
816.807	26507
816.948	26442
817.089	26503
817.23	26537
817.371	26453
817.512	26518
817.653	26499
817.793	26374
817.934	26377
818.075	26434
818.216	26389
818.356	26301
818.497	26305
818.638	26119
818.778	26149
818.919	26183
819.06	26240
819.2	26332
819.341	26415
819.481	26442
819.622	26594
819.762	26708
819.903	26602
820.043	26686
820.184	26632
820.324	26564
820.465	26606
820.605	26644
820.746	26511
820.886	26461
821.026	26514
821.167	26480
821.307	26701
821.447	26431
821.588	26366
821.728	26248
821.868	26054
822.008	25814
822.149	25757
822.289	25963
822.429	25731
822.569	25681
822.709	25605
822.849	25426
822.99	25407
823.13	25540
823.27	25419
823.41	25206
823.55	25091
823.69	25244
823.83	25221
823.97	25114
824.11	24966
824.25	25080
824.389	25065
824.529	25091
824.669	25034
824.809	25263
824.949	25171
825.089	25122
825.228	25065
825.368	24840
825.508	24764
825.648	24962
825.787	24928
825.927	24897
826.067	24962
826.206	24924
826.346	24890
826.485	24848
826.625	24844
826.765	24859
826.904	24954
827.044	24654
827.183	24734
827.323	24654
827.462	24787
827.601	24623
827.741	24673
827.88	24779
828.02	24521
828.159	24608
828.298	24544
828.437	24703
828.577	24707
828.716	24692
828.855	24483
828.994	24334
829.134	24407
829.273	24296
829.412	24232
829.551	24201
829.69	24289
829.829	24327
829.968	24407
830.107	24304
830.246	24311
830.385	24270
830.524	24194
830.663	24133
830.802	24068
830.941	24018
831.08	23999
831.219	23958
831.357	24041
831.496	24060
831.635	23901
831.774	23939
831.913	23798
832.051	23668
832.19	23748
832.329	23809
832.467	23589
832.606	23684
832.744	23718
832.883	23665
833.022	23638
833.16	23676
833.299	23668
833.437	23684
833.576	23790
833.714	23805
833.852	23646
833.991	23802
834.129	23836
834.267	23710
834.406	23722
834.544	23726
834.682	23752
834.821	23676
834.959	23973
835.097	23623
835.235	23760
835.373	23592
835.511	23748
835.65	23558
835.788	23539
835.926	23478
836.064	23292
836.202	23299
836.34	23505
836.478	23764
836.615	23547
836.753	23547
836.891	23600
837.029	23604
837.167	23619
837.305	23448
837.443	23425
837.58	23391
837.718	23436
837.856	23421
837.993	23436
838.131	23379
838.269	23277
838.406	23360
838.544	23265
838.681	23147
838.819	22923
838.956	22915
839.094	22812
839.231	22843
839.369	23048
839.506	23128
839.643	23132
839.781	22740
839.918	22801
840.055	22831
840.193	22866
840.33	22763
840.467	22873
840.604	22653
840.742	23048
840.879	22725
841.016	22687
841.153	22672
841.29	22896
841.427	22748
841.564	22873
841.701	22767
841.838	22748
841.975	22675
842.112	22744
842.249	22523
842.385	22557
842.522	22816
842.659	22721
842.796	22607
842.933	22500
843.069	22584
843.206	22489
843.343	22603
843.479	22519
843.616	22588
843.752	22310
843.889	22363
844.025	22424
844.162	22386
844.298	22398
844.435	22249
844.571	22265
844.708	22379
844.844	22523
844.98	22451
845.117	22329
845.253	22204
845.389	22158
845.525	22272
845.661	22150
845.798	22017
845.934	22135
846.07	22074
846.206	22093
846.342	22310
846.478	22074
846.614	21911
846.75	21766
846.886	21770
847.022	21876
847.158	21812
847.294	21861
847.429	21949
847.565	21759
847.701	22013
847.837	21526
847.972	21313
848.108	21618
848.244	21675
848.379	21370
848.515	21344
848.65	21268
848.786	21332
848.921	21370
849.057	21496
849.192	21428
849.328	21428
849.463	21435
849.598	21370
849.734	21348
849.869	21192
850.004	21108
850.14	21302
850.275	21161
850.41	21001
850.545	21112
850.68	21142
850.815	21024
850.95	21150
851.085	21283
851.22	21268
851.355	21165
851.49	21157
851.625	21081
851.76	21100
851.895	20906
852.03	21077
852.165	21176
852.299	21207
852.434	21218
852.569	21138
852.703	21055
852.838	21230
852.973	21195
853.107	21268
853.242	21058
853.376	20918
853.511	20864
853.645	21043
853.78	21230
853.914	20948
854.048	20842
854.183	20925
854.317	20979
854.451	21165
854.585	20921
854.72	21017
854.854	21047
854.988	20902
855.122	20994
855.256	20883
855.39	21024
855.524	21051
855.658	20963
855.792	21043
855.926	20899
856.06	21005
856.194	21123
856.327	20986
856.461	20807
856.595	21001
856.729	21077
856.862	20986
856.996	21070
857.13	21024
857.263	21036
857.397	21005
857.53	20963
857.664	21051
857.797	21047
857.931	21150
858.064	20952
858.197	21146
858.331	20990
858.464	20906
858.597	20876
858.731	20864
858.864	20891
858.997	20887
859.13	20918
859.263	21036
859.396	21020
859.529	21020
859.662	20899
859.795	20914
859.928	21077
860.061	21108
860.194	21226
860.327	20937
860.46	21043
860.592	21100
860.725	21119
860.858	21051
860.99	21017
861.123	20929
861.256	20963
861.388	21085
861.521	21751
861.653	20853
861.786	20674
861.918	20785
862.05	20834
862.183	20914
862.315	20864
862.447	20956
862.58	20857
862.712	20678
862.844	20613
862.976	20754
863.108	20823
863.24	21157
863.372	20518
863.504	20659
863.636	20678
863.768	20663
863.9	20716
864.032	20689
864.164	20674
864.296	20636
864.428	20883
864.559	20636
864.691	20754
864.823	20602
864.954	20731
865.086	20602
865.217	20522
865.349	20579
865.48	20469
865.612	20667
865.743	20689
865.875	20636
866.006	20583
866.137	20556
866.269	20583
866.4	20526
866.531	20625
866.662	20419
866.793	20514
866.924	20579
867.055	20495
867.186	20499
867.317	20408
867.448	20400
867.579	20358
867.71	20473
867.841	20480
867.972	20693
868.103	20518
868.233	20583
868.364	20579
868.495	20640
868.625	20735
868.756	20963
868.886	20590
869.017	20739
869.147	20800
869.278	20739
869.408	20815
869.539	20727
869.669	20712
869.799	20864
869.929	20880
870.06	20842
870.19	21058
870.32	21104
870.45	21157
870.58	21039
870.71	21173
870.84	21268
870.97	21123
871.1	21245
871.23	21298
871.36	21469
871.489	21272
871.619	21374
871.749	21332
871.879	21348
872.008	21488
872.138	21275
872.267	21386
872.397	21135
872.526	21173
872.656	21249
872.785	21207
872.915	21397
873.044	21553
873.173	21359
873.303	21374
873.432	21450
873.561	21523
873.69	21439
873.819	21443
873.948	21496
874.077	21408
874.206	21252
874.335	21233
874.464	21435
874.593	21511
874.722	21447
874.851	21698
874.979	21667
875.108	21633
875.237	21561
875.365	21481
875.494	21572
875.623	21770
875.751	21625
875.88	21610
876.008	21732
876.136	21732
876.265	21888
876.393	22101
876.521	22120
876.65	22010
876.778	22032
876.906	21945
877.034	21857
877.162	21922
877.29	21842
877.418	22044
877.546	21884
877.674	21979
877.802	21930
877.93	21972
878.058	22025
878.185	21960
878.313	21884
878.441	21934
878.568	21766
878.696	21865
878.824	22029
878.951	22070
879.079	22166
879.206	22325
879.333	22090
879.461	21987
879.588	22101
879.715	22097
879.842	22287
879.97	22013
880.097	21785
880.224	21705
880.351	21873
880.478	21827
880.605	21732
880.732	21698
880.859	22017
880.986	21713
881.112	21797
881.239	21614
881.366	21519
881.493	21519
881.619	21466
881.746	21408
881.872	21450
881.999	21233
882.125	21313
882.252	21374
882.378	21363
882.505	21496
882.631	21325
882.757	21146
882.883	21264
883.01	21047
883.136	21123
883.262	20963
883.388	20853
883.514	21085
883.64	21043
883.766	20963
883.892	20845
884.018	20849
884.143	21001
884.269	21116
884.395	20773
884.52	20651
884.646	20670
884.772	20765
884.897	20564
885.023	20644
885.148	20720
885.274	20914
885.399	20754
885.524	20617
885.65	20804
885.775	20754
885.9	20705
886.025	20762
886.15	20746
886.275	20697
886.4	20480
886.525	20663
886.65	20674
886.775	20617
886.9	20705
887.025	20929
887.149	20686
887.274	20503
887.399	20518
887.523	20454
887.648	20419
887.773	20366
887.897	20564
888.021	20450
888.146	20571
888.27	20571
888.395	20522
888.519	20457
888.643	20492
888.767	20511
888.891	20351
889.015	20145
889.139	20332
889.263	20271
889.387	20450
889.511	20533
889.635	20381
889.759	20358
889.883	20191
890.006	20286
890.13	20282
890.254	20259
890.377	20138
890.501	20096
890.624	20046
890.748	20069
890.871	19993
890.995	19868
891.118	19753
891.241	19799
891.364	19989
891.488	19982
891.611	19868
891.734	19894
891.857	19978
891.98	20039
892.103	19947
892.226	19765
892.349	19928
892.471	19658
892.594	19811
892.717	19887
892.839	19753
892.962	19837
893.085	19822
893.207	19731
893.33	19635
893.452	19662
893.575	19746
893.697	19712
893.819	19993
893.941	19978
894.064	19833
894.186	19757
894.308	19761
894.43	19780
894.552	19902
894.674	19830
894.796	19731
894.918	19822
895.04	19689
895.161	19807
895.283	19746
895.405	19601
895.526	19776
895.648	19845
895.769	19734
895.891	19856
896.012	19890
896.134	19936
896.255	19769
896.376	19864
896.498	19845
896.619	19765
896.74	19799
896.861	19826
896.982	20043
897.103	20237
897.224	20142
897.345	20058
897.466	19967
897.587	19967
897.708	20187
897.828	20062
897.949	19963
898.07	19875
898.19	19944
898.311	20096
898.431	20016
898.552	19970
898.672	19993
898.792	20016
898.913	20088
899.033	19833
899.153	19742
899.273	19689
899.393	19719
899.513	19738
899.633	19700
899.753	19548
899.873	19849
899.993	19731
900.113	19647
900.232	19628
900.352	19651
900.472	19624
900.591	19480
900.711	19506
900.83	19457
900.95	19624
901.069	19670
901.189	19441
901.308	19171
901.427	19038
901.546	19183
901.665	18993
901.784	19076
901.904	19034
902.023	18947
902.141	18779
902.26	18741
902.379	18738
902.498	18768
902.617	18536
902.735	18582
902.854	18578
902.973	18563
903.091	18315
903.21	18281
903.328	18270
903.446	18194
903.565	18163
903.683	18095
903.801	17992
903.919	18015
904.038	18022
904.156	17843
904.274	17908
904.392	17863
904.51	17802
904.627	17901
904.745	17901
904.863	17832
904.981	17741
905.098	17471
905.216	17566
905.334	17566
905.451	17524
905.569	17471
905.686	17558
905.803	17410
905.921	17368
906.038	17566
906.155	17402
906.272	17315
906.389	17277
906.506	17124
906.623	17162
906.74	17086
906.857	16995
906.974	17064
907.091	17181
907.208	17200
907.324	17166
907.441	16942
907.557	16831
907.674	16915
907.79	16691
907.907	16755
908.023	16911
908.139	16862
908.256	16713
908.372	16812
908.488	16580
908.604	16630
908.72	16554
908.836	16580
908.952	16538
909.068	16538
909.184	16683
909.3	16512
909.415	16573
909.531	16519
909.647	16382
909.762	16211
909.878	16219
909.993	16238
910.108	16242
910.224	16238
910.339	16322
910.454	16188
910.57	16116
910.685	15968
910.8	16375
910.915	16329
911.03	16093
911.145	15972
911.259	15926
911.374	15915
911.489	15728
911.604	15713
911.718	15618
911.833	15648
911.947	15469
912.062	15515
912.176	15519
912.291	15545
912.405	15538
912.519	15785
912.633	15785
912.748	15530
912.862	15591
912.976	15458
913.09	15279
913.204	15401
913.318	15454
913.431	15507
913.545	15431
913.659	15481
913.772	15424
913.886	15192
914	15317
914.113	15386
914.226	15252
914.34	15332
914.453	15207
914.566	15256
914.68	15131
914.793	15104
914.906	14960
915.019	14883
915.132	14811
915.245	14849
915.358	14933
915.47	14849
915.583	14804
915.696	14906
915.809	15013
915.921	14868
916.034	14811
916.146	14724
916.259	14792
916.371	14746
916.483	14819
916.595	14613
916.708	14629
916.82	14629
916.932	14640
917.044	14640
917.156	14590
917.268	14469
917.38	14583
917.491	14476
917.603	14465
917.715	14568
917.826	14625
917.938	14419
918.049	14339
918.161	14419
918.272	14568
918.384	14564
918.495	14434
918.606	14282
918.717	14221
918.828	14290
918.939	14351
919.05	14248
919.161	14210
919.272	14054
919.383	14153
919.494	14324
919.604	14457
919.715	14286
919.826	14206
919.936	14157
920.047	14362
920.157	14218
920.267	14476
920.378	14309
920.488	14218
920.598	14396
920.708	14549
920.818	14415
920.928	14412
921.038	14499
921.148	14351
921.258	14157
921.368	14142
921.477	14043
921.587	14024
921.697	13765
921.806	14043
921.916	13868
922.025	13666
922.134	13605
922.244	13616
922.353	13700
922.462	13438
922.571	13415
922.68	13335
922.789	13327
922.898	13225
923.007	13304
923.116	13320
923.224	13278
923.333	13225
923.442	13190
923.55	13019
923.659	13206
923.767	13206
923.876	13099
923.984	13122
924.092	13023
924.201	13088
924.309	13065
924.417	13000
924.525	12958
924.633	12973
924.741	13841
924.849	12745
924.956	12909
925.064	12840
925.172	12700
925.279	12722
925.387	12730
925.494	12745
925.602	12745
925.709	12741
925.816	12612
925.924	12646
926.031	12711
926.138	12654
926.245	12753
926.352	12490
926.459	12745
926.566	12871
926.673	12593
926.779	12369
926.886	12422
926.993	12319
927.099	12308
927.206	12243
927.312	12304
927.419	12300
927.525	12357
927.631	12228
927.737	12079
927.843	12117
927.95	12079
928.056	12133
928.162	12178
928.267	12213
928.373	12817
928.479	12281
928.585	11954
928.69	12019
928.796	12163
928.901	12045
929.007	11786
929.112	12034
929.218	11912
929.323	11912
929.428	11855
929.533	11988
929.638	11756
929.743	11809
929.848	11809
929.953	11817
930.058	11665
930.163	11600
930.267	11528
930.372	11668
930.477	11490
930.581	11714
930.685	11520
930.79	11474
930.894	11455
930.998	11406
931.103	11547
931.207	11121
931.311	11162
931.415	10961
931.519	10816
931.623	10831
