Data from test_V78500241_3438.txt Node
Date: Fri Mar 25 15:33:48 CST 2022
User: usil
Spectrometer: V785-0024
Trigger mode: 0
Integration Time (sec): 4.000000E-1
Scans to average: 1
Nonlinearity correction enabled: false
Boxcar width: 0
Storing dark spectrum: false
XAxis mode: Wavelengths
Number of Pixels in Spectrum: 1024
>>>>>Begin Spectral Data<<<<<
801.071	27272
801.214	27260
801.356	27119
801.499	26834
801.641	26838
801.783	26880
801.926	26796
802.068	26914
802.211	26739
802.353	26861
802.496	26579
802.638	26526
802.78	26571
802.923	26305
803.065	26313
803.208	26339
803.35	26530
803.492	26598
803.635	26537
803.777	26347
803.919	26705
804.061	27001
804.204	26792
804.346	26537
804.488	26644
804.63	26659
804.773	26545
804.915	26720
805.057	26712
805.199	26625
805.341	26640
805.483	26819
805.626	26781
805.768	26807
805.91	26629
806.052	26868
806.194	26640
806.336	26830
806.478	26731
806.62	26648
806.762	26781
806.904	26963
807.046	27268
807.188	27036
807.33	27180
807.472	27112
807.614	27127
807.756	27009
807.898	27108
808.04	26921
808.182	27013
808.324	26876
808.465	26975
808.607	27195
808.749	27340
808.891	27382
809.033	27538
809.174	27294
809.316	27222
809.458	27370
809.6	27245
809.741	27386
809.883	27523
810.025	27686
810.166	27622
810.308	27561
810.45	27526
810.591	27443
810.733	27386
810.875	27260
811.016	27077
811.158	27169
811.299	27412
811.441	27519
811.582	27420
811.724	27283
811.865	27332
812.007	27268
812.148	27397
812.29	27310
812.431	27477
812.573	27728
812.714	27667
812.855	27743
812.997	27945
813.138	28067
813.279	27918
813.421	27846
813.562	27869
813.703	27743
813.845	27534
813.986	27294
814.127	27127
814.268	27058
814.41	27043
814.551	26944
814.692	27070
814.833	26929
814.974	27005
815.115	27077
815.256	26918
815.397	26887
815.539	26804
815.68	26807
815.821	26659
815.962	26823
816.103	26746
816.244	26602
816.385	26480
816.526	26404
816.666	26385
816.807	26240
816.948	26278
817.089	26313
817.23	26275
817.371	26183
817.512	26259
817.653	26221
817.793	26210
817.934	26267
818.075	26298
818.216	26301
818.356	26237
818.497	26138
818.638	25928
818.778	25951
818.919	26005
819.06	26073
819.2	26111
819.341	26229
819.481	26149
819.622	26313
819.762	26495
819.903	26427
820.043	26355
820.184	26446
820.324	26400
820.465	26480
820.605	26313
820.746	26377
820.886	26259
821.026	26358
821.167	26145
821.307	26328
821.447	26176
821.588	26065
821.728	25978
821.868	25921
822.008	25613
822.149	25814
822.289	25746
822.429	25407
822.569	25373
822.709	25365
822.849	25259
822.99	25343
823.13	25156
823.27	25179
823.41	25061
823.55	24973
823.69	24878
823.83	24966
823.97	25050
824.11	24745
824.25	24848
824.389	24722
824.529	24901
824.669	24791
824.809	24871
824.949	24848
825.089	25095
825.228	24943
825.368	24726
825.508	24779
825.648	24707
825.787	24753
825.927	24783
826.067	24749
826.206	24734
826.346	24688
826.485	24837
826.625	24623
826.765	24749
826.904	24776
827.044	24509
827.183	24521
827.323	24422
827.462	24441
827.601	24464
827.741	24414
827.88	24384
828.02	24277
828.159	24426
828.298	24353
828.437	24502
828.577	24353
828.716	24456
828.855	24308
828.994	24136
829.134	24140
829.273	24098
829.412	24140
829.551	24011
829.69	24171
829.829	24026
829.968	24228
830.107	24235
830.246	24136
830.385	24083
830.524	24159
830.663	24060
830.802	23882
830.941	23775
831.08	23790
831.219	23824
831.357	23901
831.496	24003
831.635	23756
831.774	23680
831.913	23630
832.051	23539
832.19	23539
832.329	23478
832.467	23417
832.606	23421
832.744	23459
832.883	23398
833.022	23391
833.16	23478
833.299	23383
833.437	23421
833.576	23467
833.714	23501
833.852	23661
833.991	23543
834.129	23509
834.267	23486
834.406	23535
834.544	23531
834.682	23436
834.821	23398
834.959	23630
835.097	23379
835.235	23512
835.373	23471
835.511	23463
835.65	23334
835.788	23356
835.926	23223
836.064	23166
836.202	23193
836.34	23322
836.478	23436
836.615	23341
836.753	23208
836.891	23368
837.029	23242
837.167	23292
837.305	23136
837.443	23242
837.58	23162
837.718	23265
837.856	23322
837.993	23151
838.131	23056
838.269	23071
838.406	23124
838.544	22984
838.681	22949
838.819	22896
838.956	22649
839.094	22672
839.231	22580
839.369	22797
839.506	23128
839.643	22908
839.781	22679
839.918	22637
840.055	22698
840.193	22618
840.33	22664
840.467	22573
840.604	22645
840.742	22816
840.879	22386
841.016	22573
841.153	22512
841.29	22809
841.427	22584
841.564	22561
841.701	22596
841.838	22588
841.975	22523
842.112	22523
842.249	22405
842.385	22379
842.522	22573
842.659	22443
842.796	22322
842.933	22402
843.069	22261
843.206	22249
843.343	22337
843.479	22363
843.616	22318
843.752	22135
843.889	22219
844.025	22322
844.162	22063
844.298	22234
844.435	22177
844.571	22032
844.708	22192
844.844	22375
844.98	22375
845.117	22295
845.253	22109
845.389	22112
845.525	22063
845.661	21972
845.798	21899
845.934	22017
846.07	21797
846.206	21930
846.342	22036
846.478	21850
846.614	21713
846.75	21576
846.886	21705
847.022	21755
847.158	21686
847.294	21656
847.429	21663
847.565	21595
847.701	21827
847.837	21405
847.972	21367
848.108	21412
848.244	21374
848.379	21298
848.515	21226
848.65	21066
848.786	21108
848.921	21237
849.057	21283
849.192	21291
849.328	21226
849.463	21218
849.598	21081
849.734	21116
849.869	21017
850.004	21024
850.14	21043
850.275	20963
850.41	21017
850.545	20910
850.68	20895
850.815	21024
850.95	20990
851.085	21100
851.22	20960
851.355	20921
851.49	20921
851.625	21039
851.76	20979
851.895	20864
852.03	20861
852.165	21020
852.299	21005
852.434	21032
852.569	21009
852.703	21028
852.838	20975
852.973	21104
853.107	21017
853.242	20975
853.376	20861
853.511	20617
853.645	20788
853.78	21017
853.914	20849
854.048	20682
854.183	20807
854.317	20735
854.451	20994
854.585	20842
854.72	20758
854.854	20963
854.988	20792
855.122	20781
855.256	20686
855.39	20883
855.524	20830
855.658	20868
855.792	20830
855.926	20788
856.06	20910
856.194	20845
856.327	20804
856.461	20712
856.595	20731
856.729	20845
856.862	20788
856.996	20872
857.13	20887
857.263	20895
857.397	20899
857.53	20804
857.664	20746
857.797	20811
857.931	20944
858.064	20792
858.197	20857
858.331	20845
858.464	20682
858.597	20746
858.731	20823
858.864	20746
858.997	20819
859.13	20811
859.263	20788
859.396	20899
859.529	20746
859.662	20754
859.795	20693
859.928	20823
860.061	20990
860.194	21043
860.327	20804
860.46	20834
860.592	20929
860.725	20902
860.858	21024
860.99	20777
861.123	20670
861.256	20648
861.388	20853
861.521	21473
861.653	20705
861.786	20705
861.918	20609
862.05	20640
862.183	20807
862.315	20796
862.447	20895
862.58	20689
862.712	20609
862.844	20492
862.976	20708
863.108	20552
863.24	21039
863.372	20415
863.504	20571
863.636	20503
863.768	20613
863.9	20408
864.032	20514
864.164	20499
864.296	20556
864.428	20541
864.559	20549
864.691	20602
864.823	20549
864.954	20457
865.086	20419
865.217	20404
865.349	20370
865.48	20492
865.612	20434
865.743	20537
865.875	20526
866.006	20454
866.137	20393
866.269	20419
866.4	20556
866.531	20362
866.662	20370
866.793	20259
866.924	20450
867.055	20332
867.186	20370
867.317	20305
867.448	20305
867.579	20275
867.71	20469
867.841	20389
867.972	20393
868.103	20431
868.233	20313
868.364	20347
868.495	20415
868.625	20640
868.756	20682
868.886	20522
869.017	20674
869.147	20552
869.278	20727
869.408	20697
869.539	20598
869.669	20564
869.799	20731
869.929	20735
870.06	20682
870.19	20838
870.32	20902
870.45	21036
870.58	21001
870.71	20982
870.84	21123
870.97	21100
871.1	21005
871.23	21142
871.36	21199
871.489	21211
871.619	21214
871.749	21294
871.879	21283
872.008	21397
872.138	21188
872.267	21165
872.397	21024
872.526	20975
872.656	21195
872.785	21108
872.915	21264
873.044	21260
873.173	21348
873.303	21291
873.432	21367
873.561	21382
873.69	21298
873.819	21192
873.948	21370
874.077	21241
874.206	21169
874.335	21260
874.464	21359
874.593	21397
874.722	21443
874.851	21481
874.979	21511
875.108	21485
875.237	21473
875.365	21336
875.494	21466
875.623	21485
875.751	21488
875.88	21462
876.008	21599
876.136	21698
876.265	21903
876.393	21945
876.521	21835
876.65	22040
876.778	22048
876.906	21766
877.034	21759
877.162	21903
877.29	21743
877.418	21903
877.546	21827
877.674	21857
877.802	21842
877.93	21880
878.058	21903
878.185	21774
878.313	21679
878.441	21720
878.568	21561
878.696	21812
878.824	21907
878.951	21827
879.079	21987
879.206	22090
879.333	21964
879.461	21846
879.588	21979
879.715	21857
879.842	22112
879.97	22040
880.097	21599
880.224	21759
880.351	21682
880.478	21717
880.605	21766
880.732	21618
880.859	21842
880.986	21739
881.112	21675
881.239	21545
881.366	21496
881.493	21340
881.619	21294
881.746	21226
881.872	21287
881.999	21245
882.125	21272
882.252	21245
882.378	21252
882.505	21291
882.631	21180
882.757	20975
882.883	21112
883.01	20899
883.136	20876
883.262	20773
883.388	20769
883.514	20933
883.64	21104
883.766	20807
883.892	20762
884.018	20705
884.143	20944
884.269	21005
884.395	20670
884.52	20686
884.646	20495
884.772	20640
884.897	20518
885.023	20629
885.148	20583
885.274	20689
885.399	20556
885.524	20568
885.65	20644
885.775	20602
885.9	20545
886.025	20678
886.15	20697
886.275	20571
886.4	20396
886.525	20590
886.65	20541
886.775	20488
886.9	20655
887.025	20815
887.149	20484
887.274	20400
887.399	20347
887.523	20343
887.648	20374
887.773	20393
887.897	20526
888.021	20480
888.146	20408
888.27	20434
888.395	20427
888.519	20446
888.643	20419
888.767	20400
888.891	20336
889.015	20145
889.139	20248
889.263	20122
889.387	20187
889.511	20396
889.635	20324
889.759	20081
889.883	20103
890.006	20172
890.13	20355
890.254	20107
890.377	20161
890.501	19944
890.624	19887
890.748	20111
890.871	19826
890.995	19791
891.118	19677
891.241	19780
891.364	19784
891.488	19864
891.611	19685
891.734	19780
891.857	19826
891.98	19742
892.103	19799
892.226	19772
892.349	19704
892.471	19476
892.594	19727
892.717	19712
892.839	19757
892.962	19628
893.085	19750
893.207	19616
893.33	19480
893.452	19533
893.575	19655
893.697	19590
893.819	19795
893.941	19902
894.064	19772
894.186	19578
894.308	19571
894.43	19784
894.552	19864
894.674	19765
894.796	19415
894.918	19666
895.04	19643
895.161	19704
895.283	19708
895.405	19597
895.526	19712
895.648	19590
895.769	19643
895.891	19670
896.012	19776
896.134	19689
896.255	19708
896.376	19582
896.498	19552
896.619	19765
896.74	19689
896.861	19750
896.982	19963
897.103	20187
897.224	19852
897.345	19902
897.466	19822
897.587	19822
897.708	19947
897.828	19909
897.949	19913
898.07	19655
898.19	19959
898.311	20039
898.431	19860
898.552	19906
898.672	19864
898.792	19951
898.913	19944
899.033	19780
899.153	19632
899.273	19571
899.393	19582
899.513	19559
899.633	19590
899.753	19639
899.873	19586
899.993	19685
900.113	19594
900.232	19700
900.352	19582
900.472	19460
900.591	19392
900.711	19426
900.83	19365
900.95	19506
901.069	19518
901.189	19259
901.308	19118
901.427	18932
901.546	19004
901.665	19118
901.784	18962
901.904	18825
902.023	18760
902.141	18593
902.26	18486
902.379	18688
902.498	18589
902.617	18490
902.735	18506
902.854	18506
902.973	18513
903.091	18167
903.21	18190
903.328	18300
903.446	18163
903.565	18110
903.683	18030
903.801	17855
903.919	18022
904.038	17996
904.156	17802
904.274	17908
904.392	17775
904.51	17733
904.627	17779
904.745	17821
904.863	17771
904.981	17547
905.098	17505
905.216	17501
905.334	17566
905.451	17417
905.569	17417
905.686	17562
905.803	17284
905.921	17315
906.038	17429
906.155	17254
906.272	17056
906.389	17162
906.506	17067
906.623	16999
906.74	16961
906.857	16873
906.974	16957
907.091	17151
907.208	17124
907.324	16980
907.441	16881
907.557	16835
907.674	16725
907.79	16687
907.907	16710
908.023	16824
908.139	16626
908.256	16752
908.372	16698
908.488	16527
908.604	16466
908.72	16379
908.836	16405
908.952	16447
909.068	16447
909.184	16474
909.3	16546
909.415	16508
909.531	16375
909.647	16268
909.762	16177
909.878	16196
909.993	16253
910.108	16120
910.224	16124
910.339	16086
910.454	15987
910.57	15956
910.685	15941
910.8	16169
910.915	16010
911.03	16025
911.145	15861
911.259	15823
911.374	15701
911.489	15648
911.604	15538
911.718	15553
911.833	15504
911.947	15469
912.062	15336
912.176	15435
912.291	15477
912.405	15515
912.519	15713
912.633	15709
912.748	15568
912.862	15488
912.976	15329
913.09	15230
913.204	15241
913.318	15363
913.431	15393
913.545	15408
913.659	15439
913.772	15279
913.886	15093
914	15127
914.113	15214
914.226	15291
914.34	15207
914.453	15081
914.566	15214
914.68	14975
914.793	15020
914.906	14788
915.019	14796
915.132	14785
915.245	14739
915.358	14720
915.47	14746
915.583	14819
915.696	14735
915.809	14956
915.921	14925
916.034	14610
916.146	14670
916.259	14663
916.371	14750
916.483	14712
916.595	14659
916.708	14606
916.82	14549
916.932	14606
917.044	14552
917.156	14488
917.268	14408
917.38	14454
917.491	14305
917.603	14370
917.715	14412
917.826	14480
917.938	14404
918.049	14305
918.161	14366
918.272	14469
918.384	14541
918.495	14438
918.606	14229
918.717	14073
918.828	14202
918.939	14172
919.05	14123
919.161	14115
919.272	14016
919.383	13955
919.494	14282
919.604	14358
919.715	14107
919.826	14081
919.936	14145
920.047	14126
920.157	14119
920.267	14393
920.378	14161
920.488	14123
920.598	14339
920.708	14454
920.818	14233
920.928	14320
921.038	14434
921.148	14355
921.258	14058
921.368	14024
921.477	13887
921.587	13898
921.697	13772
921.806	13936
921.916	13681
922.025	13597
922.134	13586
922.244	13544
922.353	13567
922.462	13392
922.571	13403
922.68	13259
922.789	13149
922.898	13213
923.007	13175
923.116	13289
923.224	13171
923.333	13072
923.442	13160
923.55	13015
923.659	13050
923.767	13008
923.876	12966
923.984	13076
924.092	12905
924.201	12970
924.309	12943
924.417	12954
924.525	12852
924.633	12943
924.741	13837
924.849	12677
924.956	12787
925.064	12646
925.172	12585
925.279	12589
925.387	12707
925.494	12525
925.602	12662
925.709	12639
925.816	12574
925.924	12627
926.031	12734
926.138	12448
926.245	12635
926.352	12464
926.459	12635
926.566	12593
926.673	12494
926.779	12414
926.886	12418
926.993	12209
927.099	12251
927.206	12140
927.312	12148
927.419	12258
927.525	12095
927.631	12163
927.737	12133
927.843	12095
927.95	11889
928.056	11977
928.162	12026
928.267	12079
928.373	12517
928.479	12129
928.585	11874
928.69	12015
928.796	12019
928.901	11939
929.007	11767
929.112	11927
929.218	11859
929.323	11798
929.428	11794
929.533	11893
929.638	11691
929.743	11703
929.848	11771
929.953	11684
930.058	11649
930.163	11417
930.267	11505
930.372	11630
930.477	11398
930.581	11684
930.685	11577
930.79	11299
930.894	11455
930.998	11379
931.103	11395
931.207	11162
931.311	11098
931.415	11025
931.519	10786
931.623	10717
