Data from test_V78500241_1764.txt Node
Date: Fri Mar 25 15:22:08 CST 2022
User: usil
Spectrometer: V785-0024
Trigger mode: 0
Integration Time (sec): 4.000000E-1
Scans to average: 1
Nonlinearity correction enabled: false
Boxcar width: 0
Storing dark spectrum: false
XAxis mode: Wavelengths
Number of Pixels in Spectrum: 1024
>>>>>Begin Spectral Data<<<<<
801.071	27987
801.214	27759
801.356	27701
801.499	27603
801.641	27386
801.783	27405
801.926	27523
802.068	27420
802.211	27416
802.353	27458
802.496	27135
802.638	27214
802.78	27036
802.923	27085
803.065	27020
803.208	26994
803.35	27055
803.492	27313
803.635	27401
803.777	27195
803.919	27310
804.061	27618
804.204	27363
804.346	27260
804.488	27294
804.63	27344
804.773	27222
804.915	27340
805.057	27401
805.199	27203
805.341	27450
805.483	27542
805.626	27435
805.768	27291
805.91	27564
806.052	27393
806.194	27454
806.336	27663
806.478	27454
806.62	27462
806.762	27587
806.904	27629
807.046	27998
807.188	27991
807.33	27751
807.472	27892
807.614	27728
807.756	27743
807.898	27846
808.04	27709
808.182	27667
808.324	27747
808.465	27835
808.607	28025
808.749	28131
808.891	28074
809.033	28356
809.174	28223
809.316	28025
809.458	28101
809.6	27953
809.741	28143
809.883	28150
810.025	28367
810.166	28295
810.308	28169
810.45	28188
810.591	28238
810.733	28055
810.875	28002
811.016	27956
811.158	27922
811.299	28032
811.441	28173
811.582	28173
811.724	28169
811.865	28093
812.007	28002
812.148	27998
812.29	28211
812.431	28310
812.573	28318
812.714	28580
812.855	28451
812.997	28721
813.138	28801
813.279	28679
813.421	28679
813.562	28481
813.703	28538
813.845	28265
813.986	28128
814.127	27994
814.268	27812
814.41	27838
814.551	27850
814.692	27846
814.833	27755
814.974	27793
815.115	27842
815.256	27682
815.397	27625
815.539	27610
815.68	27671
815.821	27526
815.962	27526
816.103	27549
816.244	27431
816.385	27466
816.526	27359
816.666	27188
816.807	27047
816.948	27127
817.089	27108
817.23	27085
817.371	26994
817.512	27184
817.653	26982
817.793	26883
817.934	27089
818.075	27043
818.216	27062
818.356	26963
818.497	26918
818.638	26788
818.778	26819
818.919	26838
819.06	26826
819.2	27062
819.341	27077
819.481	27093
819.622	27233
819.762	27348
819.903	27332
820.043	27268
820.184	27203
820.324	27272
820.465	27329
820.605	27249
820.746	27188
820.886	27119
821.026	27081
821.167	27051
821.307	27214
821.447	27017
821.588	27017
821.728	26925
821.868	26629
822.008	26674
822.149	26598
822.289	26503
822.429	26488
822.569	26183
822.709	26202
822.849	26039
822.99	26031
823.13	26058
823.27	25982
823.41	25875
823.55	25830
823.69	25894
823.83	25868
823.97	25845
824.11	25799
824.25	25582
824.389	25776
824.529	25837
824.669	25704
824.809	25795
824.949	25765
825.089	25875
825.228	25852
825.368	25578
825.508	25674
825.648	25586
825.787	25719
825.927	25700
826.067	25658
826.206	25518
826.346	25799
826.485	25578
826.625	25632
826.765	25765
826.904	25670
827.044	25441
827.183	25343
827.323	25244
827.462	25350
827.601	25365
827.741	25426
827.88	25282
828.02	25038
828.159	25278
828.298	25304
828.437	25460
828.577	25339
828.716	25388
828.855	25183
828.994	25023
829.134	25069
829.273	25057
829.412	24909
829.551	24928
829.69	25046
829.829	25076
829.968	25031
830.107	25023
830.246	25091
830.385	24970
830.524	24966
830.663	24821
830.802	24795
830.941	24669
831.08	24669
831.219	24669
831.357	24814
831.496	24791
831.635	24620
831.774	24555
831.913	24532
832.051	24353
832.19	24391
832.329	24422
832.467	24395
832.606	24300
832.744	24319
832.883	24327
833.022	24407
833.16	24456
833.299	24327
833.437	24315
833.576	24372
833.714	24365
833.852	24464
833.991	24426
834.129	24388
834.267	24513
834.406	24483
834.544	24490
834.682	24410
834.821	24323
834.959	24582
835.097	24414
835.235	24357
835.373	24353
835.511	24376
835.65	24270
835.788	24266
835.926	24110
836.064	24091
836.202	24106
836.34	24205
836.478	24273
836.615	24152
836.753	24174
836.891	24258
837.029	24281
837.167	24155
837.305	24178
837.443	24098
837.58	24060
837.718	24136
837.856	24102
837.993	24053
838.131	24098
838.269	24030
838.406	23870
838.544	23882
838.681	23783
838.819	23649
838.956	23649
839.094	23509
839.231	23547
839.369	23741
839.506	23878
839.643	23836
839.781	23592
839.918	23547
840.055	23558
840.193	23566
840.33	23486
840.467	23512
840.604	23501
840.742	23687
840.879	23383
841.016	23326
841.153	23360
841.29	23501
841.427	23482
841.564	23421
841.701	23497
841.838	23387
841.975	23330
842.112	23417
842.249	23284
842.385	23121
842.522	23421
842.659	23330
842.796	23322
842.933	23254
843.069	23121
843.206	23090
843.343	23227
843.479	23155
843.616	23273
843.752	22991
843.889	23079
844.025	23105
844.162	23067
844.298	23044
844.435	22965
844.571	23064
844.708	23048
844.844	23322
844.98	23200
845.117	23041
845.253	22999
845.389	22767
845.525	22953
845.661	22763
845.798	22694
845.934	22744
846.07	22767
846.206	22729
846.342	22778
846.478	22687
846.614	22493
846.75	22382
846.886	22386
847.022	22485
847.158	22428
847.294	22485
847.429	22470
847.565	22489
847.701	22717
847.837	22211
847.972	22154
848.108	22287
848.244	22287
848.379	21983
848.515	22059
848.65	22029
848.786	22128
848.921	22112
849.057	22112
849.192	22097
849.328	22067
849.463	22120
849.598	21949
849.734	21899
849.869	21926
850.004	21816
850.14	21926
850.275	21869
850.41	21816
850.545	21690
850.68	21774
850.815	21842
850.95	21876
851.085	21964
851.22	21911
851.355	21869
851.49	21861
851.625	21781
851.76	21823
851.895	21819
852.03	21629
852.165	21880
852.299	21732
852.434	21926
852.569	21857
852.703	21789
852.838	21831
852.973	21979
853.107	21953
853.242	21789
853.376	21629
853.511	21618
853.645	21572
853.78	21774
853.914	21603
854.048	21568
854.183	21526
854.317	21591
854.451	21770
854.585	21671
854.72	21660
854.854	21705
854.988	21568
855.122	21717
855.256	21412
855.39	21583
855.524	21728
855.658	21614
855.792	21599
855.926	21751
856.06	21724
856.194	21751
856.327	21595
856.461	21534
856.595	21519
856.729	21591
856.862	21667
856.996	21606
857.13	21622
857.263	21728
857.397	21652
857.53	21610
857.664	21572
857.797	21671
857.931	21835
858.064	21644
858.197	21713
858.331	21572
858.464	21641
858.597	21568
858.731	21591
858.864	21622
858.997	21511
859.13	21610
859.263	21648
859.396	21633
859.529	21614
859.662	21557
859.795	21481
859.928	21519
860.061	21720
860.194	21838
860.327	21663
860.46	21591
860.592	21641
860.725	21785
860.858	21736
860.99	21701
861.123	21557
861.256	21526
861.388	21545
861.521	22257
861.653	21408
861.786	21428
861.918	21306
862.05	21507
862.183	21652
862.315	21606
862.447	21671
862.58	21572
862.712	21386
862.844	21302
862.976	21393
863.108	21412
863.24	21698
863.372	21291
863.504	21306
863.636	21454
863.768	21348
863.9	21306
864.032	21302
864.164	21306
864.296	21321
864.428	21428
864.559	21485
864.691	21374
864.823	21268
864.954	21256
865.086	21184
865.217	21226
865.349	21074
865.48	21351
865.612	21161
865.743	21325
865.875	21176
866.006	21188
866.137	21161
866.269	21298
866.4	21298
866.531	21123
866.662	21058
866.793	21036
866.924	21081
867.055	21310
867.186	21127
867.317	21085
867.448	21108
867.579	21184
867.71	21127
867.841	21180
867.972	21203
868.103	21199
868.233	21256
868.364	21116
868.495	21260
868.625	21389
868.756	21462
868.886	21306
869.017	21420
869.147	21458
869.278	21526
869.408	21439
869.539	21450
869.669	21447
869.799	21458
869.929	21530
870.06	21454
870.19	21663
870.32	21690
870.45	21762
870.58	21751
870.71	21941
870.84	21934
870.97	21724
871.1	21690
871.23	21960
871.36	21941
871.489	21846
871.619	22044
871.749	22013
871.879	21953
872.008	22044
872.138	22017
872.267	21983
872.397	21941
872.526	21861
872.656	21751
872.785	21926
872.915	22169
873.044	22143
873.173	21964
873.303	22032
873.432	22093
873.561	22249
873.69	22013
873.819	22010
873.948	22078
874.077	21998
874.206	21979
874.335	22013
874.464	22188
874.593	22226
874.722	22135
874.851	22185
874.979	22246
875.108	22314
875.237	22154
875.365	22112
875.494	22181
875.623	22265
875.751	22280
875.88	22120
876.008	22379
876.136	22436
876.265	22672
876.393	22691
876.521	22694
876.65	22755
876.778	22580
876.906	22660
877.034	22535
877.162	22618
877.29	22546
877.418	22588
877.546	22599
877.674	22535
877.802	22630
877.93	22546
878.058	22481
878.185	22379
878.313	22596
878.441	22550
878.568	22478
878.696	22455
878.824	22653
878.951	22675
879.079	22748
879.206	22752
879.333	22702
879.461	22557
879.588	22637
879.715	22706
879.842	22843
879.97	22645
880.097	22459
880.224	22424
880.351	22417
880.478	22428
880.605	22253
880.732	22314
880.859	22630
880.986	22409
881.112	22367
881.239	22249
881.366	22147
881.493	22070
881.619	21937
881.746	22025
881.872	21991
881.999	22006
882.125	21892
882.252	22040
882.378	21850
882.505	21991
882.631	21804
882.757	21675
882.883	21705
883.01	21656
883.136	21625
883.262	21545
883.388	21469
883.514	21698
883.64	21561
883.766	21583
883.892	21496
884.018	21477
884.143	21583
884.269	21812
884.395	21355
884.52	21340
884.646	21287
884.772	21325
884.897	21211
885.023	21367
885.148	21374
885.274	21496
885.399	21367
885.524	21233
885.65	21351
885.775	21378
885.9	21237
886.025	21435
886.15	21332
886.275	21279
886.4	21214
886.525	21214
886.65	21203
886.775	21260
886.9	21466
887.025	21447
887.149	21283
887.274	21017
887.399	21001
887.523	21085
887.648	21055
887.773	20948
887.897	21096
888.021	21104
888.146	20960
888.27	21096
888.395	21176
888.519	21005
888.643	21013
888.767	21138
888.891	20975
889.015	20785
889.139	20944
889.263	20925
889.387	20963
889.511	21058
889.635	20986
889.759	20853
889.883	20819
890.006	20830
890.13	21001
890.254	20823
890.377	20765
890.501	20625
890.624	20556
890.748	20727
890.871	20602
890.995	20400
891.118	20286
891.241	20374
891.364	20431
891.488	20556
891.611	20423
891.734	20412
891.857	20484
891.98	20400
892.103	20347
892.226	20423
892.349	20377
892.471	20161
892.594	20263
892.717	20385
892.839	20419
892.962	20347
893.085	20389
893.207	20389
893.33	20149
893.452	20278
893.575	20400
893.697	20256
893.819	20427
893.941	20499
894.064	20404
894.186	20320
894.308	20271
894.43	20339
894.552	20419
894.674	20362
894.796	20240
894.918	20298
895.04	20233
895.161	20290
895.283	20252
895.405	20183
895.526	20294
895.648	20328
895.769	20393
895.891	20290
896.012	20343
896.134	20374
896.255	20301
896.376	20206
896.498	20210
896.619	20309
896.74	20351
896.861	20431
896.982	20579
897.103	20788
897.224	20644
897.345	20370
897.466	20431
897.587	20560
897.708	20621
897.828	20568
897.949	20366
898.07	20343
898.19	20374
898.311	20571
898.431	20488
898.552	20564
898.672	20530
898.792	20636
898.913	20499
899.033	20366
899.153	20381
899.273	20199
899.393	20282
899.513	20267
899.633	20275
899.753	20317
899.873	20210
899.993	20248
900.113	20191
900.232	20191
900.352	20202
900.472	20050
900.591	19982
900.711	20016
900.83	20084
900.95	20119
901.069	20134
901.189	19784
901.308	19655
901.427	19575
901.546	19791
901.665	19578
901.784	19605
901.904	19426
902.023	19392
902.141	19270
902.26	19126
902.379	19209
902.498	19126
902.617	19084
902.735	19103
902.854	19019
902.973	19072
903.091	18802
903.21	18772
903.328	18741
903.446	18795
903.565	18661
903.683	18582
903.801	18547
903.919	18593
904.038	18506
904.156	18407
904.274	18471
904.392	18353
904.51	18228
904.627	18380
904.745	18365
904.863	18395
904.981	18136
905.098	18095
905.216	18095
905.334	18095
905.451	18076
905.569	18007
905.686	18041
905.803	18060
905.921	17847
906.038	17912
906.155	17999
906.272	17672
906.389	17767
906.506	17619
906.623	17539
906.74	17600
906.857	17532
906.974	17566
907.091	17642
907.208	17627
907.324	17551
907.441	17433
907.557	17425
907.674	17322
907.79	17223
907.907	17239
908.023	17296
908.139	17334
908.256	17284
908.372	17124
908.488	17086
908.604	17060
908.72	16972
908.836	17067
908.952	16980
909.068	16942
909.184	17128
909.3	17025
909.415	17029
909.531	17003
909.647	16729
909.762	16691
909.878	16679
909.993	16603
910.108	16641
910.224	16759
910.339	16691
910.454	16546
910.57	16493
910.685	16558
910.8	16752
910.915	16698
911.03	16542
911.145	16424
911.259	16325
911.374	16295
911.489	16268
911.604	16234
911.718	16078
911.833	16116
911.947	15918
912.062	15903
912.176	16044
912.291	16048
912.405	15972
912.519	16192
912.633	16261
912.748	16101
912.862	16059
912.976	15903
913.09	15823
913.204	15789
913.318	15857
913.431	15964
913.545	15953
913.659	16048
913.772	15709
913.886	15717
914	15652
914.113	15793
914.226	15682
914.34	15675
914.453	15523
914.566	15774
914.68	15564
914.793	15500
914.906	15302
915.019	15291
915.132	15268
915.245	15283
915.358	15252
915.47	15298
915.583	15241
915.696	15195
915.809	15363
915.921	15401
916.034	15146
916.146	15165
916.259	15146
916.371	15142
916.483	15203
916.595	15081
916.708	15165
916.82	15032
916.932	15081
917.044	15032
917.156	15017
917.268	14853
917.38	14963
917.491	14929
917.603	14887
917.715	15017
917.826	15017
917.938	14819
918.049	14727
918.161	14842
918.272	14891
918.384	15024
918.495	14891
918.606	14659
918.717	14632
918.828	14644
918.939	14697
919.05	14556
919.161	14644
919.272	14469
919.383	14461
919.494	14689
919.604	14880
919.715	14644
919.826	14579
919.936	14556
920.047	14621
920.157	14670
920.267	14788
920.378	14648
920.488	14644
920.598	14773
920.708	14902
920.818	14769
920.928	14689
921.038	14891
921.148	14785
921.258	14606
921.368	14415
921.477	14438
921.587	14278
921.697	14221
921.806	14370
921.916	14290
922.025	14043
922.134	13970
922.244	13989
922.353	13978
922.462	13803
922.571	13833
922.68	13613
922.789	13563
922.898	13643
923.007	13556
923.116	13616
923.224	13613
923.333	13677
923.442	13472
923.55	13476
923.659	13483
923.767	13552
923.876	13407
923.984	13521
924.092	13304
924.201	13339
924.309	13415
924.417	13407
924.525	13316
924.633	13285
924.741	14092
924.849	13072
924.956	13293
925.064	13107
925.172	13107
925.279	13072
925.387	13072
925.494	12993
925.602	13149
925.709	13072
925.816	12958
925.924	13069
926.031	12993
926.138	13019
926.245	13031
926.352	12867
926.459	13046
926.566	13023
926.673	12882
926.779	12791
926.886	12745
926.993	12593
927.099	12616
927.206	12582
927.312	12589
927.419	12662
927.525	12506
927.631	12608
927.737	12498
927.843	12509
927.95	12365
928.056	12407
928.162	12399
928.267	12540
928.373	13129
928.479	12467
928.585	12270
928.69	12308
928.796	12460
928.901	12319
929.007	12117
929.112	12277
929.218	12308
929.323	12186
929.428	12140
929.533	12270
929.638	12068
929.743	12053
929.848	12190
929.953	12068
930.058	11950
930.163	11805
930.267	11901
930.372	11988
930.477	11779
930.581	11977
930.685	11946
930.79	11688
930.894	11729
930.998	11741
931.103	11824
931.207	11474
931.311	11478
931.415	11330
931.519	11090
931.623	11136
