Data from test_V78500241_1042.txt Node
Date: Fri Mar 25 15:17:06 CST 2022
User: usil
Spectrometer: V785-0024
Trigger mode: 0
Integration Time (sec): 4.000000E-1
Scans to average: 1
Nonlinearity correction enabled: false
Boxcar width: 0
Storing dark spectrum: false
XAxis mode: Wavelengths
Number of Pixels in Spectrum: 1024
>>>>>Begin Spectral Data<<<<<
801.071	28249
801.214	28261
801.356	28162
801.499	27979
801.641	27804
801.783	27892
801.926	27892
802.068	27903
802.211	27804
802.353	27751
802.496	27637
802.638	27553
802.78	27542
802.923	27553
803.065	27405
803.208	27534
803.35	27515
803.492	27576
803.635	27637
803.777	27583
803.919	27728
804.061	28211
804.204	27770
804.346	27671
804.488	27717
804.63	27804
804.773	27743
804.915	27781
805.057	27926
805.199	27808
805.341	27994
805.483	27907
805.626	27937
805.768	27728
805.91	27850
806.052	27930
806.194	27770
806.336	28051
806.478	27869
806.62	27937
806.762	28059
806.904	28257
807.046	28519
807.188	28447
807.33	28417
807.472	28367
807.614	28291
807.756	28280
807.898	28268
808.04	28166
808.182	28207
808.324	28177
808.465	28276
808.607	28512
808.749	28432
808.891	28672
809.033	28645
809.174	28622
809.316	28634
809.458	28508
809.6	28459
809.741	28596
809.883	28702
810.025	28774
810.166	28828
810.308	28820
810.45	28767
810.591	28740
810.733	28721
810.875	28557
811.016	28577
811.158	28455
811.299	28668
811.441	28812
811.582	28835
811.724	28634
811.865	28432
812.007	28451
812.148	28557
812.29	28744
812.431	28721
812.573	29010
812.714	29003
812.855	29117
812.997	29197
813.138	29345
813.279	29254
813.421	29170
813.562	28999
813.703	29010
813.845	28850
813.986	28462
814.127	28371
814.268	28325
814.41	28447
814.551	28379
814.692	28299
814.833	28276
814.974	28401
815.115	28375
815.256	28204
815.397	28173
815.539	28162
815.68	28051
815.821	28116
815.962	28063
816.103	28051
816.244	28128
816.385	27838
816.526	27907
816.666	27728
816.807	27477
816.948	27698
817.089	27671
817.23	27720
817.371	27641
817.512	27564
817.653	27523
817.793	27473
817.934	27561
818.075	27652
818.216	27473
818.356	27511
818.497	27519
818.638	27313
818.778	27283
818.919	27294
819.06	27496
819.2	27477
819.341	27568
819.481	27568
819.622	27789
819.762	27975
819.903	28086
820.043	27827
820.184	27747
820.324	27682
820.465	27793
820.605	27770
820.746	27690
820.886	27557
821.026	27606
821.167	27580
821.307	27709
821.447	27542
821.588	27542
821.728	27302
821.868	27203
822.008	27112
822.149	27058
822.289	26944
822.429	26781
822.569	26785
822.709	26735
822.849	26648
822.99	26537
823.13	26575
823.27	26568
823.41	26518
823.55	26320
823.69	26499
823.83	26389
823.97	26427
824.11	26282
824.25	26168
824.389	26351
824.529	26427
824.669	26229
824.809	26434
824.949	26263
825.089	26408
825.228	26343
825.368	26016
825.508	26153
825.648	26077
825.787	26210
825.927	26214
826.067	26107
826.206	26157
826.346	26183
826.485	26191
826.625	26153
826.765	26149
826.904	26214
827.044	25856
827.183	25970
827.323	25753
827.462	26035
827.601	25776
827.741	25738
827.88	25944
828.02	25807
828.159	25753
828.298	25852
828.437	25883
828.577	25795
828.716	25928
828.855	25719
828.994	25438
829.134	25624
829.273	25601
829.412	25677
829.551	25502
829.69	25540
829.829	25590
829.968	25620
830.107	25643
830.246	25605
830.385	25533
830.524	25495
830.663	25312
830.802	25225
830.941	25228
831.08	25270
831.219	25259
831.357	25396
831.496	25320
831.635	25091
831.774	25088
831.913	25107
832.051	25046
832.19	24935
832.329	25129
832.467	25053
832.606	24795
832.744	24859
832.883	24856
833.022	24829
833.16	25015
833.299	24966
833.437	25069
833.576	24928
833.714	24981
833.852	24977
833.991	24989
834.129	25034
834.267	25004
834.406	25034
834.544	24932
834.682	24817
834.821	24916
834.959	25133
835.097	24897
835.235	24954
835.373	25019
835.511	24989
835.65	24779
835.788	24875
835.926	24764
836.064	24642
836.202	24608
836.34	24848
836.478	24871
836.615	24852
836.753	24837
836.891	24806
837.029	24806
837.167	24730
837.305	24616
837.443	24544
837.58	24608
837.718	24726
837.856	24608
837.993	24441
838.131	24460
838.269	24407
838.406	24479
838.544	24448
838.681	24365
838.819	24213
838.956	24140
839.094	24045
839.231	24098
839.369	24216
839.506	24471
839.643	24205
839.781	24095
839.918	23954
840.055	24163
840.193	24060
840.33	24091
840.467	24034
840.604	24026
840.742	24319
840.879	23920
841.016	23885
841.153	23805
841.29	24079
841.427	23946
841.564	24011
841.701	23821
841.838	23939
841.975	23901
842.112	23805
842.249	23703
842.385	23813
842.522	23961
842.659	23798
842.796	23722
842.933	23707
843.069	23726
843.206	23748
843.343	23745
843.479	23665
843.616	23699
843.752	23657
843.889	23490
844.025	23676
844.162	23463
844.298	23646
844.435	23471
844.571	23528
844.708	23520
844.844	23710
844.98	23627
845.117	23630
845.253	23512
845.389	23341
845.525	23383
845.661	23387
845.798	23269
845.934	23318
846.07	23223
846.206	23261
846.342	23448
846.478	23311
846.614	22980
846.75	23056
846.886	22984
847.022	23052
847.158	23052
847.294	23010
847.429	23064
847.565	23052
847.701	23128
847.837	22733
847.972	22710
848.108	22828
848.244	22869
848.379	22607
848.515	22557
848.65	22405
848.786	22645
848.921	22675
849.057	22801
849.192	22531
849.328	22721
849.463	22637
849.598	22516
849.734	22538
849.869	22497
850.004	22276
850.14	22413
850.275	22246
850.41	22272
850.545	22310
850.68	22322
850.815	22268
850.95	22322
851.085	22596
851.22	22413
851.355	22299
851.49	22257
851.625	22367
851.76	22348
851.895	22204
852.03	22219
852.165	22367
852.299	22352
852.434	22363
852.569	22257
852.703	22352
852.838	22329
852.973	22569
853.107	22390
853.242	22249
853.376	22234
853.511	22090
853.645	22207
853.78	22284
853.914	22246
854.048	22063
854.183	22078
854.317	22249
854.451	22424
854.585	22226
854.72	22109
854.854	22310
854.988	22090
855.122	22188
855.256	22029
855.39	22055
855.524	22166
855.658	22287
855.792	22139
855.926	22090
856.06	22261
856.194	22230
856.327	22074
856.461	22059
856.595	22036
856.729	22143
856.862	22219
856.996	22169
857.13	22287
857.263	22147
857.397	22173
857.53	22109
857.664	22192
857.797	22207
857.931	22341
858.064	22188
858.197	22268
858.331	22082
858.464	22032
858.597	21945
858.731	22162
858.864	22051
858.997	21987
859.13	22150
859.263	22055
859.396	22257
859.529	22162
859.662	22131
859.795	22147
859.928	22173
860.061	22333
860.194	22272
860.327	22242
860.46	22211
860.592	22261
860.725	22390
860.858	22257
860.99	22185
861.123	22074
861.256	22067
861.388	22246
861.521	22911
861.653	21983
861.786	21945
861.918	21907
862.05	22097
862.183	22002
862.315	22021
862.447	22135
862.58	22036
862.712	21827
862.844	21808
862.976	22040
863.108	21880
863.24	22402
863.372	21736
863.504	21778
863.636	21793
863.768	21915
863.9	21945
864.032	21720
864.164	21861
864.296	21945
864.428	21869
864.559	21899
864.691	21865
864.823	21846
864.954	21785
865.086	21838
865.217	21682
865.349	21728
865.48	21755
865.612	21698
865.743	21873
865.875	21804
866.006	21797
866.137	21762
866.269	21743
866.4	21778
866.531	21671
866.662	21614
866.793	21656
866.924	21618
867.055	21644
867.186	21599
867.317	21530
867.448	21568
867.579	21648
867.71	21572
867.841	21564
867.972	21694
868.103	21618
868.233	21648
868.364	21675
868.495	21755
868.625	21903
868.756	21926
868.886	21766
869.017	22032
869.147	22109
869.278	21964
869.408	21968
869.539	21895
869.669	21968
869.799	22059
869.929	22143
870.06	21991
870.19	22246
870.32	22242
870.45	22169
870.58	22280
870.71	22337
870.84	22375
870.97	22344
871.1	22284
871.23	22424
871.36	22554
871.489	22337
871.619	22413
871.749	22462
871.879	22721
872.008	22561
872.138	22508
872.267	22500
872.397	22440
872.526	22348
872.656	22341
872.785	22318
872.915	22485
873.044	22512
873.173	22542
873.303	22588
873.432	22462
873.561	22691
873.69	22592
873.819	22443
873.948	22615
874.077	22455
874.206	22371
874.335	22481
874.464	22599
874.593	22793
874.722	22611
874.851	22801
874.979	22691
875.108	22797
875.237	22653
875.365	22713
875.494	22656
875.623	22854
875.751	22828
875.88	22835
876.008	22873
876.136	22889
876.265	23090
876.393	23223
876.521	23121
876.65	23048
876.778	23124
876.906	22999
877.034	23147
877.162	23037
877.29	23022
877.418	23124
877.546	23094
877.674	23056
877.802	23140
877.93	23067
878.058	23052
878.185	23029
878.313	22965
878.441	22999
878.568	22835
878.696	23006
878.824	23067
878.951	23094
879.079	23326
879.206	23433
879.333	23231
879.461	23109
879.588	23258
879.715	23105
879.842	23326
879.97	23056
880.097	23025
880.224	22949
880.351	22862
880.478	22862
880.605	22938
880.732	22873
880.859	23193
880.986	22873
881.112	22957
881.239	22763
881.366	22584
881.493	22516
881.619	22447
881.746	22432
881.872	22443
881.999	22440
882.125	22440
882.252	22478
882.378	22322
882.505	22440
882.631	22379
882.757	22105
882.883	22181
883.01	22116
883.136	22135
883.262	22067
883.388	21994
883.514	22025
883.64	22261
883.766	22143
883.892	21846
884.018	22036
884.143	22074
884.269	22074
884.395	21838
884.52	21701
884.646	21759
884.772	21663
884.897	21732
885.023	21793
885.148	21865
885.274	21956
885.399	21968
885.524	21793
885.65	21751
885.775	21736
885.9	21739
886.025	21800
886.15	21831
886.275	21774
886.4	21667
886.525	21698
886.65	21663
886.775	21675
886.9	21873
887.025	21937
887.149	21728
887.274	21553
887.399	21606
887.523	21469
887.648	21572
887.773	21420
887.897	21591
888.021	21534
888.146	21469
888.27	21690
888.395	21690
888.519	21500
888.643	21553
888.767	21641
888.891	21412
889.015	21393
889.139	21386
889.263	21332
889.387	21412
889.511	21599
889.635	21439
889.759	21256
889.883	21310
890.006	21260
890.13	21363
890.254	21264
890.377	21237
890.501	21135
890.624	20872
890.748	21184
890.871	21009
890.995	20842
891.118	20845
891.241	20944
891.364	20895
891.488	20918
891.611	20887
891.734	20918
891.857	21017
891.98	20826
892.103	20891
892.226	20796
892.349	20792
892.471	20758
892.594	20849
892.717	20746
892.839	20811
892.962	20823
893.085	20773
893.207	20845
893.33	20663
893.452	20571
893.575	20830
893.697	20838
893.819	20845
893.941	20933
894.064	20864
894.186	20769
894.308	20640
894.43	20906
894.552	20963
894.674	20800
894.796	20625
894.918	20792
895.04	20773
895.161	20773
895.283	20602
895.405	20754
895.526	20716
895.648	20712
895.769	20693
895.891	20743
896.012	20838
896.134	20689
896.255	20800
896.376	20674
896.498	20716
896.619	20762
896.74	20640
896.861	20769
896.982	21020
897.103	21275
897.224	21039
897.345	20891
897.466	20842
897.587	21009
897.708	21104
897.828	20944
897.949	20895
898.07	20902
898.19	20891
898.311	21043
898.431	20979
898.552	20883
898.672	21013
898.792	21104
898.913	20823
899.033	20925
899.153	20804
899.273	20678
899.393	20746
899.513	20674
899.633	20826
899.753	20659
899.873	20648
899.993	20785
900.113	20537
900.232	20602
900.352	20575
900.472	20514
900.591	20355
900.711	20488
900.83	20370
900.95	20549
901.069	20507
901.189	20336
901.308	20138
901.427	20008
901.546	20115
901.665	20062
901.784	19982
901.904	19871
902.023	19776
902.141	19655
902.26	19567
902.379	19689
902.498	19483
902.617	19499
902.735	19502
902.854	19552
902.973	19434
903.091	19247
903.21	19148
903.328	19228
903.446	19183
903.565	18996
903.683	19069
903.801	18935
903.919	19012
904.038	18989
904.156	18798
904.274	18840
904.392	18700
904.51	18703
904.627	18734
904.745	18814
904.863	18722
904.981	18494
905.098	18445
905.216	18426
905.334	18479
905.451	18540
905.569	18464
905.686	18494
905.803	18384
905.921	18209
906.038	18289
906.155	18220
906.272	18319
906.389	18197
906.506	18057
906.623	17935
906.74	17920
906.857	17897
906.974	17901
907.091	18041
907.208	18098
907.324	17980
907.441	17939
907.557	17699
907.674	17733
907.79	17638
907.907	17672
908.023	17741
908.139	17748
908.256	17733
908.372	17619
908.488	17611
908.604	17467
908.72	17288
908.836	17376
908.952	17482
909.068	17421
909.184	17463
909.3	17452
909.415	17372
909.531	17356
909.647	17185
909.762	17166
909.878	17098
909.993	17060
910.108	17113
910.224	16976
910.339	17075
910.454	17025
910.57	16942
910.685	16934
910.8	17041
910.915	17033
911.03	16930
911.145	16710
911.259	16649
911.374	16774
911.489	16649
911.604	16588
911.718	16413
911.833	16489
911.947	16421
912.062	16219
912.176	16455
912.291	16348
912.405	16398
912.519	16542
912.633	16542
912.748	16470
912.862	16489
912.976	16333
913.09	16234
913.204	16139
913.318	16204
913.431	16379
913.545	16268
913.659	16348
913.772	16219
913.886	16177
914	16048
914.113	16078
914.226	16166
914.34	16139
914.453	15949
914.566	16048
914.68	15869
914.793	15922
914.906	15603
915.019	15667
915.132	15549
915.245	15690
915.358	15736
915.47	15614
915.583	15709
915.696	15637
915.809	15781
915.921	15800
916.034	15564
916.146	15564
916.259	15466
916.371	15610
916.483	15526
916.595	15469
916.708	15405
916.82	15500
916.932	15473
917.044	15428
917.156	15428
917.268	15370
917.38	15264
917.491	15272
917.603	15237
917.715	15408
917.826	15367
917.938	15268
918.049	15135
918.161	15233
918.272	15336
918.384	15367
918.495	15100
918.606	15077
918.717	14944
918.828	15020
918.939	15062
919.05	14986
919.161	15013
919.272	14781
919.383	14960
919.494	15036
919.604	15142
919.715	15043
919.826	14941
919.936	15032
920.047	15154
920.157	15055
920.267	15093
920.378	15005
920.488	14918
920.598	15036
920.708	15279
920.818	15074
920.928	15131
921.038	15275
921.148	15176
921.258	14960
921.368	14758
921.477	14781
921.587	14632
921.697	14556
921.806	14663
921.916	14590
922.025	14298
922.134	14351
922.244	14275
922.353	14366
922.462	14233
922.571	14168
922.68	13978
922.789	13963
922.898	13967
923.007	13860
923.116	14005
923.224	13902
923.333	13955
923.442	13776
923.55	13712
923.659	13769
923.767	13879
923.876	13757
923.984	13750
924.092	13689
924.201	13696
924.309	13693
924.417	13681
924.525	13616
924.633	13597
924.741	14564
924.849	13434
924.956	13540
925.064	13403
925.172	13289
925.279	13312
925.387	13411
925.494	13369
925.602	13487
925.709	13457
925.816	13293
925.924	13301
926.031	13392
926.138	13396
926.245	13350
926.352	13293
926.459	13324
926.566	13365
926.673	13259
926.779	13072
926.886	13133
926.993	12977
927.099	12951
927.206	12935
927.312	12939
927.419	12924
927.525	12821
927.631	12977
927.737	12783
927.843	12772
927.95	12635
928.056	12791
928.162	12791
928.267	12745
928.373	13198
928.479	12859
928.585	12566
928.69	12681
928.796	12711
928.901	12593
929.007	12437
929.112	12563
929.218	12517
929.323	12471
929.428	12395
929.533	12555
929.638	12456
929.743	12407
929.848	12391
929.953	12372
930.058	12251
930.163	12125
930.267	12144
930.372	12247
930.477	11992
930.581	12369
930.685	12167
930.79	12019
930.894	12194
930.998	11889
931.103	12030
931.207	11695
931.311	11703
931.415	11543
931.519	11387
931.623	11322
