Data from test_V78500241_323.txt Node
Date: Fri Mar 25 15:12:06 CST 2022
User: usil
Spectrometer: V785-0024
Trigger mode: 0
Integration Time (sec): 4.000000E-1
Scans to average: 1
Nonlinearity correction enabled: false
Boxcar width: 0
Storing dark spectrum: false
XAxis mode: Wavelengths
Number of Pixels in Spectrum: 1024
>>>>>Begin Spectral Data<<<<<
801.071	28010
801.214	27857
801.356	27701
801.499	27466
801.641	27389
801.783	27564
801.926	27298
802.068	27367
802.211	27336
802.353	27272
802.496	27188
802.638	27176
802.78	27017
802.923	27058
803.065	26990
803.208	27074
803.35	27154
803.492	27256
803.635	27116
803.777	27207
803.919	27325
804.061	27557
804.204	27226
804.346	27127
804.488	27100
804.63	27146
804.773	27005
804.915	27138
805.057	27252
805.199	27214
805.341	27321
805.483	27294
805.626	27336
805.768	27222
805.91	27188
806.052	27249
806.194	27237
806.336	27397
806.478	27351
806.62	27214
806.762	27481
806.904	27591
807.046	27759
807.188	27614
807.33	27717
807.472	27869
807.614	27622
807.756	27717
807.898	27633
808.04	27405
808.182	27545
808.324	27466
808.465	27530
808.607	27804
808.749	27808
808.891	27945
809.033	28074
809.174	27972
809.316	27949
809.458	27869
809.6	27838
809.741	27983
809.883	27945
810.025	28040
810.166	28166
810.308	28158
810.45	27994
810.591	28090
810.733	27861
810.875	27770
811.016	27789
811.158	27644
811.299	27922
811.441	27979
811.582	27960
811.724	27972
811.865	27736
812.007	27808
812.148	27914
812.29	27949
812.431	28055
812.573	28112
812.714	28253
812.855	28390
812.997	28459
813.138	28459
813.279	28622
813.421	28451
813.562	28265
813.703	28284
813.845	28029
813.986	27812
814.127	27603
814.268	27488
814.41	27526
814.551	27583
814.692	27542
814.833	27591
814.974	27485
815.115	27549
815.256	27363
815.397	27473
815.539	27313
815.68	27363
815.821	27173
815.962	27367
816.103	27237
816.244	27226
816.385	27184
816.526	27070
816.666	26975
816.807	26765
816.948	26982
817.089	26929
817.23	26792
817.371	26861
817.512	26830
817.653	26686
817.793	26674
817.934	26758
818.075	26651
818.216	26773
818.356	26689
818.497	26731
818.638	26427
818.778	26503
818.919	26526
819.06	26632
819.2	26693
819.341	26758
819.481	26670
819.622	26868
819.762	27001
819.903	26994
820.043	26979
820.184	26838
820.324	26754
820.465	26921
820.605	26853
820.746	26868
820.886	26754
821.026	26899
821.167	26861
821.307	26944
821.447	26670
821.588	26583
821.728	26602
821.868	26366
822.008	26164
822.149	26286
822.289	26145
822.429	25955
822.569	25913
822.709	25902
822.849	25731
822.99	25700
823.13	25578
823.27	25658
823.41	25438
823.55	25312
823.69	25487
823.83	25472
823.97	25468
824.11	25228
824.25	25320
824.389	25297
824.529	25339
824.669	25278
824.809	25518
824.949	25247
825.089	25384
825.228	25460
825.368	25065
825.508	25225
825.648	25129
825.787	25103
825.927	25145
826.067	25213
826.206	25137
826.346	25179
826.485	25156
826.625	25099
826.765	25099
826.904	25209
827.044	24894
827.183	24878
827.323	24856
827.462	24852
827.601	24856
827.741	24894
827.88	24935
828.02	24734
828.159	24700
828.298	24863
828.437	24928
828.577	24890
828.716	24992
828.855	24738
828.994	24722
829.134	24479
829.273	24601
829.412	24540
829.551	24551
829.69	24502
829.829	24616
829.968	24661
830.107	24589
830.246	24483
830.385	24471
830.524	24414
830.663	24388
830.802	24232
830.941	24228
831.08	24205
831.219	24163
831.357	24311
831.496	24361
831.635	24121
831.774	24057
831.913	24083
832.051	24076
832.19	23939
832.329	23977
832.467	24011
832.606	23752
832.744	23885
832.883	23802
833.022	23748
833.16	23920
833.299	23889
833.437	23828
833.576	23901
833.714	23882
833.852	23946
833.991	23950
834.129	23920
834.267	23942
834.406	24022
834.544	23965
834.682	23870
834.821	23980
834.959	23965
835.097	23836
835.235	23980
835.373	23942
835.511	23893
835.65	23832
835.788	23805
835.926	23520
836.064	23452
836.202	23672
836.34	23718
836.478	23733
836.615	23638
836.753	23779
836.891	23699
837.029	23687
837.167	23737
837.305	23554
837.443	23627
837.58	23562
837.718	23604
837.856	23630
837.993	23551
838.131	23646
838.269	23547
838.406	23490
838.544	23288
838.681	23170
838.819	23220
838.956	23075
839.094	23044
839.231	23060
839.369	23174
839.506	23414
839.643	23231
839.781	23060
839.918	22835
840.055	23155
840.193	23018
840.33	22900
840.467	22999
840.604	22927
840.742	23376
840.879	22850
841.016	22805
841.153	22835
841.29	23143
841.427	22908
841.564	23033
841.701	22930
841.838	22831
841.975	22892
842.112	22896
842.249	22687
842.385	22653
842.522	22877
842.659	22691
842.796	22634
842.933	22702
843.069	22729
843.206	22603
843.343	22763
843.479	22615
843.616	22721
843.752	22497
843.889	22421
844.025	22721
844.162	22417
844.298	22481
844.435	22451
844.571	22318
844.708	22470
844.844	22710
844.98	22554
845.117	22550
845.253	22398
845.389	22314
845.525	22280
845.661	22360
845.798	22150
845.934	22181
846.07	22185
846.206	22207
846.342	22265
846.478	22131
846.614	21941
846.75	21861
846.886	21778
847.022	22105
847.158	21899
847.294	21941
847.429	21987
847.565	21869
847.701	22097
847.837	21671
847.972	21519
848.108	21637
848.244	21755
848.379	21545
848.515	21587
848.65	21564
848.786	21473
848.921	21534
849.057	21671
849.192	21679
849.328	21545
849.463	21447
849.598	21545
849.734	21401
849.869	21359
850.004	21268
850.14	21252
850.275	21260
850.41	21165
850.545	21058
850.68	21165
850.815	21291
850.95	21268
851.085	21378
851.22	21264
851.355	21169
851.49	21188
851.625	21268
851.76	21100
851.895	21058
852.03	21051
852.165	21058
852.299	21264
852.434	21408
852.569	21317
852.703	21241
852.838	21344
852.973	21405
853.107	21351
853.242	21135
853.376	21161
853.511	20963
853.645	20960
853.78	21203
853.914	21051
854.048	20872
854.183	21058
854.317	21013
854.451	21173
854.585	21039
854.72	21009
854.854	21089
854.988	21001
855.122	20944
855.256	20902
855.39	21051
855.524	21188
855.658	21100
855.792	21051
855.926	21135
856.06	21096
856.194	21211
856.327	21085
856.461	21013
856.595	20963
856.729	21001
856.862	21116
856.996	21055
857.13	21093
857.263	21176
857.397	21226
857.53	21104
857.664	21077
857.797	21157
857.931	21214
858.064	21127
858.197	21192
858.331	21051
858.464	21062
858.597	20891
858.731	21081
858.864	20982
858.997	21043
859.13	20994
859.263	21009
859.396	21028
859.529	20914
859.662	21009
859.795	21119
859.928	21085
860.061	21138
860.194	21112
860.327	20998
860.46	21108
860.592	21131
860.725	21055
860.858	21283
860.99	21017
861.123	20956
861.256	20982
861.388	21028
861.521	21583
861.653	21020
861.786	20872
861.918	20925
862.05	20986
862.183	20986
862.315	21009
862.447	21058
862.58	21104
862.712	20750
862.844	20708
862.976	20910
863.108	20811
863.24	21230
863.372	20750
863.504	20777
863.636	20735
863.768	20857
863.9	20712
864.032	20632
864.164	20765
864.296	20712
864.428	20838
864.559	20857
864.691	20758
864.823	20727
864.954	20697
865.086	20716
865.217	20701
865.349	20602
865.48	20518
865.612	20644
865.743	20781
865.875	20663
866.006	20587
866.137	20602
866.269	20708
866.4	20693
866.531	20640
866.662	20587
866.793	20549
866.924	20663
867.055	20571
867.186	20545
867.317	20454
867.448	20560
867.579	20465
867.71	20427
867.841	20461
867.972	20651
868.103	20503
868.233	20583
868.364	20590
868.495	20686
868.625	20944
868.756	20853
868.886	20773
869.017	20720
869.147	20876
869.278	20849
869.408	20937
869.539	20746
869.669	20963
869.799	20857
869.929	20929
870.06	20826
870.19	21024
870.32	20944
870.45	21081
870.58	21325
870.71	21298
870.84	21294
870.97	21252
871.1	21298
871.23	21351
871.36	21526
871.489	21336
871.619	21374
871.749	21260
871.879	21348
872.008	21504
872.138	21348
872.267	21473
872.397	21275
872.526	21195
872.656	21169
872.785	21150
872.915	21382
873.044	21530
873.173	21477
873.303	21564
873.432	21515
873.561	21306
873.69	21504
873.819	21412
873.948	21420
874.077	21553
874.206	21473
874.335	21485
874.464	21507
874.593	21698
874.722	21637
874.851	21701
874.979	21743
875.108	21698
875.237	21705
875.365	21500
875.494	21633
875.623	21736
875.751	21701
875.88	21751
876.008	21739
876.136	21854
876.265	21964
876.393	22173
876.521	22253
876.65	21998
876.778	22067
876.906	21915
877.034	21934
877.162	21983
877.29	21934
877.418	22051
877.546	22059
877.674	22044
877.802	21956
877.93	22067
878.058	21991
878.185	21865
878.313	22048
878.441	22021
878.568	21850
878.696	21964
878.824	22013
878.951	22101
879.079	22162
879.206	22261
879.333	22131
879.461	21953
879.588	22272
879.715	22067
879.842	22360
879.97	21972
880.097	21797
880.224	21907
880.351	21827
880.478	21778
880.605	21732
880.732	21907
880.859	22188
880.986	21888
881.112	21964
881.239	21599
881.366	21523
881.493	21625
881.619	21424
881.746	21485
881.872	21469
881.999	21313
882.125	21355
882.252	21519
882.378	21405
882.505	21523
882.631	21317
882.757	21180
882.883	21279
883.01	21131
883.136	21077
883.262	20967
883.388	20933
883.514	21268
883.64	21066
883.766	21039
883.892	20792
884.018	20921
884.143	21176
884.269	21138
884.395	20842
884.52	20743
884.646	20754
884.772	20587
884.897	20743
885.023	20785
885.148	20895
885.274	20834
885.399	20902
885.524	20785
885.65	20804
885.775	20746
885.9	20697
886.025	20929
886.15	20754
886.275	20697
886.4	20674
886.525	20743
886.65	20621
886.775	20712
886.9	20815
887.025	20956
887.149	20887
887.274	20598
887.399	20461
887.523	20571
887.648	20499
887.773	20431
887.897	20621
888.021	20450
888.146	20442
888.27	20556
888.395	20705
888.519	20571
888.643	20606
888.767	20442
888.891	20541
889.015	20290
889.139	20328
889.263	20339
889.387	20389
889.511	20530
889.635	20427
889.759	20225
889.883	20271
890.006	20400
890.13	20328
890.254	20267
890.377	20305
890.501	20142
890.624	19974
890.748	20157
890.871	19951
890.995	19906
891.118	19795
891.241	19909
891.364	19906
891.488	19959
891.611	19875
891.734	19944
891.857	19913
891.98	19864
892.103	19967
892.226	19917
892.349	19799
892.471	19753
892.594	19830
892.717	19811
892.839	19757
892.962	19909
893.085	19898
893.207	19833
893.33	19715
893.452	19696
893.575	19845
893.697	19803
893.819	20005
893.941	20058
894.064	19928
894.186	19963
894.308	19742
894.43	19860
894.552	19944
894.674	19890
894.796	19841
894.918	19788
895.04	19791
895.161	19776
895.283	19940
895.405	19799
895.526	19894
895.648	19822
895.769	19761
895.891	19936
896.012	19856
896.134	19902
896.255	19830
896.376	19814
896.498	19799
896.619	19841
896.74	19967
896.861	19849
896.982	20172
897.103	20385
897.224	20142
897.345	20111
897.466	20008
897.587	20130
897.708	20164
897.828	20115
897.949	19955
898.07	19879
898.19	19925
898.311	20035
898.431	19978
898.552	19951
898.672	19936
898.792	20202
898.913	20103
899.033	19970
899.153	19883
899.273	19765
899.393	19807
899.513	19807
899.633	19715
899.753	19791
899.873	19723
899.993	19814
900.113	19742
900.232	19791
900.352	19750
900.472	19734
900.591	19575
900.711	19696
900.83	19491
900.95	19738
901.069	19772
901.189	19510
901.308	19251
901.427	19247
901.546	19038
901.665	19213
901.784	19168
901.904	19053
902.023	18985
902.141	18722
902.26	18798
902.379	18639
902.498	18677
902.617	18661
902.735	18817
902.854	18585
902.973	18563
903.091	18357
903.21	18304
903.328	18418
903.446	18319
903.565	18209
903.683	18064
903.801	18087
903.919	18197
904.038	18064
904.156	17920
904.274	17996
904.392	17916
904.51	17931
904.627	18026
904.745	18034
904.863	17901
904.981	17745
905.098	17608
905.216	17596
905.334	17646
905.451	17577
905.569	17512
905.686	17547
905.803	17570
905.921	17372
906.038	17577
906.155	17406
906.272	17315
906.389	17311
906.506	17200
906.623	17261
906.74	17136
906.857	16984
906.974	17079
907.091	17193
907.208	17220
907.324	17117
907.441	17003
907.557	16831
907.674	16873
907.79	16763
907.907	16790
908.023	16805
908.139	16877
908.256	16763
908.372	16683
908.488	16710
908.604	16573
908.72	16565
908.836	16565
908.952	16561
909.068	16554
909.184	16618
909.3	16459
909.415	16660
909.531	16504
909.647	16421
909.762	16265
909.878	16272
909.993	16329
910.108	16226
910.224	16230
910.339	16348
910.454	16188
910.57	16131
910.685	15998
910.8	16375
910.915	16257
911.03	16010
911.145	15899
911.259	15831
911.374	15850
911.489	15823
911.604	15804
911.718	15599
911.833	15656
911.947	15500
912.062	15466
912.176	15542
912.291	15534
912.405	15652
912.519	15816
912.633	15694
912.748	15587
912.862	15603
912.976	15458
913.09	15287
913.204	15431
913.318	15447
913.431	15511
913.545	15515
913.659	15492
913.772	15408
913.886	15275
914	15298
914.113	15367
914.226	15435
914.34	15283
914.453	15100
914.566	15359
914.68	15203
914.793	15081
914.906	14979
915.019	14819
915.132	14857
915.245	14914
915.358	14857
915.47	14872
915.583	14819
915.696	14929
915.809	14941
915.921	15032
916.034	14826
916.146	14720
916.259	14758
916.371	14777
916.483	14727
916.595	14830
916.708	14659
916.82	14693
916.932	14651
917.044	14686
917.156	14571
917.268	14659
917.38	14461
917.491	14495
917.603	14556
917.715	14541
917.826	14636
917.938	14381
918.049	14393
918.161	14457
918.272	14560
918.384	14545
918.495	14556
918.606	14313
918.717	14263
918.828	14313
918.939	14259
919.05	14183
919.161	14229
919.272	14058
919.383	14138
919.494	14328
919.604	14465
919.715	14218
919.826	14142
919.936	14233
920.047	14301
920.157	14168
920.267	14438
920.378	14290
920.488	14183
920.598	14343
920.708	14499
920.818	14286
920.928	14385
921.038	14537
921.148	14492
921.258	14256
921.368	14111
921.477	14100
921.587	13993
921.697	13913
921.806	14008
921.916	13811
922.025	13712
922.134	13601
922.244	13567
922.353	13620
922.462	13537
922.571	13400
922.68	13251
922.789	13225
922.898	13331
923.007	13217
923.116	13301
923.224	13209
923.333	13206
923.442	13118
923.55	13084
923.659	13247
923.767	13202
923.876	13069
923.984	13164
924.092	13038
924.201	13061
924.309	13061
924.417	13095
924.525	12905
924.633	12981
924.741	13624
924.849	12741
924.956	12867
925.064	12730
925.172	12635
925.279	12719
925.387	12734
925.494	12745
925.602	12802
925.709	12726
925.816	12578
925.924	12707
926.031	12821
926.138	12665
926.245	12700
926.352	12578
926.459	12722
926.566	12703
926.673	12597
926.779	12467
926.886	12422
926.993	12251
927.099	12292
927.206	12258
927.312	12258
927.419	12315
927.525	12296
927.631	12277
927.737	12186
927.843	12060
927.95	12007
928.056	12152
928.162	12083
928.267	12194
928.373	12787
928.479	12140
928.585	11958
928.69	12076
928.796	12022
928.901	11958
929.007	11802
929.112	11950
929.218	11901
929.323	11874
929.428	11783
929.533	11901
929.638	11802
929.743	11790
929.848	11897
929.953	11775
930.058	11695
930.163	11524
930.267	11554
930.372	11661
930.477	11471
930.581	11729
930.685	11570
930.79	11433
930.894	11471
930.998	11337
931.103	11493
931.207	11174
931.311	11071
931.415	11033
931.519	10752
931.623	10759
