Data from test_V78500241_205.txt Node
Date: Fri Mar 25 15:11:17 CST 2022
User: usil
Spectrometer: V785-0024
Trigger mode: 0
Integration Time (sec): 4.000000E-1
Scans to average: 1
Nonlinearity correction enabled: false
Boxcar width: 0
Storing dark spectrum: false
XAxis mode: Wavelengths
Number of Pixels in Spectrum: 1024
>>>>>Begin Spectral Data<<<<<
801.071	27937
801.214	27880
801.356	27709
801.499	27614
801.641	27389
801.783	27386
801.926	27481
802.068	27511
802.211	27454
802.353	27389
802.496	27279
802.638	27020
802.78	27138
802.923	27058
803.065	26956
803.208	27199
803.35	27100
803.492	27112
803.635	27275
803.777	27036
803.919	27161
804.061	27496
804.204	27264
804.346	27085
804.488	27066
804.63	27138
804.773	27112
804.915	27089
805.057	27218
805.199	27112
805.341	27287
805.483	27268
805.626	27157
805.768	27081
805.91	27157
806.052	27408
806.194	27214
806.336	27504
806.478	27233
806.62	27150
806.762	27382
806.904	27515
807.046	27774
807.188	27587
807.33	27652
807.472	27705
807.614	27504
807.756	27724
807.898	27530
808.04	27485
808.182	27496
808.324	27500
808.465	27538
808.607	27618
808.749	27800
808.891	27876
809.033	28021
809.174	27926
809.316	27743
809.458	27747
809.6	27736
809.741	27949
809.883	27926
810.025	28010
810.166	28025
810.308	28006
810.45	27903
810.591	27926
810.733	27812
810.875	27819
811.016	27671
811.158	27534
811.299	27819
811.441	27762
811.582	27808
811.724	27747
811.865	27690
812.007	27781
812.148	27717
812.29	27724
812.431	27907
812.573	27998
812.714	28192
812.855	28272
812.997	28375
813.138	28516
813.279	28375
813.421	28394
813.562	28097
813.703	28082
813.845	28029
813.986	27789
814.127	27625
814.268	27393
814.41	27401
814.551	27416
814.692	27462
814.833	27173
814.974	27306
815.115	27268
815.256	27146
815.397	27032
815.539	27226
815.68	27096
815.821	27146
815.962	27096
816.103	27275
816.244	27066
816.385	26948
816.526	26921
816.666	26697
816.807	26705
816.948	26670
817.089	26682
817.23	26674
817.371	26743
817.512	26689
817.653	26686
817.793	26518
817.934	26640
818.075	26606
818.216	26507
818.356	26518
818.497	26427
818.638	26381
818.778	26301
818.919	26271
819.06	26339
819.2	26446
819.341	26484
819.481	26438
819.622	26583
819.762	26864
819.903	26754
820.043	26648
820.184	26625
820.324	26693
820.465	26575
820.605	26640
820.746	26587
820.886	26453
821.026	26617
821.167	26492
821.307	26530
821.447	26526
821.588	26488
821.728	26457
821.868	26065
822.008	25951
822.149	25970
822.289	25860
822.429	25651
822.569	25616
822.709	25658
822.849	25396
822.99	25293
823.13	25331
823.27	25381
823.41	25187
823.55	25156
823.69	25187
823.83	25213
823.97	25118
824.11	25057
824.25	25065
824.389	25072
824.529	25004
824.669	25053
824.809	25141
824.949	25137
825.089	25179
825.228	25042
825.368	24806
825.508	25034
825.648	24863
825.787	24897
825.927	24882
826.067	24738
826.206	24890
826.346	24825
826.485	24844
826.625	24802
826.765	25053
826.904	24947
827.044	24635
827.183	24620
827.323	24544
827.462	24582
827.601	24490
827.741	24559
827.88	24582
828.02	24532
828.159	24479
828.298	24547
828.437	24494
828.577	24540
828.716	24616
828.855	24475
828.994	24171
829.134	24239
829.273	24330
829.412	24289
829.551	24163
829.69	24197
829.829	24194
829.968	24342
830.107	24365
830.246	24239
830.385	24079
830.524	24117
830.663	24015
830.802	23916
830.941	23805
831.08	23661
831.219	23885
831.357	23961
831.496	24064
831.635	23775
831.774	23703
831.913	23642
832.051	23649
832.19	23722
832.329	23585
832.467	23444
832.606	23452
832.744	23497
832.883	23444
833.022	23444
833.16	23482
833.299	23562
833.437	23531
833.576	23448
833.714	23642
833.852	23478
833.991	23680
834.129	23608
834.267	23623
834.406	23471
834.544	23547
834.682	23592
834.821	23543
834.959	23627
835.097	23448
835.235	23528
835.373	23410
835.511	23558
835.65	23258
835.788	23273
835.926	23330
836.064	23136
836.202	23265
836.34	23303
836.478	23425
836.615	23433
836.753	23334
836.891	23315
837.029	23261
837.167	23334
837.305	23239
837.443	23105
837.58	23239
837.718	23113
837.856	23277
837.993	23124
838.131	23151
838.269	23052
838.406	23033
838.544	22866
838.681	22736
838.819	22675
838.956	22637
839.094	22607
839.231	22763
839.369	22725
839.506	22942
839.643	22854
839.781	22626
839.918	22596
840.055	22527
840.193	22405
840.33	22493
840.467	22527
840.604	22573
840.742	22805
840.879	22379
841.016	22512
841.153	22421
841.29	22713
841.427	22428
841.564	22584
841.701	22394
841.838	22436
841.975	22367
842.112	22474
842.249	22379
842.385	22131
842.522	22451
842.659	22249
842.796	22295
842.933	22192
843.069	22135
843.206	22375
843.343	22253
843.479	22337
843.616	22299
843.752	22078
843.889	22010
844.025	22097
844.162	21972
844.298	22169
844.435	22169
844.571	21964
844.708	22090
844.844	22200
844.98	22112
845.117	22017
845.253	21949
845.389	21857
845.525	21876
845.661	21804
845.798	21713
845.934	21774
846.07	21762
846.206	21835
846.342	21800
846.478	21671
846.614	21481
846.75	21367
846.886	21435
847.022	21633
847.158	21428
847.294	21496
847.429	21405
847.565	21424
847.701	21652
847.837	21264
847.972	21123
848.108	21348
848.244	21241
848.379	21100
848.515	21036
848.65	21043
848.786	21119
848.921	21173
849.057	21154
849.192	21058
849.328	21077
849.463	21161
849.598	21150
849.734	20944
849.869	20944
850.004	20857
850.14	20826
850.275	20838
850.41	20667
850.545	20731
850.68	20754
850.815	20845
850.95	20735
851.085	20967
851.22	20807
851.355	20842
851.49	20743
851.625	20629
851.76	20781
851.895	20781
852.03	20670
852.165	20750
852.299	20701
852.434	20883
852.569	20864
852.703	20785
852.838	20891
852.973	20872
853.107	20807
853.242	20708
853.376	20590
853.511	20533
853.645	20579
853.78	20640
853.914	20640
854.048	20670
854.183	20545
854.317	20712
854.451	20807
854.585	20492
854.72	20518
854.854	20655
854.988	20473
855.122	20465
855.256	20423
855.39	20583
855.524	20629
855.658	20579
855.792	20606
855.926	20640
856.06	20625
856.194	20724
856.327	20617
856.461	20575
856.595	20552
856.729	20632
856.862	20697
856.996	20537
857.13	20606
857.263	20651
857.397	20712
857.53	20571
857.664	20476
857.797	20621
857.931	20724
858.064	20583
858.197	20648
858.331	20583
858.464	20522
858.597	20415
858.731	20583
858.864	20537
858.997	20427
859.13	20583
859.263	20564
859.396	20545
859.529	20522
859.662	20465
859.795	20442
859.928	20590
860.061	20579
860.194	20640
860.327	20564
860.46	20560
860.592	20655
860.725	20769
860.858	20697
860.99	20556
861.123	20503
861.256	20530
861.388	20549
861.521	21207
861.653	20419
861.786	20400
861.918	20412
862.05	20568
862.183	20571
862.315	20686
862.447	20632
862.58	20560
862.712	20370
862.844	20187
862.976	20370
863.108	20404
863.24	20727
863.372	20225
863.504	20343
863.636	20244
863.768	20218
863.9	20290
864.032	20145
864.164	20145
864.296	20259
864.428	20366
864.559	20336
864.691	20282
864.823	20248
864.954	20237
865.086	20202
865.217	20237
865.349	20084
865.48	20065
865.612	20172
865.743	20324
865.875	20168
866.006	20035
866.137	20126
866.269	20233
866.4	20206
866.531	20073
866.662	20096
866.793	20126
866.924	20058
867.055	20115
867.186	20027
867.317	20027
867.448	19997
867.579	20043
867.71	20046
867.841	19947
867.972	20130
868.103	20111
868.233	20065
868.364	20043
868.495	20183
868.625	20309
868.756	20431
868.886	20396
869.017	20370
869.147	20484
869.278	20442
869.408	20324
869.539	20332
869.669	20324
869.799	20461
869.929	20431
870.06	20423
870.19	20598
870.32	20598
870.45	20678
870.58	20819
870.71	20842
870.84	20872
870.97	20697
871.1	20819
871.23	20887
871.36	20914
871.489	20788
871.619	20781
871.749	20960
871.879	20967
872.008	20963
872.138	20910
872.267	20891
872.397	20800
872.526	20815
872.656	20849
872.785	20724
872.915	20883
873.044	21001
873.173	20921
873.303	20910
873.432	20937
873.561	21062
873.69	20982
873.819	21020
873.948	21039
874.077	20910
874.206	20834
874.335	20910
874.464	21203
874.593	21195
874.722	21123
874.851	21272
874.979	21184
875.108	21154
875.237	21024
875.365	21074
875.494	21176
875.623	21302
875.751	21112
875.88	21245
876.008	21344
876.136	21507
876.265	21599
876.393	21766
876.521	21682
876.65	21717
876.778	21587
876.906	21481
877.034	21534
877.162	21580
877.29	21485
877.418	21587
877.546	21644
877.674	21428
877.802	21545
877.93	21606
878.058	21595
878.185	21408
878.313	21416
878.441	21466
878.568	21469
878.696	21564
878.824	21450
878.951	21656
879.079	21660
879.206	21850
879.333	21751
879.461	21599
879.588	21644
879.715	21789
879.842	21808
879.97	21622
880.097	21435
880.224	21424
880.351	21431
880.478	21401
880.605	21424
880.732	21378
880.859	21663
880.986	21408
881.112	21466
881.239	21359
881.366	21116
881.493	21055
881.619	20963
881.746	21043
881.872	21024
881.999	20872
882.125	20804
882.252	21039
882.378	21066
882.505	21077
882.631	20864
882.757	20625
882.883	20769
883.01	20731
883.136	20682
883.262	20480
883.388	20613
883.514	20743
883.64	20701
883.766	20549
883.892	20568
884.018	20499
884.143	20720
884.269	20769
884.395	20381
884.52	20271
884.646	20320
884.772	20351
884.897	20244
885.023	20404
885.148	20492
885.274	20461
885.399	20480
885.524	20199
885.65	20332
885.775	20328
885.9	20366
886.025	20301
886.15	20400
886.275	20191
886.4	20240
886.525	20347
886.65	20263
886.775	20233
886.9	20476
887.025	20450
887.149	20336
887.274	20111
887.399	20111
887.523	20081
887.648	20054
887.773	20016
887.897	20240
888.021	20172
888.146	19986
888.27	20134
888.395	20122
888.519	20126
888.643	20126
888.767	20100
888.891	19917
889.015	19921
889.139	20008
889.263	19818
889.387	19871
889.511	20054
889.635	19928
889.759	19913
889.883	19940
890.006	19902
890.13	20005
890.254	19822
890.377	19822
890.501	19700
890.624	19616
890.748	19597
890.871	19597
890.995	19521
891.118	19449
891.241	19438
891.364	19525
891.488	19666
891.611	19460
891.734	19438
891.857	19499
891.98	19400
892.103	19578
892.226	19403
892.349	19388
892.471	19282
892.594	19422
892.717	19506
892.839	19304
892.962	19381
893.085	19415
893.207	19480
893.33	19274
893.452	19331
893.575	19339
893.697	19331
893.819	19540
893.941	19510
894.064	19445
894.186	19320
894.308	19259
894.43	19304
894.552	19487
894.674	19457
894.796	19316
894.918	19384
895.04	19373
895.161	19525
895.283	19396
895.405	19331
895.526	19384
895.648	19362
895.769	19441
895.891	19384
896.012	19453
896.134	19525
896.255	19354
896.376	19297
896.498	19453
896.619	19491
896.74	19514
896.861	19510
896.982	19795
897.103	19936
897.224	19814
897.345	19662
897.466	19609
897.587	19556
897.708	19791
897.828	19689
897.949	19639
898.07	19464
898.19	19582
898.311	19666
898.431	19567
898.552	19708
898.672	19837
898.792	19674
898.913	19727
899.033	19491
899.153	19339
899.273	19244
899.393	19270
899.513	19426
899.633	19369
899.753	19396
899.873	19266
899.993	19400
900.113	19346
900.232	19346
900.352	19312
900.472	19129
900.591	19091
900.711	19171
900.83	19046
900.95	19164
901.069	19228
901.189	19080
901.308	18878
901.427	18692
901.546	18852
901.665	18829
901.784	18711
901.904	18730
902.023	18566
902.141	18330
902.26	18334
902.379	18369
902.498	18308
902.617	18235
902.735	18220
902.854	18258
902.973	18110
903.091	17908
903.21	17935
903.328	17912
903.446	17752
903.565	17775
903.683	17741
903.801	17516
903.919	17760
904.038	17691
904.156	17543
904.274	17573
904.392	17490
904.51	17528
904.627	17543
904.745	17543
904.863	17478
904.981	17299
905.098	17174
905.216	17162
905.334	17193
905.451	17159
905.569	17200
905.686	17200
905.803	17239
905.921	17143
906.038	17045
906.155	17083
906.272	16889
906.389	16927
906.506	16831
906.623	16771
906.74	16748
906.857	16588
906.974	16660
907.091	16812
907.208	16664
907.324	16778
907.441	16596
907.557	16402
907.674	16386
907.79	16360
907.907	16447
908.023	16451
908.139	16436
908.256	16329
908.372	16310
908.488	16284
908.604	16128
908.72	16055
908.836	16071
908.952	16090
909.068	16226
909.184	16196
909.3	16150
909.415	16169
909.531	16082
909.647	15903
909.762	15755
909.878	15762
909.993	15854
910.108	15793
910.224	15759
910.339	15895
910.454	15778
910.57	15720
910.685	15614
910.8	15884
910.915	15774
911.03	15671
911.145	15488
911.259	15469
911.374	15424
911.489	15408
911.604	15268
911.718	15230
911.833	15279
911.947	15173
912.062	14918
912.176	15100
912.291	15150
912.405	15157
912.519	15363
912.633	15272
912.748	15184
912.862	15214
912.976	15036
913.09	14941
913.204	14960
913.318	15013
913.431	15081
913.545	15131
913.659	15074
913.772	14975
913.886	14929
914	14826
914.113	14880
914.226	14933
914.34	14925
914.453	14617
914.566	14864
914.68	14739
914.793	14663
914.906	14522
915.019	14476
915.132	14419
915.245	14476
915.358	14499
915.47	14457
915.583	14415
915.696	14423
915.809	14594
915.921	14617
916.034	14415
916.146	14290
916.259	14347
916.371	14412
916.483	14442
916.595	14278
916.708	14301
916.82	14256
916.932	14218
917.044	14221
917.156	14267
917.268	14202
917.38	14172
917.491	14092
917.603	14168
917.715	14168
917.826	14229
917.938	14134
918.049	13951
918.161	14126
918.272	14271
918.384	14130
918.495	14092
918.606	13864
918.717	13818
918.828	13921
918.939	13864
919.05	13830
919.161	13925
919.272	13708
919.383	13799
919.494	13871
919.604	14138
919.715	13837
919.826	13784
919.936	13719
920.047	13913
920.157	13852
920.267	14077
920.378	13837
920.488	13746
920.598	14043
920.708	14172
920.818	14035
920.928	13890
921.038	14081
921.148	14092
921.258	13822
921.368	13655
921.477	13658
921.587	13552
921.697	13445
921.806	13487
921.916	13407
922.025	13274
922.134	13221
922.244	13255
922.353	13232
922.462	13213
922.571	13072
922.68	12825
922.789	12970
922.898	12871
923.007	12715
923.116	12920
923.224	12798
923.333	12795
923.442	12707
923.55	12791
923.659	12707
923.767	12696
923.876	12688
923.984	12688
924.092	12631
924.201	12700
924.309	12616
924.417	12696
924.525	12528
924.633	12627
924.741	13308
924.849	12372
924.956	12460
925.064	12327
925.172	12323
925.279	12319
925.387	12342
925.494	12399
925.602	12479
925.709	12315
925.816	12232
925.924	12391
926.031	12391
926.138	12251
926.245	12350
926.352	12201
926.459	12304
926.566	12258
926.673	12228
926.779	12034
926.886	12072
926.993	11935
927.099	11885
927.206	11942
927.312	11813
927.419	11942
927.525	11927
927.631	11939
927.737	11798
927.843	11783
927.95	11710
928.056	11623
928.162	11843
928.267	11824
928.373	12350
928.479	11821
928.585	11539
928.69	11600
928.796	11714
928.901	11634
929.007	11463
929.112	11558
929.218	11608
929.323	11490
929.428	11501
929.533	11520
929.638	11410
929.743	11486
929.848	11471
929.953	11398
930.058	11303
930.163	11216
930.267	11155
930.372	11303
930.477	11201
930.581	11383
930.685	11326
930.79	11022
930.894	11086
930.998	11025
931.103	11170
931.207	10816
931.311	10767
931.415	10675
931.519	10493
931.623	10405
