Data from test_V78500241_2703.txt Node
Date: Fri Mar 25 15:28:40 CST 2022
User: usil
Spectrometer: V785-0024
Trigger mode: 0
Integration Time (sec): 4.000000E-1
Scans to average: 1
Nonlinearity correction enabled: false
Boxcar width: 0
Storing dark spectrum: false
XAxis mode: Wavelengths
Number of Pixels in Spectrum: 1024
>>>>>Begin Spectral Data<<<<<
801.071	27058
801.214	27055
801.356	26834
801.499	26804
801.641	26507
801.783	26632
801.926	26606
802.068	26613
802.211	26552
802.353	26476
802.496	26286
802.638	26183
802.78	26324
802.923	26229
803.065	26244
803.208	26259
803.35	26339
803.492	26438
803.635	26309
803.777	26290
803.919	26503
804.061	26746
804.204	26457
804.346	26298
804.488	26183
804.63	26442
804.773	26427
804.915	26488
805.057	26427
805.199	26381
805.341	26473
805.483	26495
805.626	26431
805.768	26404
805.91	26476
806.052	26533
806.194	26446
806.336	26583
806.478	26480
806.62	26446
806.762	26590
806.904	26659
807.046	27009
807.188	27032
807.33	26929
807.472	26929
807.614	26792
807.756	27017
807.898	26693
808.04	26800
808.182	26739
808.324	26701
808.465	26781
808.607	26925
808.749	27089
808.891	27150
809.033	27317
809.174	27066
809.316	27055
809.458	26982
809.6	27169
809.741	27180
809.883	27294
810.025	27332
810.166	27481
810.308	27359
810.45	27393
810.591	27332
810.733	27043
810.875	27017
811.016	27043
811.158	27017
811.299	27055
811.441	27195
811.582	27188
811.724	27077
811.865	27108
812.007	27005
812.148	27085
812.29	27116
812.431	27230
812.573	27382
812.714	27519
812.855	27526
812.997	27625
813.138	27755
813.279	27766
813.421	27644
813.562	27492
813.703	27256
813.845	27348
813.986	27138
814.127	26937
814.268	26746
814.41	26750
814.551	26651
814.692	26796
814.833	26644
814.974	26621
815.115	26781
815.256	26564
815.397	26651
815.539	26621
815.68	26640
815.821	26518
815.962	26480
816.103	26545
816.244	26400
816.385	26187
816.526	26366
816.666	26145
816.807	26119
816.948	26122
817.089	26001
817.23	26005
817.371	25970
817.512	25909
817.653	26001
817.793	25883
817.934	26005
818.075	25993
818.216	25921
818.356	25887
818.497	25902
818.638	25666
818.778	25734
818.919	25704
819.06	25643
819.2	25959
819.341	25902
819.481	26050
819.622	26142
819.762	26275
819.903	26275
820.043	26317
820.184	26065
820.324	26058
820.465	26294
820.605	26073
820.746	26107
820.886	26035
821.026	25997
821.167	26084
821.307	26115
821.447	25963
821.588	25974
821.728	25696
821.868	25632
822.008	25586
822.149	25419
822.289	25491
822.429	25148
822.569	25156
822.709	25187
822.849	24973
822.99	25015
823.13	24981
823.27	24833
823.41	24821
823.55	24642
823.69	24848
823.83	24840
823.97	24661
824.11	24486
824.25	24471
824.389	24521
824.529	24806
824.669	24623
824.809	24764
824.949	24658
825.089	24703
825.228	24639
825.368	24376
825.508	24475
825.648	24403
825.787	24414
825.927	24604
826.067	24536
826.206	24547
826.346	24601
826.485	24414
826.625	24418
826.765	24642
826.904	24479
827.044	24235
827.183	24186
827.323	24228
827.462	24220
827.601	24167
827.741	24251
827.88	24148
828.02	23984
828.159	24068
828.298	24205
828.437	24155
828.577	24060
828.716	24228
828.855	23912
828.994	23969
829.134	23893
829.273	23893
829.412	23882
829.551	23859
829.69	23920
829.829	23893
829.968	24011
830.107	23961
830.246	23927
830.385	23733
830.524	23695
830.663	23745
830.802	23638
830.941	23547
831.08	23433
831.219	23615
831.357	23592
831.496	23779
831.635	23547
831.774	23433
831.913	23353
832.051	23246
832.19	23284
832.329	23284
832.467	23181
832.606	23151
832.744	23185
832.883	23155
833.022	23216
833.16	23079
833.299	23208
833.437	23227
833.576	23159
833.714	23124
833.852	23261
833.991	23299
834.129	23204
834.267	23322
834.406	23220
834.544	23212
834.682	23227
834.821	23326
834.959	23429
835.097	23193
835.235	23189
835.373	23170
835.511	23265
835.65	22999
835.788	23113
835.926	22942
836.064	23025
836.202	22866
836.34	23029
836.478	23189
836.615	22965
836.753	23086
836.891	23113
837.029	23064
837.167	23018
837.305	22995
837.443	23010
837.58	22866
837.718	22900
837.856	23006
837.993	22809
838.131	23060
838.269	22729
838.406	22797
838.544	22729
838.681	22542
838.819	22504
838.956	22599
839.094	22447
839.231	22573
839.369	22615
839.506	22702
839.643	22634
839.781	22329
839.918	22394
840.055	22455
840.193	22341
840.33	22344
840.467	22402
840.604	22459
840.742	22755
840.879	22341
841.016	22249
841.153	22253
841.29	22523
841.427	22405
841.564	22409
841.701	22291
841.838	22253
841.975	22230
842.112	22432
842.249	22265
842.385	22188
842.522	22280
842.659	22181
842.796	22169
842.933	22147
843.069	22067
843.206	22097
843.343	22200
843.479	22154
843.616	22097
843.752	21835
843.889	21880
844.025	21994
844.162	21789
844.298	21907
844.435	21835
844.571	21907
844.708	21930
844.844	21930
844.98	22021
845.117	21918
845.253	21831
845.389	21778
845.525	21743
845.661	21717
845.798	21603
845.934	21671
846.07	21526
846.206	21564
846.342	21671
846.478	21576
846.614	21515
846.75	21405
846.886	21233
847.022	21462
847.158	21355
847.294	21447
847.429	21370
847.565	21397
847.701	21519
847.837	21176
847.972	21116
848.108	21138
848.244	21180
848.379	20971
848.515	20921
848.65	20891
848.786	21013
848.921	20967
849.057	20937
849.192	21036
849.328	21043
849.463	20914
849.598	20880
849.734	20864
849.869	20701
850.004	20621
850.14	20678
850.275	20735
850.41	20716
850.545	20640
850.68	20705
850.815	20701
850.95	20769
851.085	20796
851.22	20777
851.355	20754
851.49	20606
851.625	20670
851.76	20689
851.895	20644
852.03	20606
852.165	20613
852.299	20819
852.434	20720
852.569	20689
852.703	20773
852.838	20785
852.973	20902
853.107	20849
853.242	20670
853.376	20606
853.511	20461
853.645	20507
853.78	20693
853.914	20602
854.048	20358
854.183	20636
854.317	20552
854.451	20701
854.585	20571
854.72	20495
854.854	20640
854.988	20469
855.122	20492
855.256	20393
855.39	20583
855.524	20640
855.658	20552
855.792	20598
855.926	20533
856.06	20632
856.194	20560
856.327	20518
856.461	20473
856.595	20522
856.729	20476
856.862	20609
856.996	20613
857.13	20594
857.263	20602
857.397	20594
857.53	20511
857.664	20670
857.797	20564
857.931	20533
858.064	20492
858.197	20575
858.331	20583
858.464	20522
858.597	20434
858.731	20488
858.864	20385
858.997	20438
859.13	20503
859.263	20640
859.396	20682
859.529	20556
859.662	20579
859.795	20526
859.928	20606
860.061	20743
860.194	20670
860.327	20602
860.46	20514
860.592	20667
860.725	20727
860.858	20594
860.99	20587
861.123	20415
861.256	20408
861.388	20507
861.521	21104
861.653	20415
861.786	20385
861.918	20336
862.05	20434
862.183	20450
862.315	20476
862.447	20438
862.58	20568
862.712	20221
862.844	20005
862.976	20328
863.108	20377
863.24	20815
863.372	20161
863.504	20191
863.636	20176
863.768	20191
863.9	20210
864.032	20214
864.164	20229
864.296	20199
864.428	20358
864.559	20374
864.691	20358
864.823	20191
864.954	20191
865.086	20336
865.217	20183
865.349	20088
865.48	20103
865.612	20138
865.743	20339
865.875	20103
866.006	20088
866.137	20180
866.269	20164
866.4	20020
866.531	20130
866.662	20088
866.793	20081
866.924	20218
867.055	20142
867.186	20001
867.317	20035
867.448	20020
867.579	20149
867.71	19970
867.841	20027
867.972	20103
868.103	19978
868.233	20176
868.364	20054
868.495	20149
868.625	20248
868.756	20408
868.886	20298
869.017	20320
869.147	20389
869.278	20465
869.408	20377
869.539	20351
869.669	20587
869.799	20495
869.929	20541
870.06	20358
870.19	20678
870.32	20655
870.45	20667
870.58	20845
870.71	20819
870.84	20823
870.97	20819
871.1	20743
871.23	20925
871.36	20906
871.489	20845
871.619	20834
871.749	20849
871.879	21024
872.008	21005
872.138	20960
872.267	20929
872.397	20838
872.526	20868
872.656	20834
872.785	20781
872.915	20960
873.044	21043
873.173	21062
873.303	21043
873.432	21104
873.561	21055
873.69	20982
873.819	20861
873.948	21142
874.077	20925
874.206	20918
874.335	20967
874.464	21169
874.593	21199
874.722	21104
874.851	21226
874.979	21252
875.108	21264
875.237	21298
875.365	21096
875.494	21123
875.623	21203
875.751	21241
875.88	21214
876.008	21302
876.136	21332
876.265	21663
876.393	21819
876.521	21835
876.65	21762
876.778	21637
876.906	21466
877.034	21557
877.162	21641
877.29	21553
877.418	21561
877.546	21614
877.674	21603
877.802	21492
877.93	21603
878.058	21618
878.185	21450
878.313	21583
878.441	21576
878.568	21367
878.696	21523
878.824	21679
878.951	21656
879.079	21778
879.206	21819
879.333	21599
879.461	21553
879.588	21679
879.715	21717
879.842	21899
879.97	21736
880.097	21412
880.224	21336
880.351	21462
880.478	21329
880.605	21340
880.732	21359
880.859	21523
880.986	21378
881.112	21389
881.239	21230
881.366	21252
881.493	20982
881.619	20975
881.746	21047
881.872	20902
881.999	20952
882.125	20933
882.252	21013
882.378	20910
882.505	21108
882.631	20773
882.757	20842
882.883	20701
883.01	20682
883.136	20632
883.262	20583
883.388	20507
883.514	20644
883.64	20716
883.766	20598
883.892	20317
884.018	20492
884.143	20606
884.269	20579
884.395	20541
884.52	20210
884.646	20256
884.772	20317
884.897	20286
885.023	20381
885.148	20381
885.274	20423
885.399	20446
885.524	20358
885.65	20396
885.775	20298
885.9	20263
886.025	20385
886.15	20408
886.275	20237
886.4	20191
886.525	20301
886.65	20191
886.775	20199
886.9	20450
887.025	20511
887.149	20282
887.274	20130
887.399	20107
887.523	20176
887.648	20115
887.773	19936
887.897	20142
888.021	20244
888.146	20081
888.27	20187
888.395	20195
888.519	20122
888.643	20031
888.767	20084
888.891	19982
889.015	19871
889.139	19986
889.263	19894
889.387	19921
889.511	20050
889.635	20077
889.759	19807
889.883	19906
890.006	19982
890.13	19951
890.254	19845
890.377	19807
890.501	19715
890.624	19643
890.748	19742
890.871	19613
890.995	19358
891.118	19407
891.241	19502
891.364	19464
891.488	19613
891.611	19548
891.734	19575
891.857	19674
891.98	19464
892.103	19571
892.226	19518
892.349	19392
892.471	19308
892.594	19419
892.717	19468
892.839	19426
892.962	19381
893.085	19453
893.207	19426
893.33	19263
893.452	19373
893.575	19525
893.697	19411
893.819	19540
893.941	19700
894.064	19510
894.186	19441
894.308	19377
894.43	19457
894.552	19499
894.674	19491
894.796	19259
894.918	19373
895.04	19403
895.161	19476
895.283	19556
895.405	19453
895.526	19472
895.648	19236
895.769	19449
895.891	19403
896.012	19472
896.134	19362
896.255	19419
896.376	19228
896.498	19343
896.619	19518
896.74	19476
896.861	19499
896.982	19731
897.103	19845
897.224	19712
897.345	19582
897.466	19552
897.587	19632
897.708	19780
897.828	19658
897.949	19544
898.07	19480
898.19	19518
898.311	19746
898.431	19571
898.552	19556
898.672	19613
898.792	19655
898.913	19635
899.033	19468
899.153	19468
899.273	19365
899.393	19354
899.513	19502
899.633	19381
899.753	19502
899.873	19415
899.993	19289
900.113	19343
900.232	19282
900.352	19388
900.472	19278
900.591	19190
900.711	19179
900.83	19057
900.95	19312
901.069	19255
901.189	19247
901.308	18897
901.427	18772
901.546	18726
901.665	18779
901.784	18825
901.904	18509
902.023	18601
902.141	18403
902.26	18399
902.379	18372
902.498	18361
902.617	18391
902.735	18330
902.854	18361
902.973	18232
903.091	17961
903.21	17992
903.328	18022
903.446	17889
903.565	17843
903.683	17832
903.801	17828
903.919	17764
904.038	17771
904.156	17615
904.274	17729
904.392	17528
904.51	17566
904.627	17566
904.745	17676
904.863	17657
904.981	17433
905.098	17254
905.216	17204
905.334	17299
905.451	17296
905.569	17197
905.686	17235
905.803	17258
905.921	17029
906.038	17033
906.155	17056
906.272	16923
906.389	17067
906.506	16889
906.623	16896
906.74	16752
906.857	16694
906.974	16706
907.091	16885
907.208	16862
907.324	16812
907.441	16641
907.557	16550
907.674	16577
907.79	16470
907.907	16577
908.023	16516
908.139	16489
908.256	16470
908.372	16409
908.488	16417
908.604	16348
908.72	16295
908.836	16284
908.952	16169
909.068	16211
909.184	16284
909.3	16162
909.415	16344
909.531	16158
909.647	15960
909.762	16051
909.878	15918
909.993	15899
910.108	15835
910.224	15983
910.339	15987
910.454	15804
910.57	15800
910.685	15637
910.8	15953
910.915	15972
911.03	15861
911.145	15660
911.259	15496
911.374	15614
911.489	15572
911.604	15462
911.718	15363
911.833	15283
911.947	15306
912.062	15138
912.176	15321
912.291	15336
912.405	15351
912.519	15580
912.633	15622
912.748	15408
912.862	15207
912.976	15123
913.09	15051
913.204	15089
913.318	15169
913.431	15317
913.545	15203
913.659	15192
913.772	15138
913.886	15047
914	14872
914.113	14933
914.226	15104
914.34	14963
914.453	14777
914.566	14861
914.68	14876
914.793	14819
914.906	14629
915.019	14545
915.132	14587
915.245	14442
915.358	14606
915.47	14522
915.583	14568
915.696	14594
915.809	14667
915.921	14651
916.034	14473
916.146	14507
916.259	14431
916.371	14587
916.483	14526
916.595	14450
916.708	14377
916.82	14374
916.932	14381
917.044	14412
917.156	14328
917.268	14252
917.38	14286
917.491	14199
917.603	14313
917.715	14278
917.826	14298
917.938	14149
918.049	14103
918.161	14168
918.272	14332
918.384	14343
918.495	14145
918.606	14103
918.717	13940
918.828	14054
918.939	14062
919.05	13970
919.161	14035
919.272	13776
919.383	13826
919.494	13963
919.604	14237
919.715	14031
919.826	13871
919.936	14008
920.047	13997
920.157	14012
920.267	14180
920.378	13989
920.488	13959
920.598	14168
920.708	14278
920.818	14134
920.928	14084
921.038	14324
921.148	14256
921.258	13833
921.368	13841
921.477	13708
921.587	13734
921.697	13639
921.806	13674
921.916	13662
922.025	13419
922.134	13362
922.244	13392
922.353	13499
922.462	13350
922.571	13145
922.68	13065
922.789	13023
922.898	13004
923.007	12958
923.116	13114
923.224	13019
923.333	13095
923.442	12909
923.55	12806
923.659	12920
923.767	12958
923.876	12837
923.984	12882
924.092	12745
924.201	12776
924.309	12760
924.417	12795
924.525	12631
924.633	12650
924.741	13746
924.849	12460
924.956	12623
925.064	12597
925.172	12399
925.279	12498
925.387	12467
925.494	12521
925.602	12620
925.709	12540
925.816	12380
925.924	12365
926.031	12521
926.138	12403
926.245	12506
926.352	12311
926.459	12464
926.566	12540
926.673	12384
926.779	12327
926.886	12254
926.993	12140
927.099	12030
927.206	12034
927.312	11961
927.419	12038
927.525	12034
927.631	12125
927.737	11996
927.843	11908
927.95	11836
928.056	11950
928.162	11980
928.267	12011
928.373	12464
928.479	11946
928.585	11794
928.69	11901
928.796	11904
928.901	11847
929.007	11760
929.112	11710
929.218	11779
929.323	11623
929.428	11718
929.533	11737
929.638	11573
929.743	11661
929.848	11592
929.953	11570
930.058	11455
930.163	11356
930.267	11345
930.372	11425
930.477	11345
930.581	11562
930.685	11410
930.79	11261
930.894	11307
930.998	11197
931.103	11356
931.207	11037
931.311	10881
931.415	10782
931.519	10710
931.623	10603
