Data from test_V78500241_1207.txt Node
Date: Fri Mar 25 15:18:15 CST 2022
User: usil
Spectrometer: V785-0024
Trigger mode: 0
Integration Time (sec): 4.000000E-1
Scans to average: 1
Nonlinearity correction enabled: false
Boxcar width: 0
Storing dark spectrum: false
XAxis mode: Wavelengths
Number of Pixels in Spectrum: 1024
>>>>>Begin Spectral Data<<<<<
801.071	28257
801.214	28051
801.356	27949
801.499	27808
801.641	27808
801.783	27732
801.926	27781
802.068	27736
802.211	27644
802.353	27614
802.496	27458
802.638	27378
802.78	27469
802.923	27447
803.065	27222
803.208	27332
803.35	27431
803.492	27564
803.635	27595
803.777	27561
803.919	27774
804.061	27903
804.204	27736
804.346	27545
804.488	27595
804.63	27473
804.773	27644
804.915	27842
805.057	27812
805.199	27599
805.341	27755
805.483	27835
805.626	27660
805.768	27682
805.91	27755
806.052	27732
806.194	27671
806.336	27922
806.478	27793
806.62	27793
806.762	27823
806.904	28055
807.046	28234
807.188	28211
807.33	28082
807.472	28230
807.614	28036
807.756	28211
807.898	27949
808.04	28013
808.182	28059
808.324	28078
808.465	28093
808.607	28337
808.749	28459
808.891	28557
809.033	28596
809.174	28466
809.316	28523
809.458	28314
809.6	28223
809.741	28440
809.883	28660
810.025	28831
810.166	28569
810.308	28736
810.45	28782
810.591	28565
810.733	28519
810.875	28504
811.016	28348
811.158	28337
811.299	28470
811.441	28542
811.582	28535
811.724	28504
811.865	28363
812.007	28405
812.148	28382
812.29	28405
812.431	28561
812.573	28759
812.714	28987
812.855	28911
812.997	29044
813.138	29128
813.279	29155
813.421	29075
813.562	28900
813.703	28816
813.845	28664
813.986	28413
814.127	28249
814.268	28040
814.41	28116
814.551	27994
814.692	28341
814.833	28196
814.974	27975
815.115	28135
815.256	27983
815.397	28013
815.539	28124
815.68	27945
815.821	27781
815.962	28109
816.103	27838
816.244	27781
816.385	27774
816.526	27660
816.666	27660
816.807	27526
816.948	27644
817.089	27614
817.23	27561
817.371	27370
817.512	27488
817.653	27477
817.793	27351
817.934	27614
818.075	27568
818.216	27420
818.356	27378
818.497	27230
818.638	27100
818.778	27279
818.919	27112
819.06	27154
819.2	27408
819.341	27435
819.481	27351
819.622	27462
819.762	27720
819.903	27553
820.043	27530
820.184	27603
820.324	27481
820.465	27682
820.605	27576
820.746	27519
820.886	27469
821.026	27610
821.167	27614
821.307	27599
821.447	27427
821.588	27348
821.728	27310
821.868	27017
822.008	26887
822.149	26838
822.289	26872
822.429	26720
822.569	26663
822.709	26625
822.849	26370
822.99	26492
823.13	26298
823.27	26347
823.41	26294
823.55	26138
823.69	26233
823.83	26473
823.97	26294
824.11	26176
824.25	26126
824.389	26096
824.529	26229
824.669	26096
824.809	26233
824.949	26062
825.089	26187
825.228	26084
825.368	25841
825.508	25864
825.648	25974
825.787	25978
825.927	26046
826.067	25940
826.206	26012
826.346	26027
826.485	25986
826.625	25852
826.765	26043
826.904	25951
827.044	25837
827.183	25795
827.323	25746
827.462	25696
827.601	25902
827.741	25670
827.88	25757
828.02	25609
828.159	25628
828.298	25670
828.437	25715
828.577	25632
828.716	25727
828.855	25662
828.994	25343
829.134	25343
829.273	25426
829.412	25289
829.551	25316
829.69	25575
829.829	25628
829.968	25358
830.107	25483
830.246	25472
830.385	25301
830.524	25270
830.663	25217
830.802	25141
830.941	25107
831.08	25091
831.219	25099
831.357	25099
831.496	25190
831.635	25023
831.774	24924
831.913	24916
832.051	24696
832.19	24798
832.329	24738
832.467	24711
832.606	24589
832.744	24582
832.883	24669
833.022	24646
833.16	24665
833.299	24684
833.437	24684
833.576	24810
833.714	24848
833.852	24768
833.991	24734
834.129	24886
834.267	24878
834.406	24631
834.544	24745
834.682	24814
834.821	24669
834.959	24871
835.097	24722
835.235	24734
835.373	24741
835.511	24844
835.65	24593
835.788	24650
835.926	24479
836.064	24376
836.202	24528
836.34	24669
836.478	24722
836.615	24578
836.753	24635
836.891	24703
837.029	24631
837.167	24585
837.305	24563
837.443	24399
837.58	24410
837.718	24448
837.856	24559
837.993	24346
838.131	24391
838.269	24342
838.406	24266
838.544	24197
838.681	23885
838.819	23965
838.956	23927
839.094	23897
839.231	23961
839.369	24114
839.506	24338
839.643	24155
839.781	23817
839.918	23923
840.055	23904
840.193	23805
840.33	23775
840.467	23840
840.604	23809
840.742	24098
840.879	23748
841.016	23832
841.153	23611
841.29	23969
841.427	23832
841.564	23859
841.701	23863
841.838	23687
841.975	23718
842.112	23672
842.249	23615
842.385	23516
842.522	23779
842.659	23699
842.796	23539
842.933	23562
843.069	23577
843.206	23600
843.343	23570
843.479	23551
843.616	23474
843.752	23299
843.889	23478
844.025	23486
844.162	23406
844.298	23433
844.435	23376
844.571	23356
844.708	23383
844.844	23566
844.98	23444
845.117	23512
845.253	23269
845.389	23261
845.525	23185
845.661	23197
845.798	23018
845.934	23094
846.07	23029
846.206	23075
846.342	23269
846.478	23025
846.614	22862
846.75	22679
846.886	22706
847.022	22801
847.158	22873
847.294	22812
847.429	22733
847.565	22790
847.701	23044
847.837	22546
847.972	22504
848.108	22580
848.244	22573
848.379	22417
848.515	22337
848.65	22280
848.786	22413
848.921	22390
849.057	22519
849.192	22580
849.328	22394
849.463	22417
849.598	22386
849.734	22329
849.869	22276
850.004	22314
850.14	22162
850.275	22124
850.41	22120
850.545	22154
850.68	22177
850.815	22242
850.95	22166
851.085	22280
851.22	22337
851.355	22128
851.49	22162
851.625	22116
851.76	22162
851.895	22059
852.03	22036
852.165	22116
852.299	22093
852.434	22299
852.569	22242
852.703	22143
852.838	22093
852.973	22352
853.107	22150
853.242	22116
853.376	22036
853.511	21804
853.645	22109
853.78	22169
853.914	22105
854.048	21937
854.183	21987
854.317	22109
854.451	22261
854.585	22063
854.72	21892
854.854	21968
854.988	21960
855.122	21915
855.256	21903
855.39	21895
855.524	21949
855.658	21956
855.792	21972
855.926	21941
856.06	21895
856.194	22063
856.327	21991
856.461	21911
856.595	21827
856.729	21994
856.862	22166
856.996	21918
857.13	22051
857.263	22128
857.397	21972
857.53	21873
857.664	22040
857.797	22017
857.931	22101
858.064	22044
858.197	22097
858.331	21949
858.464	21838
858.597	21922
858.731	21861
858.864	21979
858.997	21994
859.13	21983
859.263	21880
859.396	22025
859.529	22010
859.662	21895
859.795	21930
859.928	21888
860.061	21964
860.194	22242
860.327	21941
860.46	22040
860.592	22086
860.725	22181
860.858	22154
860.99	21994
861.123	21937
861.256	21827
861.388	21922
861.521	22862
861.653	21747
861.786	21854
861.918	21854
862.05	21819
862.183	21861
862.315	21793
862.447	21884
862.58	21987
862.712	21671
862.844	21778
862.976	21766
863.108	21762
863.24	22139
863.372	21580
863.504	21739
863.636	21576
863.768	21751
863.9	21709
864.032	21576
864.164	21564
864.296	21717
864.428	21709
864.559	21603
864.691	21736
864.823	21663
864.954	21599
865.086	21652
865.217	21637
865.349	21466
865.48	21603
865.612	21583
865.743	21679
865.875	21610
866.006	21679
866.137	21637
866.269	21587
866.4	21515
866.531	21412
866.662	21420
866.793	21382
866.924	21496
867.055	21519
867.186	21523
867.317	21386
867.448	21488
867.579	21431
867.71	21359
867.841	21462
867.972	21538
868.103	21370
868.233	21519
868.364	21519
868.495	21633
868.625	21637
868.756	22017
868.886	21526
869.017	21755
869.147	21819
869.278	21892
869.408	21709
869.539	21789
869.669	21797
869.799	21709
869.929	21857
870.06	21915
870.19	22029
870.32	22063
870.45	22048
870.58	22120
870.71	22211
870.84	22215
870.97	22166
871.1	22158
871.23	22200
871.36	22356
871.489	22230
871.619	22329
871.749	22253
871.879	22291
872.008	22409
872.138	22276
872.267	22295
872.397	22181
872.526	22139
872.656	22207
872.785	22135
872.915	22390
873.044	22508
873.173	22421
873.303	22382
873.432	22402
873.561	22303
873.69	22257
873.819	22440
873.948	22314
874.077	22512
874.206	22333
874.335	22280
874.464	22382
874.593	22573
874.722	22470
874.851	22580
874.979	22538
875.108	22634
875.237	22538
875.365	22390
875.494	22531
875.623	22618
875.751	22485
875.88	22641
876.008	22516
876.136	22717
876.265	22858
876.393	22930
876.521	22957
876.65	22801
876.778	23041
876.906	22847
877.034	22721
877.162	22953
877.29	22847
877.418	22759
877.546	22858
877.674	22862
877.802	22987
877.93	22946
878.058	22854
878.185	22786
878.313	22835
878.441	22850
878.568	22763
878.696	22793
878.824	22900
878.951	22999
879.079	23041
879.206	23250
879.333	23041
879.461	22908
879.588	22915
879.715	23022
879.842	23056
879.97	22972
880.097	22713
880.224	22736
880.351	22656
880.478	22725
880.605	22790
880.732	22656
880.859	23014
880.986	22698
881.112	22672
881.239	22569
881.366	22413
881.493	22409
881.619	22382
881.746	22360
881.872	22318
881.999	22192
882.125	22150
882.252	22360
882.378	22185
882.505	22481
882.631	22105
882.757	21934
882.883	22154
883.01	22051
883.136	21941
883.262	21838
883.388	21873
883.514	22074
883.64	21956
883.766	21854
883.892	21648
884.018	21816
884.143	21922
884.269	21979
884.395	21561
884.52	21538
884.646	21781
884.772	21542
884.897	21477
885.023	21648
885.148	21675
885.274	21789
885.399	21701
885.524	21587
885.65	21717
885.775	21625
885.9	21469
886.025	21606
886.15	21682
886.275	21515
886.4	21469
886.525	21545
886.65	21530
886.775	21561
886.9	21766
887.025	21812
887.149	21633
887.274	21370
887.399	21336
887.523	21370
887.648	21523
887.773	21279
887.897	21553
888.021	21393
888.146	21545
888.27	21450
888.395	21458
888.519	21428
888.643	21344
888.767	21412
888.891	21355
889.015	21317
889.139	21207
889.263	21093
889.387	21344
889.511	21317
889.635	21214
889.759	21112
889.883	21051
890.006	21081
890.13	21203
890.254	21077
890.377	21096
890.501	20994
890.624	20807
890.748	20868
890.871	20880
890.995	20811
891.118	20606
891.241	20705
891.364	20861
891.488	20845
891.611	20765
891.734	20785
891.857	20769
891.98	20765
892.103	20853
892.226	20762
892.349	20693
892.471	20564
892.594	20750
892.717	20735
892.839	20587
892.962	20651
893.085	20777
893.207	20651
893.33	20469
893.452	20598
893.575	20708
893.697	20705
893.819	20819
893.941	20891
894.064	20800
894.186	20590
894.308	20564
894.43	20686
894.552	20785
894.674	20724
894.796	20640
894.918	20701
895.04	20598
895.161	20754
895.283	20533
895.405	20651
895.526	20667
895.648	20579
895.769	20640
895.891	20693
896.012	20689
896.134	20701
896.255	20701
896.376	20518
896.498	20765
896.619	20731
896.74	20682
896.861	20594
896.982	20994
897.103	21043
897.224	21001
897.345	20746
897.466	20815
897.587	20777
897.708	20941
897.828	20876
897.949	20773
898.07	20686
898.19	20758
898.311	20933
898.431	20792
898.552	20781
898.672	20891
898.792	20914
898.913	20914
899.033	20667
899.153	20587
899.273	20560
899.393	20674
899.513	20670
899.633	20492
899.753	20606
899.873	20511
899.993	20552
900.113	20492
900.232	20484
900.352	20419
900.472	20347
900.591	20282
900.711	20358
900.83	20324
900.95	20644
901.069	20454
901.189	20256
901.308	19974
901.427	19959
901.546	19849
901.665	19890
901.784	19978
901.904	19666
902.023	19746
902.141	19449
902.26	19518
902.379	19518
902.498	19320
902.617	19460
902.735	19510
902.854	19373
902.973	19381
903.091	19133
903.21	19095
903.328	19069
903.446	18996
903.565	18909
903.683	18878
903.801	18760
903.919	18886
904.038	18947
904.156	18688
904.274	18753
904.392	18635
904.51	18681
904.627	18555
904.745	18681
904.863	18745
904.981	18528
905.098	18334
905.216	18395
905.334	18315
905.451	18357
905.569	18258
905.686	18235
905.803	18338
905.921	18068
906.038	18220
906.155	18125
906.272	17977
906.389	18034
906.506	17904
906.623	17935
906.74	17904
906.857	17741
906.974	17703
907.091	17954
907.208	17954
907.324	17889
907.441	17752
907.557	17649
907.674	17493
907.79	17596
907.907	17467
908.023	17554
908.139	17649
908.256	17615
908.372	17417
908.488	17421
908.604	17303
908.72	17315
908.836	17345
908.952	17220
909.068	17387
909.184	17417
909.3	17322
909.415	17318
909.531	17250
909.647	16991
909.762	17170
909.878	17003
909.993	16987
910.108	17048
910.224	16995
910.339	16923
910.454	16873
910.57	16805
910.685	16607
910.8	16995
910.915	16968
911.03	16763
911.145	16668
911.259	16599
911.374	16687
911.489	16485
911.604	16436
911.718	16226
911.833	16398
911.947	16257
912.062	16147
912.176	16337
912.291	16306
912.405	16280
912.519	16558
912.633	16455
912.748	16272
912.862	16196
912.976	16131
913.09	15979
913.204	16067
913.318	16124
913.431	16249
913.545	16226
913.659	16360
913.772	16044
913.886	16025
914	15975
914.113	16093
914.226	16021
914.34	16017
914.453	15823
914.566	15934
914.68	15911
914.793	15831
914.906	15686
915.019	15606
915.132	15534
915.245	15473
915.358	15538
915.47	15405
915.583	15504
915.696	15485
915.809	15701
915.921	15663
916.034	15424
916.146	15351
916.259	15386
916.371	15485
916.483	15363
916.595	15378
916.708	15393
916.82	15359
916.932	15313
917.044	15275
917.156	15195
917.268	15100
917.38	15222
917.491	15214
917.603	15119
917.715	15135
917.826	15165
917.938	15116
918.049	15013
918.161	15150
918.272	15207
918.384	15127
918.495	15070
918.606	14982
918.717	14925
918.828	14914
918.939	14967
919.05	14887
919.161	14887
919.272	14716
919.383	14739
919.494	14906
919.604	15138
919.715	14872
919.826	14754
919.936	14864
920.047	14925
920.157	14857
920.267	15020
920.378	14849
920.488	14857
920.598	15013
920.708	15169
920.818	15013
920.928	14990
921.038	15165
921.148	15055
921.258	14750
921.368	14655
921.477	14606
921.587	14518
921.697	14530
921.806	14518
921.916	14385
922.025	14123
922.134	14248
922.244	14168
922.353	14221
922.462	14046
922.571	14039
922.68	13894
922.789	13837
922.898	13925
923.007	13776
923.116	13833
923.224	13856
923.333	13830
923.442	13647
923.55	13689
923.659	13681
923.767	13727
923.876	13670
923.984	13738
924.092	13639
924.201	13643
924.309	13559
924.417	13559
924.525	13518
924.633	13540
924.741	14237
924.849	13346
924.956	13422
925.064	13369
925.172	13240
925.279	13343
925.387	13259
925.494	13244
925.602	13339
925.709	13285
925.816	13137
925.924	13103
926.031	13274
926.138	13221
926.245	13217
926.352	13084
926.459	13228
926.566	13316
926.673	13194
926.779	13046
926.886	13034
926.993	12798
927.099	12848
927.206	12871
927.312	12867
927.419	12848
927.525	12787
927.631	12897
927.737	12639
927.843	12703
927.95	12555
928.056	12582
928.162	12646
928.267	12646
928.373	13225
928.479	12722
928.585	12479
928.69	12707
928.796	12578
928.901	12441
929.007	12399
929.112	12403
929.218	12483
929.323	12330
929.428	12346
929.533	12452
929.638	12266
929.743	12273
929.848	12388
929.953	12270
930.058	12209
930.163	12041
930.267	12022
930.372	12178
930.477	12026
930.581	12163
930.685	12045
930.79	11897
930.894	11893
930.998	11870
931.103	12019
931.207	11649
931.311	11619
931.415	11532
931.519	11204
931.623	11334
