Data from test_V78500241_2510.txt Node
Date: Fri Mar 25 15:27:20 CST 2022
User: usil
Spectrometer: V785-0024
Trigger mode: 0
Integration Time (sec): 4.000000E-1
Scans to average: 1
Nonlinearity correction enabled: false
Boxcar width: 0
Storing dark spectrum: false
XAxis mode: Wavelengths
Number of Pixels in Spectrum: 1024
>>>>>Begin Spectral Data<<<<<
801.071	27249
801.214	27093
801.356	26834
801.499	26788
801.641	26716
801.783	26663
801.926	26811
802.068	26663
802.211	26602
802.353	26495
802.496	26389
802.638	26305
802.78	26408
802.923	26294
803.065	26206
803.208	26298
803.35	26317
803.492	26617
803.635	26442
803.777	26355
803.919	26438
804.061	26785
804.204	26537
804.346	26469
804.488	26434
804.63	26404
804.773	26431
804.915	26469
805.057	26514
805.199	26427
805.341	26514
805.483	26617
805.626	26579
805.768	26480
805.91	26560
806.052	26636
806.194	26434
806.336	26720
806.478	26598
806.62	26514
806.762	26712
806.904	26921
807.046	27039
807.188	27036
807.33	26956
807.472	27036
807.614	26853
807.756	26845
807.898	26792
808.04	26693
808.182	26750
808.324	26819
808.465	26861
808.607	27096
808.749	27142
808.891	27150
809.033	27435
809.174	27249
809.316	27070
809.458	27211
809.6	27119
809.741	27283
809.883	27412
810.025	27382
810.166	27530
810.308	27443
810.45	27416
810.591	27317
810.733	27184
810.875	27173
811.016	27066
811.158	27020
811.299	27340
811.441	27378
811.582	27378
811.724	27241
811.865	27005
812.007	27138
812.148	27100
812.29	27192
812.431	27207
812.573	27378
812.714	27481
812.855	27549
812.997	27667
813.138	27892
813.279	27724
813.421	27690
813.562	27538
813.703	27408
813.845	27211
813.986	27123
814.127	26891
814.268	26826
814.41	26868
814.551	26899
814.692	26895
814.833	26750
814.974	26815
815.115	26708
815.256	26746
815.397	26537
815.539	26667
815.68	26571
815.821	26427
815.962	26560
816.103	26564
816.244	26381
816.385	26313
816.526	26370
816.666	26305
816.807	26039
816.948	26153
817.089	26122
817.23	26191
817.371	26054
817.512	25986
817.653	26024
817.793	26058
817.934	26050
818.075	26031
818.216	26142
818.356	26008
818.497	25947
818.638	25727
818.778	25624
818.919	25864
819.06	25986
819.2	25932
819.341	26054
819.481	26035
819.622	26176
819.762	26408
819.903	26320
820.043	26218
820.184	26157
820.324	26187
820.465	26199
820.605	26130
820.746	26088
820.886	25982
821.026	26149
821.167	25986
821.307	26233
821.447	26176
821.588	25989
821.728	25841
821.868	25799
822.008	25681
822.149	25597
822.289	25548
822.429	25320
822.569	25255
822.709	25168
822.849	24913
822.99	24989
823.13	25065
823.27	24901
823.41	24787
823.55	24817
823.69	24875
823.83	24924
823.97	24738
824.11	24608
824.25	24688
824.389	24608
824.529	24692
824.669	24601
824.809	24867
824.949	24802
825.089	24684
825.228	24661
825.368	24650
825.508	24521
825.648	24608
825.787	24532
825.927	24654
826.067	24498
826.206	24658
826.346	24639
826.485	24627
826.625	24464
826.765	24719
826.904	24505
827.044	24304
827.183	24285
827.323	24228
827.462	24334
827.601	24251
827.741	24197
827.88	24232
828.02	24159
828.159	24220
828.298	24273
828.437	24232
828.577	24285
828.716	24365
828.855	24171
828.994	24003
829.134	24030
829.273	23851
829.412	24049
829.551	23973
829.69	23855
829.829	23992
829.968	23923
830.107	24045
830.246	23946
830.385	23882
830.524	23843
830.663	23764
830.802	23722
830.941	23585
831.08	23551
831.219	23623
831.357	23646
831.496	23653
831.635	23570
831.774	23596
831.913	23535
832.051	23360
832.19	23292
832.329	23284
832.467	23284
832.606	23143
832.744	23090
832.883	23269
833.022	23193
833.16	23326
833.299	23292
833.437	23216
833.576	23391
833.714	23391
833.852	23425
833.991	23417
834.129	23436
834.267	23414
834.406	23379
834.544	23318
834.682	23387
834.821	23360
834.959	23318
835.097	23345
835.235	23330
835.373	23334
835.511	23299
835.65	23166
835.788	23174
835.926	23014
836.064	22854
836.202	23151
836.34	23197
836.478	23197
836.615	23174
836.753	23235
836.891	23242
837.029	23204
837.167	23113
837.305	22965
837.443	23003
837.58	23003
837.718	23044
837.856	23041
837.993	23006
838.131	23014
838.269	23014
838.406	23064
838.544	22725
838.681	22736
838.819	22702
838.956	22550
839.094	22466
839.231	22637
839.369	22755
839.506	22889
839.643	22687
839.781	22500
839.918	22504
840.055	22462
840.193	22382
840.33	22459
840.467	22424
840.604	22565
840.742	22740
840.879	22405
841.016	22303
841.153	22455
841.29	22398
841.427	22344
841.564	22421
841.701	22413
841.838	22371
841.975	22310
842.112	22493
842.249	22409
842.385	22284
842.522	22527
842.659	22314
842.796	22158
842.933	22261
843.069	22135
843.206	22086
843.343	22337
843.479	22211
843.616	22131
843.752	21899
843.889	21953
844.025	22147
844.162	21998
844.298	22063
844.435	21903
844.571	21945
844.708	22044
844.844	22059
844.98	21968
845.117	22124
845.253	21922
845.389	21854
845.525	21873
845.661	21876
845.798	21774
845.934	21793
846.07	21587
846.206	21736
846.342	21816
846.478	21690
846.614	21405
846.75	21275
846.886	21431
847.022	21454
847.158	21545
847.294	21523
847.429	21599
847.565	21367
847.701	21690
847.837	21214
847.972	21157
848.108	21291
848.244	21275
848.379	21127
848.515	20967
848.65	20937
848.786	20990
848.921	21100
849.057	21123
849.192	21131
849.328	21142
849.463	21066
849.598	21005
849.734	20944
849.869	20845
850.004	20777
850.14	20845
850.275	20823
850.41	20792
850.545	20891
850.68	20746
850.815	20830
850.95	20864
851.085	20941
851.22	20914
851.355	21017
851.49	20735
851.625	20819
851.76	20838
851.895	20693
852.03	20781
852.165	20899
852.299	20883
852.434	20944
852.569	20921
852.703	20906
852.838	20872
852.973	20941
853.107	20849
853.242	20758
853.376	20785
853.511	20461
853.645	20682
853.78	20746
853.914	20689
854.048	20492
854.183	20629
854.317	20735
854.451	20804
854.585	20484
854.72	20625
854.854	20716
854.988	20632
855.122	20655
855.256	20587
855.39	20651
855.524	20746
855.658	20648
855.792	20644
855.926	20758
856.06	20716
856.194	20705
856.327	20609
856.461	20549
856.595	20564
856.729	20625
856.862	20746
856.996	20537
857.13	20689
857.263	20716
857.397	20678
857.53	20598
857.664	20587
857.797	20712
857.931	20785
858.064	20602
858.197	20621
858.331	20590
858.464	20545
858.597	20533
858.731	20648
858.864	20522
858.997	20564
859.13	20625
859.263	20746
859.396	20609
859.529	20583
859.662	20640
859.795	20594
859.928	20689
860.061	20667
860.194	20910
860.327	20708
860.46	20522
860.592	20823
860.725	20769
860.858	20830
860.99	20609
861.123	20564
861.256	20545
861.388	20636
861.521	21222
861.653	20469
861.786	20385
861.918	20385
862.05	20590
862.183	20587
862.315	20689
862.447	20606
862.58	20636
862.712	20298
862.844	20370
862.976	20442
863.108	20549
863.24	20845
863.372	20229
863.504	20419
863.636	20313
863.768	20434
863.9	20381
864.032	20278
864.164	20408
864.296	20317
864.428	20492
864.559	20396
864.691	20473
864.823	20362
864.954	20351
865.086	20347
865.217	20351
865.349	20286
865.48	20237
865.612	20206
865.743	20454
865.875	20393
866.006	20176
866.137	20294
866.269	20282
866.4	20336
866.531	20206
866.662	20172
866.793	20214
866.924	20202
867.055	20218
867.186	20267
867.317	20225
867.448	20157
867.579	20062
867.71	20210
867.841	20191
867.972	20244
868.103	20214
868.233	20172
868.364	20278
868.495	20210
868.625	20434
868.756	20579
868.886	20400
869.017	20370
869.147	20503
869.278	20579
869.408	20396
869.539	20503
869.669	20705
869.799	20461
869.929	20526
870.06	20571
870.19	20746
870.32	20834
870.45	20956
870.58	20845
870.71	20902
870.84	21020
870.97	20807
871.1	20883
871.23	21017
871.36	21001
871.489	20891
871.619	20975
871.749	21135
871.879	21119
872.008	21123
872.138	21123
872.267	21028
872.397	20918
872.526	20948
872.656	20891
872.785	20944
872.915	21123
873.044	21055
873.173	21051
873.303	21058
873.432	21127
873.561	21188
873.69	21066
873.819	21096
873.948	21131
874.077	21112
874.206	21028
874.335	20979
874.464	21108
874.593	21298
874.722	21313
874.851	21310
874.979	21310
875.108	21519
875.237	21230
875.365	21096
875.494	21226
875.623	21473
875.751	21317
875.88	21351
876.008	21340
876.136	21450
876.265	21800
876.393	21812
876.521	21831
876.65	21743
876.778	21831
876.906	21557
877.034	21667
877.162	21633
877.29	21545
877.418	21694
877.546	21660
877.674	21682
877.802	21709
877.93	21652
878.058	21622
878.185	21557
878.313	21648
878.441	21614
878.568	21488
878.696	21545
878.824	21633
878.951	21804
879.079	21846
879.206	21892
879.333	21808
879.461	21694
879.588	21808
879.715	21854
879.842	21937
879.97	21797
880.097	21466
880.224	21629
880.351	21496
880.478	21519
880.605	21370
880.732	21545
880.859	21701
880.986	21477
881.112	21511
881.239	21317
881.366	21188
881.493	21203
881.619	21180
881.746	21089
881.872	21112
881.999	21005
882.125	21066
882.252	21081
882.378	21047
882.505	21237
882.631	21024
882.757	20785
882.883	20857
883.01	20773
883.136	20883
883.262	20682
883.388	20609
883.514	20876
883.64	20982
883.766	20701
883.892	20583
884.018	20701
884.143	20705
884.269	20834
884.395	20503
884.52	20400
884.646	20503
884.772	20370
884.897	20355
885.023	20355
885.148	20537
885.274	20629
885.399	20484
885.524	20541
885.65	20503
885.775	20533
885.9	20408
886.025	20511
886.15	20503
886.275	20408
886.4	20385
886.525	20412
886.65	20256
886.775	20351
886.9	20492
887.025	20674
887.149	20317
887.274	20347
887.399	20145
887.523	20244
887.648	20202
887.773	20157
887.897	20183
888.021	20122
888.146	20187
888.27	20240
888.395	20199
888.519	20298
888.643	20221
888.767	20233
888.891	20130
889.015	20039
889.139	19997
889.263	20168
889.387	20096
889.511	20145
889.635	20210
889.759	19978
889.883	19963
890.006	20050
890.13	20073
890.254	19921
890.377	19909
890.501	19822
890.624	19666
890.748	19902
890.871	19639
890.995	19597
891.118	19510
891.241	19502
891.364	19567
891.488	19723
891.611	19674
891.734	19620
891.857	19582
891.98	19556
892.103	19651
892.226	19540
892.349	19510
892.471	19430
892.594	19620
892.717	19559
892.839	19540
892.962	19552
893.085	19537
893.207	19483
893.33	19525
893.452	19415
893.575	19620
893.697	19491
893.819	19605
893.941	19772
894.064	19635
894.186	19491
894.308	19381
894.43	19658
894.552	19708
894.674	19651
894.796	19468
894.918	19544
895.04	19537
895.161	19689
895.283	19628
895.405	19457
895.526	19506
895.648	19449
895.769	19624
895.891	19460
896.012	19620
896.134	19575
896.255	19483
896.376	19518
896.498	19472
896.619	19613
896.74	19548
896.861	19518
896.982	19887
897.103	19970
897.224	19704
897.345	19765
897.466	19719
897.587	19689
897.708	19822
897.828	19704
897.949	19674
898.07	19613
898.19	19788
898.311	19849
898.431	19685
898.552	19822
898.672	19871
898.792	19788
898.913	19731
899.033	19681
899.153	19571
899.273	19571
899.393	19495
899.513	19559
899.633	19552
899.753	19441
899.873	19609
899.993	19525
900.113	19422
900.232	19514
900.352	19373
900.472	19369
900.591	19179
900.711	19358
900.83	19251
900.95	19369
901.069	19445
901.189	19148
901.308	18878
901.427	18905
901.546	18875
901.665	18913
901.784	18654
901.904	18776
902.023	18703
902.141	18525
902.26	18376
902.379	18422
902.498	18544
902.617	18410
902.735	18319
902.854	18426
902.973	18376
903.091	18083
903.21	18083
903.328	18064
903.446	17950
903.565	17950
903.683	17931
903.801	17817
903.919	17813
904.038	17813
904.156	17687
904.274	17729
904.392	17592
904.51	17611
904.627	17596
904.745	17630
904.863	17707
904.981	17505
905.098	17387
905.216	17364
905.334	17250
905.451	17353
905.569	17455
905.686	17410
905.803	17372
905.921	17166
906.038	17185
906.155	17162
906.272	17136
906.389	16995
906.506	16881
906.623	16934
906.74	16892
906.857	16748
906.974	16854
907.091	16999
907.208	16987
907.324	16809
907.441	16729
907.557	16672
907.674	16592
907.79	16580
907.907	16531
908.023	16717
908.139	16542
908.256	16622
908.372	16519
908.488	16466
908.604	16360
908.72	16257
908.836	16242
908.952	16344
909.068	16318
909.184	16322
909.3	16226
909.415	16352
909.531	16257
909.647	16101
909.762	16086
909.878	15991
909.993	16025
910.108	15975
910.224	15983
910.339	15884
910.454	15915
910.57	15850
910.685	15778
910.8	16032
910.915	16010
911.03	15793
911.145	15759
911.259	15599
911.374	15618
911.489	15641
911.604	15534
911.718	15454
911.833	15351
911.947	15378
912.062	15302
912.176	15443
912.291	15591
912.405	15580
912.519	15553
912.633	15561
912.748	15492
912.862	15363
912.976	15207
913.09	15036
913.204	15116
913.318	15237
913.431	15344
913.545	15321
913.659	15329
913.772	15188
913.886	15097
914	14979
914.113	15085
914.226	15066
914.34	15085
914.453	14925
914.566	15066
914.68	14944
914.793	14853
914.906	14739
915.019	14727
915.132	14610
915.245	14800
915.358	14739
915.47	14640
915.583	14632
915.696	14663
915.809	14708
915.921	14800
916.034	14579
916.146	14583
916.259	14530
916.371	14632
916.483	14579
916.595	14503
916.708	14552
916.82	14488
916.932	14450
917.044	14507
917.156	14328
917.268	14374
917.38	14389
917.491	14298
917.603	14328
917.715	14389
917.826	14347
917.938	14199
918.049	14096
918.161	14324
918.272	14518
918.384	14320
918.495	14298
918.606	14054
918.717	14016
918.828	14161
918.939	14077
919.05	14024
919.161	14077
919.272	13890
919.383	13925
919.494	14134
919.604	14180
919.715	14039
919.826	14035
919.936	14024
920.047	14058
920.157	14077
920.267	14233
920.378	13986
920.488	14016
920.598	14263
920.708	14305
920.818	14123
920.928	14206
921.038	14271
921.148	14282
921.258	14020
921.368	13936
921.477	13864
921.587	13784
921.697	13639
921.806	13833
921.916	13613
922.025	13590
922.134	13460
922.244	13415
922.353	13510
922.462	13274
922.571	13339
922.68	13133
922.789	13069
922.898	13095
923.007	13023
923.116	13042
923.224	12977
923.333	12993
923.442	12932
923.55	12962
923.659	13004
923.767	13084
923.876	12924
923.984	12962
924.092	12840
924.201	12848
924.309	12856
924.417	12837
924.525	12707
924.633	12829
924.741	13693
924.849	12517
924.956	12734
925.064	12536
925.172	12540
925.279	12513
925.387	12525
925.494	12547
925.602	12578
925.709	12536
925.816	12433
925.924	12452
926.031	12536
926.138	12445
926.245	12559
926.352	12395
926.459	12479
926.566	12585
926.673	12395
926.779	12296
926.886	12247
926.993	12182
927.099	12072
927.206	12102
927.312	12117
927.419	12098
927.525	12117
927.631	12129
927.737	12064
927.843	12095
927.95	11817
928.056	12003
928.162	11901
928.267	12015
928.373	12662
928.479	12019
928.585	11718
928.69	11885
928.796	11809
928.901	11847
929.007	11676
929.112	11779
929.218	11802
929.323	11680
929.428	11642
929.533	11821
929.638	11547
929.743	11653
929.848	11649
929.953	11680
930.058	11512
930.163	11379
930.267	11345
930.372	11581
930.477	11326
930.581	11520
930.685	11391
930.79	11258
930.894	11322
930.998	11216
931.103	11372
931.207	11071
931.311	10949
931.415	10828
931.519	10675
931.623	10596
