Data from test_V78500241_1607.txt Node
Date: Fri Mar 25 15:21:02 CST 2022
User: usil
Spectrometer: V785-0024
Trigger mode: 0
Integration Time (sec): 4.000000E-1
Scans to average: 1
Nonlinearity correction enabled: false
Boxcar width: 0
Storing dark spectrum: false
XAxis mode: Wavelengths
Number of Pixels in Spectrum: 1024
>>>>>Begin Spectral Data<<<<<
801.071	27656
801.214	27587
801.356	27427
801.499	27386
801.641	27119
801.783	27260
801.926	27252
802.068	27173
802.211	27058
802.353	27169
802.496	26906
802.638	26880
802.78	26883
802.923	26686
803.065	26739
803.208	26743
803.35	26842
803.492	26952
803.635	26963
803.777	26979
803.919	26975
804.061	27321
804.204	27131
804.346	26998
804.488	26975
804.63	27017
804.773	27024
804.915	26940
805.057	27188
805.199	26952
805.341	27199
805.483	27256
805.626	27184
805.768	26963
805.91	27119
806.052	27024
806.194	27138
806.336	27420
806.478	27135
806.62	27226
806.762	27241
806.904	27386
807.046	27660
807.188	27549
807.33	27507
807.472	27816
807.614	27542
807.756	27500
807.898	27420
808.04	27363
808.182	27420
808.324	27325
808.465	27485
808.607	27561
808.749	27861
808.891	27941
809.033	27945
809.174	27857
809.316	27755
809.458	27892
809.6	27751
809.741	27808
809.883	27975
810.025	28059
810.166	28101
810.308	28162
810.45	27987
810.591	28101
810.733	27774
810.875	27728
811.016	27545
811.158	27633
811.299	27865
811.441	27907
811.582	27964
811.724	27778
811.865	27709
812.007	27701
812.148	27816
812.29	27873
812.431	28006
812.573	28147
812.714	28219
812.855	28276
812.997	28276
813.138	28504
813.279	28417
813.421	28314
813.562	28310
813.703	28109
813.845	27907
813.986	27755
814.127	27542
814.268	27511
814.41	27401
814.551	27473
814.692	27610
814.833	27256
814.974	27545
815.115	27450
815.256	27211
815.397	27401
815.539	27325
815.68	27264
815.821	27222
815.962	27184
816.103	27226
816.244	27123
816.385	27100
816.526	27055
816.666	26823
816.807	26655
816.948	26849
817.089	26872
817.23	26861
817.371	26659
817.512	26739
817.653	26796
817.793	26689
817.934	26727
818.075	26777
818.216	26792
818.356	26609
818.497	26640
818.638	26438
818.778	26495
818.919	26461
819.06	26499
819.2	26689
819.341	26629
819.481	26644
819.622	26910
819.762	27093
819.903	26998
820.043	26910
820.184	26853
820.324	26857
820.465	27005
820.605	26921
820.746	26853
820.886	26693
821.026	26880
821.167	26811
821.307	26861
821.447	26792
821.588	26720
821.728	26488
821.868	26263
822.008	26286
822.149	26134
822.289	26122
822.429	25966
822.569	25906
822.709	25890
822.849	25708
822.99	25689
823.13	25594
823.27	25700
823.41	25502
823.55	25384
823.69	25518
823.83	25483
823.97	25468
824.11	25297
824.25	25362
824.389	25373
824.529	25339
824.669	25266
824.809	25335
824.949	25430
825.089	25495
825.228	25472
825.368	25206
825.508	25304
825.648	25198
825.787	25308
825.927	25168
826.067	25152
826.206	25164
826.346	25240
826.485	25156
826.625	25118
826.765	25384
826.904	25141
827.044	24954
827.183	25057
827.323	24985
827.462	24962
827.601	24962
827.741	24992
827.88	24981
828.02	24856
828.159	24928
828.298	24863
828.437	24909
828.577	24802
828.716	24985
828.855	24878
828.994	24597
829.134	24620
829.273	24639
829.412	24540
829.551	24623
829.69	24570
829.829	24681
829.968	24703
830.107	24544
830.246	24631
830.385	24547
830.524	24437
830.663	24418
830.802	24426
830.941	24361
831.08	24262
831.219	24213
831.357	24311
831.496	24505
831.635	24330
831.774	24194
831.913	24174
832.051	23999
832.19	23965
832.329	23980
832.467	23897
832.606	23824
832.744	23863
832.883	23920
833.022	23836
833.16	23931
833.299	23965
833.437	23847
833.576	23935
833.714	24026
833.852	23969
833.991	24049
834.129	23916
834.267	24049
834.406	23980
834.544	23992
834.682	23942
834.821	23882
834.959	24091
835.097	23870
835.235	23977
835.373	23874
835.511	23916
835.65	23927
835.788	23722
835.926	23745
836.064	23570
836.202	23729
836.34	23745
836.478	23863
836.615	23722
836.753	23813
836.891	23843
837.029	23680
837.167	23714
837.305	23600
837.443	23771
837.58	23501
837.718	23783
837.856	23611
837.993	23646
838.131	23657
838.269	23478
838.406	23539
838.544	23387
838.681	23330
838.819	23216
838.956	23086
839.094	23029
839.231	23204
839.369	23250
839.506	23566
839.643	23368
839.781	23117
839.918	22927
840.055	23132
840.193	23071
840.33	23018
840.467	23044
840.604	23162
840.742	23292
840.879	22915
841.016	23048
841.153	22984
841.29	23166
841.427	22930
841.564	23124
841.701	23022
841.838	22949
841.975	22809
842.112	22801
842.249	22793
842.385	22847
842.522	22976
842.659	22759
842.796	22748
842.933	22721
843.069	22672
843.206	22847
843.343	22877
843.479	22782
843.616	22797
843.752	22607
843.889	22554
844.025	22668
844.162	22615
844.298	22656
844.435	22557
844.571	22493
844.708	22580
844.844	22717
844.98	22687
845.117	22546
845.253	22360
845.389	22436
845.525	22481
845.661	22527
845.798	22333
845.934	22272
846.07	22314
846.206	22356
846.342	22459
846.478	22200
846.614	22158
846.75	22059
846.886	22006
847.022	22010
847.158	21975
847.294	22082
847.429	22044
847.565	22093
847.701	22291
847.837	21671
847.972	21739
848.108	21884
848.244	21736
848.379	21629
848.515	21686
848.65	21656
848.786	21637
848.921	21629
849.057	21671
849.192	21561
849.328	21660
849.463	21580
849.598	21656
849.734	21431
849.869	21473
850.004	21310
850.14	21378
850.275	21420
850.41	21279
850.545	21249
850.68	21367
850.815	21424
850.95	21431
851.085	21625
851.22	21485
851.355	21412
851.49	21348
851.625	21336
851.76	21351
851.895	21268
852.03	21161
852.165	21401
852.299	21454
852.434	21526
852.569	21401
852.703	21439
852.838	21317
852.973	21443
853.107	21469
853.242	21260
853.376	21195
853.511	21100
853.645	21207
853.78	21283
853.914	21176
854.048	21116
854.183	21199
854.317	21249
854.451	21256
854.585	21256
854.72	21218
854.854	21294
854.988	21112
855.122	21264
855.256	21070
855.39	21180
855.524	21207
855.658	21222
855.792	21138
855.926	21085
856.06	21264
856.194	21192
856.327	21249
856.461	21104
856.595	21192
856.729	21230
856.862	21348
856.996	21275
857.13	21256
857.263	21291
857.397	21420
857.53	21100
857.664	21279
857.797	21211
857.931	21283
858.064	21161
858.197	21317
858.331	21218
858.464	21180
858.597	21081
858.731	21154
858.864	21108
858.997	21123
859.13	21188
859.263	21233
859.396	21249
859.529	21294
859.662	21176
859.795	21260
859.928	21298
860.061	21283
860.194	21287
860.327	21279
860.46	21226
860.592	21401
860.725	21332
860.858	21374
860.99	21192
861.123	21157
861.256	21108
861.388	21325
861.521	21915
861.653	21112
861.786	20948
861.918	21020
862.05	21116
862.183	21180
862.315	21119
862.447	21093
862.58	21180
862.712	20941
862.844	20880
862.976	21055
863.108	21024
863.24	21268
863.372	20914
863.504	20834
863.636	20845
863.768	20975
863.9	20899
864.032	20765
864.164	20967
864.296	20910
864.428	21009
864.559	21001
864.691	21001
864.823	20921
864.954	20960
865.086	20887
865.217	20758
865.349	20720
865.48	20788
865.612	20834
865.743	20944
865.875	20864
866.006	20796
866.137	20872
866.269	20655
866.4	20754
866.531	20705
866.662	20731
866.793	20682
866.924	20670
867.055	20769
867.186	20773
867.317	20735
867.448	20613
867.579	20689
867.71	20659
867.841	20735
867.972	20800
868.103	20735
868.233	20819
868.364	20876
868.495	20861
868.625	20868
868.756	21089
868.886	20849
869.017	20937
869.147	21058
869.278	20994
869.408	20960
869.539	21043
869.669	21062
869.799	20952
869.929	21077
870.06	21081
870.19	21252
870.32	21348
870.45	21355
870.58	21336
870.71	21462
870.84	21485
870.97	21344
871.1	21363
871.23	21500
871.36	21587
871.489	21473
871.619	21488
871.749	21564
871.879	21466
872.008	21709
872.138	21629
872.267	21564
872.397	21477
872.526	21386
872.656	21306
872.785	21428
872.915	21526
873.044	21561
873.173	21523
873.303	21671
873.432	21781
873.561	21736
873.69	21606
873.819	21660
873.948	21587
874.077	21587
874.206	21572
874.335	21477
874.464	21660
874.593	21827
874.722	21709
874.851	21895
874.979	21816
875.108	21804
875.237	21766
875.365	21736
875.494	21720
875.623	21956
875.751	21892
875.88	21915
876.008	21949
876.136	21960
876.265	22200
876.393	22265
876.521	22371
876.65	22192
876.778	22207
876.906	22185
877.034	22086
877.162	22135
877.29	22025
877.418	22143
877.546	22230
877.674	22211
877.802	22135
877.93	22238
878.058	22074
878.185	22032
878.313	22109
878.441	21998
878.568	22044
878.696	22139
878.824	22173
878.951	22238
879.079	22314
879.206	22443
879.333	22394
879.461	22177
879.588	22219
879.715	22318
879.842	22322
879.97	22329
880.097	22074
880.224	22051
880.351	22093
880.478	21956
880.605	22067
880.732	22059
880.859	22116
880.986	21895
881.112	21953
881.239	21960
881.366	21819
881.493	21587
881.619	21671
881.746	21679
881.872	21587
881.999	21583
882.125	21610
882.252	21580
882.378	21610
882.505	21625
882.631	21447
882.757	21344
882.883	21367
883.01	21173
883.136	21176
883.262	21180
883.388	21024
883.514	21233
883.64	21279
883.766	21230
883.892	21093
884.018	21131
884.143	21055
884.269	21173
884.395	20990
884.52	20826
884.646	20861
884.772	20773
884.897	20735
885.023	21036
885.148	21009
885.274	21131
885.399	21093
885.524	20861
885.65	21013
885.775	20807
885.9	20899
886.025	21028
886.15	20929
886.275	20929
886.4	20853
886.525	20868
886.65	20880
886.775	20758
886.9	20967
887.025	21131
887.149	20838
887.274	20804
887.399	20663
887.523	20663
887.648	20670
887.773	20568
887.897	20716
888.021	20636
888.146	20594
888.27	20731
888.395	20777
888.519	20712
888.643	20678
888.767	20716
888.891	20625
889.015	20492
889.139	20560
889.263	20518
889.387	20655
889.511	20602
889.635	20659
889.759	20400
889.883	20461
890.006	20446
890.13	20651
890.254	20377
890.377	20423
890.501	20252
890.624	20210
890.748	20320
890.871	20119
890.995	19986
891.118	20005
891.241	20122
891.364	20035
891.488	20145
891.611	20077
891.734	19967
891.857	20161
891.98	20065
892.103	20058
892.226	20016
892.349	19997
892.471	19761
892.594	20039
892.717	19963
892.839	20001
892.962	20012
893.085	20077
893.207	19989
893.33	19890
893.452	19856
893.575	19970
893.697	19951
893.819	19967
893.941	20134
894.064	20069
894.186	19856
894.308	19894
894.43	20092
894.552	20138
894.674	20084
894.796	19887
894.918	19982
895.04	20016
895.161	19936
895.283	19974
895.405	19837
895.526	19921
895.648	19940
895.769	19932
895.891	19970
896.012	19997
896.134	20069
896.255	19928
896.376	19978
896.498	20054
896.619	19925
896.74	19997
896.861	20035
896.982	20263
897.103	20442
897.224	20305
897.345	20202
897.466	20077
897.587	20336
897.708	20294
897.828	20240
897.949	20081
898.07	20103
898.19	20092
898.311	20286
898.431	20073
898.552	20103
898.672	20332
898.792	20298
898.913	20176
899.033	20096
899.153	20046
899.273	19936
899.393	19932
899.513	20058
899.633	19909
899.753	20069
899.873	19883
899.993	20039
900.113	19936
900.232	20062
900.352	19925
900.472	19818
900.591	19788
900.711	19879
900.83	19818
900.95	19875
901.069	19746
901.189	19753
901.308	19400
901.427	19373
901.546	19339
901.665	19346
901.784	19384
901.904	19179
902.023	19179
902.141	18935
902.26	18856
902.379	18947
902.498	18916
902.617	18859
902.735	18810
902.854	18730
902.973	18745
903.091	18517
903.21	18441
903.328	18559
903.446	18464
903.565	18365
903.683	18338
903.801	18159
903.919	18273
904.038	18190
904.156	18152
904.274	18186
904.392	18133
904.51	18057
904.627	18049
904.745	18167
904.863	17977
904.981	17958
905.098	17794
905.216	17855
905.334	17828
905.451	17802
905.569	17699
905.686	17786
905.803	17767
905.921	17547
906.038	17501
906.155	17623
906.272	17387
906.389	17558
906.506	17398
906.623	17258
906.74	17337
906.857	17178
906.974	17299
907.091	17318
907.208	17303
907.324	17208
907.441	17121
907.557	17124
907.674	17029
907.79	17025
907.907	16938
908.023	16934
908.139	16934
908.256	16995
908.372	16953
908.488	16930
908.604	16911
908.72	16801
908.836	16691
908.952	16797
909.068	16668
909.184	16873
909.3	16763
909.415	16839
909.531	16702
909.647	16512
909.762	16375
909.878	16432
909.993	16504
910.108	16394
910.224	16352
910.339	16405
910.454	16360
910.57	16204
910.685	16253
910.8	16504
910.915	16405
911.03	16215
911.145	16071
911.259	16078
911.374	15956
911.489	15918
911.604	15968
911.718	15812
911.833	15701
911.947	15736
912.062	15671
912.176	15770
912.291	15698
912.405	15728
912.519	15926
912.633	15915
912.748	15793
912.862	15812
912.976	15701
913.09	15515
913.204	15526
913.318	15599
913.431	15690
913.545	15682
913.659	15781
913.772	15504
913.886	15443
914	15367
914.113	15477
914.226	15625
914.34	15447
914.453	15222
914.566	15405
914.68	15336
914.793	15310
914.906	15093
915.019	15039
915.132	14975
915.245	15009
915.358	14986
915.47	14952
915.583	14979
915.696	15081
915.809	15104
915.921	15085
916.034	14990
916.146	14956
916.259	14864
916.371	14941
916.483	14971
916.595	14765
916.708	14941
916.82	14842
916.932	14823
917.044	14823
917.156	14765
917.268	14674
917.38	14678
917.491	14701
917.603	14705
917.715	14788
917.826	14693
917.938	14556
918.049	14632
918.161	14629
918.272	14746
918.384	14773
918.495	14552
918.606	14484
918.717	14404
918.828	14339
918.939	14358
919.05	14396
919.161	14389
919.272	14187
919.383	14195
919.494	14408
919.604	14667
919.715	14393
919.826	14415
919.936	14374
920.047	14552
920.157	14408
920.267	14545
920.378	14370
920.488	14419
920.598	14499
920.708	14697
920.818	14457
920.928	14594
921.038	14743
921.148	14663
921.258	14408
921.368	14214
921.477	14111
921.587	14046
921.697	13906
921.806	14161
921.916	14027
922.025	13871
922.134	13772
922.244	13818
922.353	13799
922.462	13643
922.571	13613
922.68	13441
922.789	13426
922.898	13491
923.007	13441
923.116	13472
923.224	13381
923.333	13335
923.442	13301
923.55	13278
923.659	13335
923.767	13278
923.876	13213
923.984	13316
924.092	13194
924.201	13137
924.309	13202
924.417	13202
924.525	13057
924.633	13019
924.741	13959
924.849	12939
924.956	13088
925.064	12901
925.172	12776
925.279	12837
925.387	12909
925.494	12844
925.602	12939
925.709	12848
925.816	12802
925.924	12749
926.031	12878
926.138	12802
926.245	12798
926.352	12741
926.459	12928
926.566	12901
926.673	12585
926.779	12620
926.886	12631
926.993	12506
927.099	12342
927.206	12346
927.312	12327
927.419	12544
927.525	12479
927.631	12498
927.737	12365
927.843	12266
927.95	12019
928.056	12239
928.162	12353
928.267	12277
928.373	12875
928.479	12319
928.585	12015
928.69	12152
928.796	12194
928.901	12144
929.007	11958
929.112	12129
929.218	12121
929.323	12022
929.428	11923
929.533	12140
929.638	11882
929.743	11885
929.848	11942
929.953	11908
930.058	11843
930.163	11638
930.267	11703
930.372	11832
930.477	11638
930.581	11790
930.685	11672
930.79	11493
930.894	11543
930.998	11471
931.103	11611
931.207	11322
931.311	11242
931.415	11162
931.519	10911
931.623	10889
