Data from test_V78500241_2235.txt Node
Date: Fri Mar 25 15:25:25 CST 2022
User: usil
Spectrometer: V785-0024
Trigger mode: 0
Integration Time (sec): 4.000000E-1
Scans to average: 1
Nonlinearity correction enabled: false
Boxcar width: 0
Storing dark spectrum: false
XAxis mode: Wavelengths
Number of Pixels in Spectrum: 1024
>>>>>Begin Spectral Data<<<<<
801.071	27728
801.214	27720
801.356	27500
801.499	27420
801.641	27431
801.783	27222
801.926	27233
802.068	27348
802.211	27218
802.353	27237
802.496	26990
802.638	26918
802.78	26902
802.923	26830
803.065	26788
803.208	26982
803.35	27020
803.492	27157
803.635	27279
803.777	27119
803.919	27165
804.061	27408
804.204	27249
804.346	27013
804.488	27119
804.63	27230
804.773	27131
804.915	27161
805.057	27131
805.199	27184
805.341	27138
805.483	27359
805.626	27211
805.768	27214
805.91	27233
806.052	27214
806.194	27260
806.336	27302
806.478	27336
806.62	27256
806.762	27481
806.904	27523
807.046	27789
807.188	27785
807.33	27610
807.472	27759
807.614	27545
807.756	27633
807.898	27447
808.04	27595
808.182	27576
808.324	27603
808.465	27705
808.607	27835
808.749	27865
808.891	28070
809.033	28112
809.174	27827
809.316	27903
809.458	27895
809.6	27975
809.741	28013
809.883	27960
810.025	28128
810.166	28253
810.308	28211
810.45	28150
810.591	28097
810.733	28032
810.875	27774
811.016	27762
811.158	27736
811.299	28021
811.441	28006
811.582	28112
811.724	27964
811.865	27816
812.007	27854
812.148	27918
812.29	27918
812.431	28044
812.573	28124
812.714	28169
812.855	28462
812.997	28569
813.138	28645
813.279	28675
813.421	28512
813.562	28424
813.703	28116
813.845	28211
813.986	27873
814.127	27656
814.268	27625
814.41	27644
814.551	27553
814.692	27698
814.833	27587
814.974	27580
815.115	27660
815.256	27549
815.397	27542
815.539	27420
815.68	27313
815.821	27233
815.962	27355
816.103	27389
816.244	27127
816.385	27180
816.526	27138
816.666	26880
816.807	26902
816.948	26899
817.089	27043
817.23	26925
817.371	26819
817.512	26872
817.653	26872
817.793	26712
817.934	26811
818.075	26906
818.216	26883
818.356	26918
818.497	26769
818.638	26579
818.778	26636
818.919	26693
819.06	26552
819.2	26716
819.341	26842
819.481	26834
819.622	27100
819.762	27222
819.903	27077
820.043	27009
820.184	26933
820.324	26921
820.465	27074
820.605	26952
820.746	26979
820.886	26750
821.026	26880
821.167	26925
821.307	26998
821.447	26891
821.588	26701
821.728	26708
821.868	26484
822.008	26275
822.149	26332
822.289	26290
822.429	26062
822.569	26050
822.709	25890
822.849	25700
822.99	25898
823.13	25780
823.27	25708
823.41	25575
823.55	25575
823.69	25693
823.83	25700
823.97	25613
824.11	25438
824.25	25354
824.389	25377
824.529	25525
824.669	25460
824.809	25567
824.949	25662
825.089	25575
825.228	25464
825.368	25343
825.508	25320
825.648	25304
825.787	25373
825.927	25369
826.067	25324
826.206	25274
826.346	25293
826.485	25282
826.625	25202
826.765	25411
826.904	25403
827.044	25046
827.183	25129
827.323	25057
827.462	25004
827.601	25042
827.741	24977
827.88	25107
828.02	24951
828.159	24894
828.298	24970
828.437	25091
828.577	25031
828.716	25050
828.855	24954
828.994	24825
829.134	24802
829.273	24837
829.412	24635
829.551	24601
829.69	24749
829.829	24795
829.968	24798
830.107	24673
830.246	24776
830.385	24620
830.524	24589
830.663	24452
830.802	24521
830.941	24254
831.08	24220
831.219	24308
831.357	24311
831.496	24589
831.635	24403
831.774	24285
831.913	24155
832.051	24133
832.19	24224
832.329	24076
832.467	23931
832.606	24018
832.744	23870
832.883	24045
833.022	23977
833.16	23984
833.299	24007
833.437	23912
833.576	24178
833.714	24038
833.852	23999
833.991	24083
834.129	24144
834.267	24144
834.406	24030
834.544	24034
834.682	24121
834.821	24076
834.959	24247
835.097	24022
835.235	24095
835.373	24114
835.511	23878
835.65	23805
835.788	23961
835.926	23946
836.064	23680
836.202	23767
836.34	23874
836.478	23901
836.615	23748
836.753	23843
836.891	24053
837.029	23874
837.167	23893
837.305	23847
837.443	23684
837.58	23748
837.718	23733
837.856	23710
837.993	23600
838.131	23687
838.269	23642
838.406	23668
838.544	23471
838.681	23448
838.819	23379
838.956	23170
839.094	23193
839.231	23227
839.369	23307
839.506	23623
839.643	23501
839.781	23136
839.918	23071
840.055	23090
840.193	23235
840.33	23117
840.467	23140
840.604	23258
840.742	23433
840.879	22858
841.016	22961
841.153	23056
841.29	23121
841.427	23098
841.564	23227
841.701	23098
841.838	22949
841.975	23029
842.112	23056
842.249	22946
842.385	22866
842.522	23010
842.659	22961
842.796	22862
842.933	22839
843.069	22786
843.206	22839
843.343	22965
843.479	22786
843.616	22873
843.752	22596
843.889	22584
844.025	22706
844.162	22599
844.298	22740
844.435	22554
844.571	22561
844.708	22656
844.844	22797
844.98	22740
845.117	22672
845.253	22607
845.389	22538
845.525	22535
845.661	22493
845.798	22280
845.934	22375
846.07	22329
846.206	22421
846.342	22500
846.478	22348
846.614	22272
846.75	22177
846.886	22196
847.022	22196
847.158	22093
847.294	22082
847.429	22223
847.565	22048
847.701	22303
847.837	21857
847.972	21835
848.108	21960
848.244	21804
848.379	21667
848.515	21671
848.65	21667
848.786	21679
848.921	21751
849.057	21774
849.192	21717
849.328	21781
849.463	21724
849.598	21606
849.734	21633
849.869	21618
850.004	21439
850.14	21492
850.275	21447
850.41	21435
850.545	21458
850.68	21367
850.815	21420
850.95	21374
851.085	21641
851.22	21583
851.355	21523
851.49	21618
851.625	21351
851.76	21294
851.895	21416
852.03	21283
852.165	21431
852.299	21488
852.434	21553
852.569	21439
852.703	21466
852.838	21557
852.973	21637
853.107	21679
853.242	21378
853.376	21298
853.511	21154
853.645	21260
853.78	21355
853.914	21370
854.048	21329
854.183	21195
854.317	21275
854.451	21458
854.585	21325
854.72	21283
854.854	21488
854.988	21272
855.122	21256
855.256	21047
855.39	21184
855.524	21325
855.658	21416
855.792	21241
855.926	21176
856.06	21317
856.194	21321
856.327	21237
856.461	21142
856.595	21192
856.729	21325
856.862	21386
856.996	21222
857.13	21355
857.263	21348
857.397	21355
857.53	21332
857.664	21264
857.797	21389
857.931	21378
858.064	21302
858.197	21389
858.331	21272
858.464	21287
858.597	21176
858.731	21157
858.864	21272
858.997	21241
859.13	21272
859.263	21283
859.396	21268
859.529	21169
859.662	21211
859.795	21241
859.928	21233
860.061	21370
860.194	21431
860.327	21302
860.46	21169
860.592	21393
860.725	21447
860.858	21302
860.99	21249
861.123	21222
861.256	21203
861.388	21401
861.521	21911
861.653	21146
861.786	21005
861.918	21123
862.05	21195
862.183	21165
862.315	21233
862.447	21184
862.58	21184
862.712	21055
862.844	20952
862.976	21093
863.108	20929
863.24	21344
863.372	20876
863.504	20982
863.636	20967
863.768	21150
863.9	20960
864.032	20944
864.164	20937
864.296	21020
864.428	21123
864.559	21036
864.691	21036
864.823	20979
864.954	21062
865.086	20960
865.217	20963
865.349	20781
865.48	20872
865.612	20979
865.743	21051
865.875	20849
866.006	20804
866.137	20864
866.269	20811
866.4	20838
866.531	20758
866.662	20716
866.793	20769
866.924	20853
867.055	20960
867.186	20807
867.317	20678
867.448	20674
867.579	20754
867.71	20659
867.841	20720
867.972	20944
868.103	20842
868.233	20849
868.364	20807
868.495	20963
868.625	21005
868.756	21226
868.886	20960
869.017	20994
869.147	21252
869.278	21024
869.408	21176
869.539	21123
869.669	21104
869.799	21180
869.929	21180
870.06	21203
870.19	21370
870.32	21382
870.45	21412
870.58	21397
870.71	21553
870.84	21515
870.97	21469
871.1	21443
871.23	21572
871.36	21576
871.489	21526
871.619	21606
871.749	21679
871.879	21610
872.008	21850
872.138	21732
872.267	21629
872.397	21462
872.526	21367
872.656	21580
872.785	21450
872.915	21599
873.044	21755
873.173	21561
873.303	21781
873.432	21724
873.561	21797
873.69	21633
873.819	21591
873.948	21842
874.077	21663
874.206	21717
874.335	21625
874.464	21789
874.593	21880
874.722	21926
874.851	21895
874.979	21922
875.108	22059
875.237	21747
875.365	21629
875.494	21899
875.623	21899
875.751	21922
875.88	21880
876.008	21865
876.136	21975
876.265	22253
876.393	22466
876.521	22348
876.65	22447
876.778	22261
876.906	22177
877.034	22166
877.162	22284
877.29	22135
877.418	22234
877.546	22242
877.674	22249
877.802	22196
877.93	22291
878.058	22177
878.185	22249
878.313	22169
878.441	22139
878.568	22059
878.696	22322
878.824	22226
878.951	22371
879.079	22546
879.206	22421
879.333	22402
879.461	22242
879.588	22382
879.715	22508
879.842	22459
879.97	22382
880.097	22063
880.224	22101
880.351	21968
880.478	22002
880.605	22139
880.732	21975
880.859	22280
880.986	22048
881.112	22211
881.239	21991
881.366	21778
881.493	21622
881.619	21629
881.746	21736
881.872	21595
881.999	21614
882.125	21557
882.252	21701
882.378	21599
882.505	21739
882.631	21458
882.757	21351
882.883	21367
883.01	21412
883.136	21336
883.262	21325
883.388	21199
883.514	21332
883.64	21317
883.766	21249
883.892	21150
884.018	21161
884.143	21287
884.269	21367
884.395	21077
884.52	21039
884.646	20956
884.772	20902
884.897	21005
885.023	20982
885.148	21176
885.274	21180
885.399	20998
885.524	21036
885.65	20986
885.775	21024
885.9	20864
886.025	21089
886.15	21051
886.275	20906
886.4	20918
886.525	20937
886.65	20941
886.775	20971
886.9	21043
887.025	21150
887.149	21036
887.274	20773
887.399	20743
887.523	20823
887.648	20686
887.773	20590
887.897	20849
888.021	20697
888.146	20621
888.27	20857
888.395	20857
888.519	20796
888.643	20826
888.767	20819
888.891	20952
889.015	20629
889.139	20587
889.263	20598
889.387	20678
889.511	20693
889.635	20640
889.759	20530
889.883	20488
890.006	20568
890.13	20686
890.254	20404
890.377	20427
890.501	20271
890.624	20191
890.748	20301
890.871	20275
890.995	20111
891.118	20172
891.241	20183
891.364	20122
891.488	20263
891.611	20111
891.734	20199
891.857	20187
891.98	20119
892.103	20225
892.226	20142
892.349	20092
892.471	19970
892.594	20210
892.717	20092
892.839	19944
892.962	20001
893.085	20058
893.207	20058
893.33	19898
893.452	19955
893.575	20016
893.697	19898
893.819	20100
893.941	20263
894.064	20115
894.186	20005
894.308	20035
894.43	20058
894.552	20214
894.674	20046
894.796	19974
894.918	19951
895.04	19970
895.161	20058
895.283	19989
895.405	19997
895.526	20088
895.648	19955
895.769	20050
895.891	20054
896.012	20065
896.134	20183
896.255	20016
896.376	19951
896.498	20062
896.619	20050
896.74	20058
896.861	20149
896.982	20332
897.103	20514
897.224	20313
897.345	20138
897.466	20172
897.587	20187
897.708	20332
897.828	20336
897.949	20134
898.07	20046
898.19	20153
898.311	20320
898.431	20256
898.552	20259
898.672	20229
898.792	20275
898.913	20153
899.033	20107
899.153	20157
899.273	19967
899.393	20027
899.513	19928
899.633	20096
899.753	20058
899.873	19970
899.993	20043
900.113	19989
900.232	19875
900.352	19921
900.472	19852
900.591	19750
900.711	19715
900.83	19761
900.95	19997
901.069	19940
901.189	19632
901.308	19422
901.427	19369
901.546	19407
901.665	19392
901.784	19396
901.904	19289
902.023	19179
902.141	18916
902.26	18875
902.379	19000
902.498	18977
902.617	18852
902.735	18993
902.854	18859
902.973	18806
903.091	18544
903.21	18566
903.328	18570
903.446	18509
903.565	18361
903.683	18247
903.801	18258
903.919	18372
904.038	18346
904.156	18262
904.274	18266
904.392	18098
904.51	18064
904.627	18152
904.745	18197
904.863	18224
904.981	17916
905.098	17767
905.216	17836
905.334	17870
905.451	17733
905.569	17836
905.686	17878
905.803	17748
905.921	17573
906.038	17699
906.155	17551
906.272	17440
906.389	17520
906.506	17345
906.623	17273
906.74	17311
906.857	17379
906.974	17258
907.091	17402
907.208	17535
907.324	17353
907.441	17220
907.557	17102
907.674	17109
907.79	16972
907.907	17109
908.023	17067
908.139	16991
908.256	16942
908.372	17022
908.488	16896
908.604	16774
908.72	16744
908.836	16790
908.952	16702
909.068	16774
909.184	16835
909.3	16805
909.415	16797
909.531	16664
909.647	16405
909.762	16394
909.878	16344
909.993	16459
910.108	16523
910.224	16470
910.339	16481
910.454	16200
910.57	16284
910.685	16181
910.8	16508
910.915	16455
911.03	16322
911.145	16166
911.259	16086
911.374	15884
911.489	16032
911.604	15915
911.718	15751
911.833	15869
911.947	15762
912.062	15622
912.176	15778
912.291	15686
912.405	15850
912.519	15983
912.633	15979
912.748	15793
912.862	15804
912.976	15564
913.09	15538
913.204	15629
913.318	15736
913.431	15637
913.545	15652
913.659	15800
913.772	15515
913.886	15492
914	15526
914.113	15462
914.226	15542
914.34	15553
914.453	15302
914.566	15473
914.68	15245
914.793	15252
914.906	15176
915.019	15043
915.132	15001
915.245	14994
915.358	15028
915.47	15028
915.583	15100
915.696	15077
915.809	15131
915.921	15142
916.034	14933
916.146	14960
916.259	14883
916.371	15013
916.483	14967
916.595	14861
916.708	14880
916.82	14842
916.932	14891
917.044	14811
917.156	14838
917.268	14682
917.38	14792
917.491	14686
917.603	14739
917.715	14792
917.826	14796
917.938	14678
918.049	14518
918.161	14625
918.272	14792
918.384	14750
918.495	14571
918.606	14587
918.717	14389
918.828	14412
918.939	14590
919.05	14381
919.161	14457
919.272	14225
919.383	14225
919.494	14488
919.604	14682
919.715	14400
919.826	14233
919.936	14423
920.047	14488
920.157	14431
920.267	14537
920.378	14393
920.488	14385
920.598	14518
920.708	14629
920.818	14549
920.928	14606
921.038	14648
921.148	14644
921.258	14374
921.368	14237
921.477	14229
921.587	14176
921.697	14024
921.806	14161
921.916	14069
922.025	13738
922.134	13788
922.244	13742
922.353	13769
922.462	13616
922.571	13700
922.68	13449
922.789	13377
922.898	13476
923.007	13312
923.116	13400
923.224	13491
923.333	13335
923.442	13293
923.55	13282
923.659	13240
923.767	13396
923.876	13232
923.984	13293
924.092	13209
924.201	13209
924.309	13168
924.417	13137
924.525	12985
924.633	13160
924.741	13925
924.849	12958
924.956	13061
925.064	12886
925.172	12886
925.279	12863
925.387	12825
925.494	12901
925.602	13008
925.709	12954
925.816	12787
925.924	12802
926.031	12863
926.138	12791
926.245	12772
926.352	12673
926.459	12837
926.566	12844
926.673	12597
926.779	12627
926.886	12544
926.993	12483
927.099	12422
927.206	12479
927.312	12399
927.419	12418
927.525	12460
927.631	12422
927.737	12292
927.843	12243
927.95	12228
928.056	12277
928.162	12213
928.267	12357
928.373	12943
928.479	12319
928.585	12148
928.69	12114
928.796	12205
928.901	12125
929.007	11977
929.112	12182
929.218	12098
929.323	12060
929.428	11999
929.533	12083
929.638	11980
929.743	11927
929.848	11977
929.953	11893
930.058	11870
930.163	11661
930.267	11623
930.372	11908
930.477	11668
930.581	11942
930.685	11729
930.79	11532
930.894	11554
930.998	11558
931.103	11577
931.207	11307
931.311	11227
931.415	11162
931.519	10938
931.623	10930
