Data from test_V78500241_745.txt Node
Date: Fri Mar 25 15:15:02 CST 2022
User: usil
Spectrometer: V785-0024
Trigger mode: 0
Integration Time (sec): 4.000000E-1
Scans to average: 1
Nonlinearity correction enabled: false
Boxcar width: 0
Storing dark spectrum: false
XAxis mode: Wavelengths
Number of Pixels in Spectrum: 1024
>>>>>Begin Spectral Data<<<<<
801.071	27583
801.214	27538
801.356	27241
801.499	27108
801.641	27233
801.783	27150
801.926	27100
802.068	27074
802.211	27051
802.353	26910
802.496	26693
802.638	26708
802.78	26785
802.923	26705
803.065	26659
803.208	26727
803.35	26674
803.492	26746
803.635	26883
803.777	26743
803.919	26864
804.061	26986
804.204	26868
804.346	27017
804.488	26781
804.63	26823
804.773	26864
804.915	26902
805.057	26979
805.199	26937
805.341	27028
805.483	26960
805.626	27017
805.768	26910
805.91	27058
806.052	26975
806.194	26880
806.336	27142
806.478	27009
806.62	26960
806.762	27039
806.904	27268
807.046	27458
807.188	27507
807.33	27294
807.472	27416
807.614	27420
807.756	27389
807.898	27218
808.04	27321
808.182	27165
808.324	27450
808.465	27272
808.607	27405
808.749	27523
808.891	27759
809.033	27755
809.174	27572
809.316	27728
809.458	27614
809.6	27679
809.741	27686
809.883	27819
810.025	27994
810.166	27998
810.308	27964
810.45	27865
810.591	27778
810.733	27701
810.875	27587
811.016	27515
811.158	27488
811.299	27793
811.441	27781
811.582	27743
811.724	27580
811.865	27523
812.007	27633
812.148	27682
812.29	27679
812.431	27724
812.573	27968
812.714	28128
812.855	28238
812.997	28314
813.138	28417
813.279	28432
813.421	28318
813.562	28150
813.703	27964
813.845	27907
813.986	27443
814.127	27310
814.268	27138
814.41	27389
814.551	27249
814.692	27424
814.833	27272
814.974	27382
815.115	27412
815.256	27222
815.397	27180
815.539	27157
815.68	27157
815.821	27123
815.962	27233
816.103	27036
816.244	27005
816.385	26944
816.526	27028
816.666	26769
816.807	26606
816.948	26773
817.089	26819
817.23	26705
817.371	26594
817.512	26708
817.653	26640
817.793	26545
817.934	26651
818.075	26518
818.216	26773
818.356	26678
818.497	26609
818.638	26339
818.778	26419
818.919	26355
819.06	26396
819.2	26549
819.341	26583
819.481	26583
819.622	26765
819.762	26940
819.903	26823
820.043	26739
820.184	26758
820.324	26727
820.465	26826
820.605	26758
820.746	26750
820.886	26495
821.026	26674
821.167	26640
821.307	26625
821.447	26743
821.588	26533
821.728	26366
821.868	26221
822.008	26134
822.149	25974
822.289	26001
822.429	25830
822.569	25860
822.709	25788
822.849	25590
822.99	25677
823.13	25525
823.27	25476
823.41	25419
823.55	25362
823.69	25514
823.83	25343
823.97	25388
824.11	25171
824.25	25198
824.389	25175
824.529	25320
824.669	25259
824.809	25525
824.949	25396
825.089	25392
825.228	25392
825.368	25133
825.508	25084
825.648	25088
825.787	25221
825.927	25198
826.067	25072
826.206	25179
826.346	25088
826.485	25194
826.625	25080
826.765	25095
826.904	25179
827.044	24901
827.183	24920
827.323	24802
827.462	24943
827.601	24810
827.741	24795
827.88	24909
828.02	24669
828.159	24772
828.298	24833
828.437	24928
828.577	24837
828.716	24817
828.855	24749
828.994	24528
829.134	24490
829.273	24658
829.412	24597
829.551	24483
829.69	24521
829.829	24646
829.968	24658
830.107	24604
830.246	24483
830.385	24399
830.524	24372
830.663	24182
830.802	24258
830.941	24266
831.08	24106
831.219	24197
831.357	24102
831.496	24452
831.635	24129
831.774	24091
831.913	23958
832.051	23931
832.19	23961
832.329	23935
832.467	23885
832.606	23836
832.744	23813
832.883	23752
833.022	23821
833.16	23874
833.299	23760
833.437	23889
833.576	23904
833.714	23992
833.852	23870
833.991	23931
834.129	23840
834.267	23999
834.406	23882
834.544	23824
834.682	23920
834.821	23779
834.959	23939
835.097	23798
835.235	23840
835.373	23843
835.511	23817
835.65	23691
835.788	23672
835.926	23611
836.064	23562
836.202	23627
836.34	23665
836.478	23676
836.615	23604
836.753	23756
836.891	23741
837.029	23699
837.167	23668
837.305	23615
837.443	23722
837.58	23493
837.718	23547
837.856	23531
837.993	23539
838.131	23429
838.269	23452
838.406	23444
838.544	23398
838.681	23337
838.819	23128
838.956	22999
839.094	23018
839.231	23155
839.369	23235
839.506	23360
839.643	23075
839.781	22968
839.918	22919
840.055	23010
840.193	22984
840.33	22839
840.467	22984
840.604	22965
840.742	23265
840.879	22641
841.016	22839
841.153	22908
841.29	23052
841.427	23006
841.564	22900
841.701	22946
841.838	22934
841.975	22831
842.112	22778
842.249	22725
842.385	22599
842.522	22889
842.659	22786
842.796	22645
842.933	22809
843.069	22702
843.206	22656
843.343	22679
843.479	22664
843.616	22656
843.752	22512
843.889	22398
844.025	22596
844.162	22500
844.298	22599
844.435	22546
844.571	22588
844.708	22500
844.844	22679
844.98	22622
845.117	22516
845.253	22542
845.389	22276
845.525	22314
845.661	22360
845.798	22169
845.934	22204
846.07	22124
846.206	22246
846.342	22226
846.478	22097
846.614	22055
846.75	21865
846.886	21903
847.022	21934
847.158	21941
847.294	21846
847.429	21968
847.565	21846
847.701	22230
847.837	21606
847.972	21747
848.108	21648
848.244	21759
848.379	21599
848.515	21496
848.65	21511
848.786	21416
848.921	21469
849.057	21713
849.192	21595
849.328	21504
849.463	21511
849.598	21507
849.734	21348
849.869	21355
850.004	21310
850.14	21332
850.275	21317
850.41	21157
850.545	21226
850.68	21344
850.815	21218
850.95	21264
851.085	21443
851.22	21351
851.355	21184
851.49	21237
851.625	21268
851.76	21230
851.895	21184
852.03	21203
852.165	21279
852.299	21226
852.434	21355
852.569	21306
852.703	21374
852.838	21275
852.973	21443
853.107	21363
853.242	21161
853.376	21131
853.511	21074
853.645	20982
853.78	21252
853.914	21116
854.048	21104
854.183	20998
854.317	21157
854.451	21363
854.585	21131
854.72	21089
854.854	21195
854.988	21028
855.122	21138
855.256	20960
855.39	21051
855.524	21222
855.658	21180
855.792	21116
855.926	21119
856.06	21294
856.194	21184
856.327	21089
856.461	21100
856.595	20963
856.729	21116
856.862	21176
856.996	21192
857.13	21237
857.263	21218
857.397	21157
857.53	21085
857.664	21268
857.797	21066
857.931	21184
858.064	21154
858.197	21264
858.331	21272
858.464	21127
858.597	21028
858.731	21039
858.864	21051
858.997	21112
859.13	21142
859.263	21100
859.396	21157
859.529	21055
859.662	21192
859.795	21017
859.928	21043
860.061	21268
860.194	21252
860.327	21089
860.46	21173
860.592	21157
860.725	21252
860.858	21249
860.99	21249
861.123	21127
861.256	20944
861.388	21062
861.521	21823
861.653	21055
861.786	20887
861.918	20853
862.05	21070
862.183	21058
862.315	21039
862.447	21039
862.58	21093
862.712	20769
862.844	20792
862.976	20910
863.108	21039
863.24	21218
863.372	20754
863.504	20765
863.636	20811
863.768	20960
863.9	20758
864.032	20682
864.164	20636
864.296	20899
864.428	20944
864.559	20796
864.691	20910
864.823	20963
864.954	20731
865.086	20830
865.217	20712
865.349	20762
865.48	20735
865.612	20602
865.743	20815
865.875	20686
866.006	20693
866.137	20785
866.269	20773
866.4	20716
866.531	20697
866.662	20659
866.793	20541
866.924	20727
867.055	20693
867.186	20708
867.317	20625
867.448	20598
867.579	20712
867.71	20522
867.841	20564
867.972	20670
868.103	20644
868.233	20686
868.364	20632
868.495	20785
868.625	20925
868.756	20933
868.886	20800
869.017	20842
869.147	20933
869.278	20990
869.408	20990
869.539	20823
869.669	21047
869.799	20883
869.929	20982
870.06	21032
870.19	21047
870.32	21237
870.45	21188
870.58	21355
870.71	21256
870.84	21355
870.97	21287
871.1	21325
871.23	21477
871.36	21447
871.489	21378
871.619	21462
871.749	21473
871.879	21496
872.008	21629
872.138	21473
872.267	21576
872.397	21340
872.526	21218
872.656	21249
872.785	21340
872.915	21576
873.044	21496
873.173	21576
873.303	21572
873.432	21485
873.561	21595
873.69	21534
873.819	21363
873.948	21488
874.077	21549
874.206	21492
874.335	21519
874.464	21614
874.593	21717
874.722	21625
874.851	21850
874.979	21675
875.108	21778
875.237	21774
875.365	21622
875.494	21759
875.623	21846
875.751	21713
875.88	21770
876.008	21819
876.136	21941
876.265	22074
876.393	22295
876.521	22150
876.65	22166
876.778	22082
876.906	21926
877.034	21972
877.162	22185
877.29	22036
877.418	22116
877.546	22032
877.674	22029
877.802	22120
877.93	22139
878.058	22078
878.185	21903
878.313	22010
878.441	22063
878.568	21907
878.696	21934
878.824	21983
878.951	22131
879.079	22204
879.206	22371
879.333	22234
879.461	22070
879.588	22154
879.715	22272
879.842	22344
879.97	22124
880.097	21873
880.224	21915
880.351	21918
880.478	21998
880.605	21876
880.732	21972
880.859	22082
880.986	22010
881.112	21915
881.239	21728
881.366	21637
881.493	21583
881.619	21481
881.746	21500
881.872	21511
881.999	21428
882.125	21526
882.252	21549
882.378	21504
882.505	21500
882.631	21298
882.757	21096
882.883	21264
883.01	21157
883.136	21093
883.262	21058
883.388	21096
883.514	21157
883.64	21108
883.766	21047
883.892	20963
884.018	20948
884.143	21161
884.269	21230
884.395	20910
884.52	20773
884.646	20883
884.772	20697
884.897	20598
885.023	20842
885.148	20948
885.274	20876
885.399	20849
885.524	20823
885.65	20834
885.775	20842
885.9	20739
886.025	20819
886.15	20857
886.275	20750
886.4	20701
886.525	20724
886.65	20716
886.775	20853
886.9	20834
887.025	21112
887.149	20823
887.274	20598
887.399	20568
887.523	20613
887.648	20530
887.773	20579
887.897	20533
888.021	20648
888.146	20579
888.27	20708
888.395	20754
888.519	20602
888.643	20590
888.767	20549
888.891	20549
889.015	20415
889.139	20393
889.263	20400
889.387	20427
889.511	20602
889.635	20446
889.759	20336
889.883	20313
890.006	20336
890.13	20617
890.254	20229
890.377	20301
890.501	20069
890.624	20126
890.748	20187
890.871	20107
890.995	19921
891.118	19951
891.241	20043
891.364	20024
891.488	20024
891.611	19963
891.734	20008
891.857	20065
891.98	20027
892.103	20001
892.226	19944
892.349	19921
892.471	19784
892.594	19875
892.717	19902
892.839	19913
892.962	19925
893.085	19993
893.207	19917
893.33	19818
893.452	19852
893.575	19849
893.697	19837
893.819	20024
893.941	20153
894.064	20043
894.186	19811
894.308	19761
894.43	19997
894.552	19967
894.674	19970
894.796	19655
894.918	19814
895.04	19841
895.161	19925
895.283	19955
895.405	19841
895.526	19913
895.648	19837
895.769	19913
895.891	19913
896.012	19879
896.134	19925
896.255	19928
896.376	19799
896.498	19799
896.619	19913
896.74	19871
896.861	19925
896.982	20256
897.103	20206
897.224	20134
897.345	20111
897.466	20046
897.587	20195
897.708	20286
897.828	19963
897.949	20031
898.07	19871
898.19	20016
898.311	20122
898.431	20115
898.552	20115
898.672	20142
898.792	20161
898.913	20092
899.033	19917
899.153	19841
899.273	19837
899.393	19833
899.513	19925
899.633	19826
899.753	19868
899.873	19845
899.993	19970
900.113	19822
900.232	19856
900.352	19845
900.472	19731
900.591	19594
900.711	19632
900.83	19628
900.95	19826
901.069	19738
901.189	19491
901.308	19297
901.427	19148
901.546	19293
901.665	19247
901.784	19320
901.904	19076
902.023	18962
902.141	18856
902.26	18875
902.379	18779
902.498	18654
902.617	18753
902.735	18840
902.854	18741
902.973	18612
903.091	18414
903.21	18338
903.328	18376
903.446	18357
903.565	18270
903.683	18239
903.801	18106
903.919	18155
904.038	18117
904.156	18133
904.274	18136
904.392	18045
904.51	17954
904.627	17935
904.745	18087
904.863	17996
904.981	17802
905.098	17577
905.216	17786
905.334	17699
905.451	17642
905.569	17581
905.686	17668
905.803	17657
905.921	17372
906.038	17646
906.155	17398
906.272	17307
906.389	17322
906.506	17273
906.623	17212
906.74	17193
906.857	17132
906.974	17056
907.091	17273
907.208	17258
907.324	17159
907.441	17094
907.557	16885
907.674	17010
907.79	16953
907.907	16885
908.023	16938
908.139	16961
908.256	16885
908.372	16713
908.488	16816
908.604	16607
908.72	16565
908.836	16710
908.952	16592
909.068	16569
909.184	16721
909.3	16649
909.415	16653
909.531	16702
909.647	16413
909.762	16436
909.878	16242
909.993	16417
910.108	16303
910.224	16226
910.339	16371
910.454	16268
910.57	16166
910.685	15983
910.8	16337
910.915	16310
911.03	16196
911.145	16021
911.259	16002
911.374	16002
911.489	15873
911.604	15804
911.718	15675
911.833	15724
911.947	15599
912.062	15454
912.176	15686
912.291	15629
912.405	15644
912.519	15865
912.633	15930
912.748	15793
912.862	15724
912.976	15492
913.09	15477
913.204	15447
913.318	15549
913.431	15572
913.545	15564
913.659	15625
913.772	15534
913.886	15389
914	15260
914.113	15332
914.226	15515
914.34	15359
914.453	15226
914.566	15332
914.68	15321
914.793	15150
914.906	14887
915.019	14918
915.132	14963
915.245	14990
915.358	14986
915.47	14880
915.583	14918
915.696	15024
915.809	15005
915.921	15043
916.034	14838
916.146	14796
916.259	14864
916.371	14883
916.483	14937
916.595	14830
916.708	14785
916.82	14781
916.932	14686
917.044	14739
917.156	14590
917.268	14636
917.38	14583
917.491	14583
917.603	14583
917.715	14636
917.826	14743
917.938	14503
918.049	14393
918.161	14533
918.272	14678
918.384	14663
918.495	14552
918.606	14237
918.717	14320
918.828	14343
918.939	14374
919.05	14183
919.161	14294
919.272	14126
919.383	14225
919.494	14389
919.604	14503
919.715	14298
919.826	14275
919.936	14313
920.047	14290
920.157	14400
920.267	14457
920.378	14332
920.488	14343
920.598	14427
920.708	14602
920.818	14454
920.928	14339
921.038	14568
921.148	14522
921.258	14282
921.368	14221
921.477	14031
921.587	14050
921.697	13925
921.806	14107
921.916	13890
922.025	13788
922.134	13674
922.244	13655
922.353	13723
922.462	13578
922.571	13483
922.68	13438
922.789	13225
922.898	13381
923.007	13236
923.116	13335
923.224	13308
923.333	13285
923.442	13247
923.55	13137
923.659	13221
923.767	13225
923.876	13088
923.984	13213
924.092	13091
924.201	13091
924.309	13103
924.417	13080
924.525	13023
924.633	12996
924.741	13841
924.849	12833
924.956	12996
925.064	12795
925.172	12745
925.279	12776
925.387	12825
925.494	12814
925.602	12901
925.709	12745
925.816	12726
925.924	12741
926.031	12840
926.138	12734
926.245	12745
926.352	12620
926.459	12772
926.566	12719
926.673	12635
926.779	12483
926.886	12570
926.993	12285
927.099	12346
927.206	12251
927.312	12235
927.419	12448
927.525	12338
927.631	12372
927.737	12247
927.843	12171
927.95	12072
928.056	12178
928.162	12129
928.267	12251
928.373	12821
928.479	12254
928.585	11958
928.69	12095
928.796	12205
928.901	12125
929.007	11935
929.112	12087
929.218	12019
929.323	11855
929.428	11893
929.533	12102
929.638	11802
929.743	11847
929.848	11855
929.953	11901
930.058	11836
930.163	11596
930.267	11729
930.372	11767
930.477	11463
930.581	11764
930.685	11630
930.79	11493
930.894	11493
930.998	11463
931.103	11604
931.207	11261
931.311	11181
931.415	11132
931.519	10885
931.623	10858
