Data from test_V78500241_3300.txt Node
Date: Fri Mar 25 15:32:50 CST 2022
User: usil
Spectrometer: V785-0024
Trigger mode: 0
Integration Time (sec): 4.000000E-1
Scans to average: 1
Nonlinearity correction enabled: false
Boxcar width: 0
Storing dark spectrum: false
XAxis mode: Wavelengths
Number of Pixels in Spectrum: 1024
>>>>>Begin Spectral Data<<<<<
801.071	27214
801.214	27336
801.356	26975
801.499	26906
801.641	26868
801.783	26849
801.926	26811
802.068	26819
802.211	26785
802.353	26777
802.496	26625
802.638	26389
802.78	26453
802.923	26237
803.065	26362
803.208	26362
803.35	26541
803.492	26598
803.635	26583
803.777	26473
803.919	26590
804.061	26861
804.204	26724
804.346	26518
804.488	26499
804.63	26788
804.773	26453
804.915	26530
805.057	26727
805.199	26549
805.341	26727
805.483	26785
805.626	26785
805.768	26583
805.91	26731
806.052	26754
806.194	26648
806.336	26796
806.478	26640
806.62	26819
806.762	26727
806.904	26940
807.046	27169
807.188	27165
807.33	27070
807.472	27173
807.614	27089
807.756	27081
807.898	27005
808.04	26880
808.182	26937
808.324	26940
808.465	26975
808.607	27017
808.749	27367
808.891	27348
809.033	27370
809.174	27359
809.316	27348
809.458	27321
809.6	27180
809.741	27424
809.883	27500
810.025	27686
810.166	27713
810.308	27599
810.45	27663
810.591	27549
810.733	27431
810.875	27325
811.016	27180
811.158	27355
811.299	27530
811.441	27564
811.582	27416
811.724	27435
811.865	27199
812.007	27287
812.148	27310
812.29	27427
812.431	27393
812.573	27622
812.714	27603
812.855	27914
812.997	27846
813.138	28059
813.279	27964
813.421	27884
813.562	27660
813.703	27603
813.845	27629
813.986	27195
814.127	27032
814.268	26891
814.41	26982
814.551	26967
814.692	26975
814.833	26880
814.974	26944
815.115	27062
815.256	26727
815.397	26842
815.539	26853
815.68	26804
815.821	26739
815.962	26823
816.103	26689
816.244	26651
816.385	26488
816.526	26537
816.666	26332
816.807	26290
816.948	26214
817.089	26366
817.23	26328
817.371	26202
817.512	26218
817.653	26191
817.793	26195
817.934	26237
818.075	26168
818.216	26218
818.356	26202
818.497	26046
818.638	25944
818.778	26115
818.919	25909
819.06	26001
819.2	26065
819.341	26172
819.481	26172
819.622	26412
819.762	26549
819.903	26484
820.043	26461
820.184	26355
820.324	26362
820.465	26431
820.605	26237
820.746	26237
820.886	26126
821.026	26199
821.167	26206
821.307	26457
821.447	26218
821.588	26157
821.728	26039
821.868	25879
822.008	25674
822.149	25635
822.289	25639
822.429	25419
822.569	25213
822.709	25415
822.849	25129
822.99	25278
823.13	25247
823.27	25148
823.41	25065
823.55	25023
823.69	25031
823.83	24996
823.97	24859
824.11	24863
824.25	24802
824.389	24844
824.529	24806
824.669	24825
824.809	24886
824.949	24867
825.089	24852
825.228	24738
825.368	24715
825.508	24604
825.648	24722
825.787	24684
825.927	24753
826.067	24688
826.206	24639
826.346	24665
826.485	24673
826.625	24703
826.765	24817
826.904	24798
827.044	24426
827.183	24479
827.323	24410
827.462	24525
827.601	24292
827.741	24456
827.88	24384
828.02	24315
828.159	24403
828.298	24410
828.437	24505
828.577	24171
828.716	24563
828.855	24437
828.994	24076
829.134	24091
829.273	24140
829.412	24163
829.551	24076
829.69	24152
829.829	24136
829.968	24334
830.107	24205
830.246	24129
830.385	24087
830.524	24121
830.663	23935
830.802	23836
830.941	23733
831.08	23699
831.219	23805
831.357	23851
831.496	23958
831.635	23684
831.774	23745
831.913	23585
832.051	23455
832.19	23535
832.329	23585
832.467	23402
832.606	23311
832.744	23315
832.883	23505
833.022	23376
833.16	23493
833.299	23661
833.437	23474
833.576	23433
833.714	23596
833.852	23505
833.991	23543
834.129	23726
834.267	23646
834.406	23547
834.544	23668
834.682	23505
834.821	23429
834.959	23737
835.097	23444
835.235	23577
835.373	23490
835.511	23547
835.65	23391
835.788	23356
835.926	23307
836.064	23170
836.202	23121
836.34	23440
836.478	23360
836.615	23452
836.753	23512
836.891	23356
837.029	23501
837.167	23410
837.305	23269
837.443	23273
837.58	23128
837.718	23277
837.856	23326
837.993	23231
838.131	23322
838.269	23079
838.406	23162
838.544	23090
838.681	22744
838.819	22866
838.956	22706
839.094	22691
839.231	22717
839.369	22965
839.506	23181
839.643	22930
839.781	22755
839.918	22668
840.055	22850
840.193	22656
840.33	22721
840.467	22580
840.604	22615
840.742	22972
840.879	22569
841.016	22615
841.153	22588
841.29	22793
841.427	22634
841.564	22717
841.701	22687
841.838	22485
841.975	22569
842.112	22580
842.249	22489
842.385	22455
842.522	22519
842.659	22428
842.796	22375
842.933	22523
843.069	22405
843.206	22329
843.343	22402
843.479	22390
843.616	22341
843.752	22169
843.889	22280
844.025	22329
844.162	22261
844.298	22265
844.435	22105
844.571	22074
844.708	22306
844.844	22223
844.98	22207
845.117	22166
845.253	22158
845.389	22093
845.525	22097
845.661	22029
845.798	21865
845.934	21941
846.07	21895
846.206	21899
846.342	22059
846.478	21953
846.614	21667
846.75	21538
846.886	21648
847.022	21736
847.158	21660
847.294	21724
847.429	21736
847.565	21553
847.701	21861
847.837	21332
847.972	21272
848.108	21431
848.244	21572
848.379	21291
848.515	21291
848.65	21226
848.786	21176
848.921	21173
849.057	21374
849.192	21359
849.328	21287
849.463	21230
849.598	21055
849.734	21184
849.869	21104
850.004	20971
850.14	21013
850.275	20990
850.41	20944
850.545	20956
850.68	20963
850.815	21135
850.95	21039
851.085	21165
851.22	21116
851.355	21070
851.49	20929
851.625	21146
851.76	20971
851.895	20979
852.03	20872
852.165	21047
852.299	20979
852.434	21123
852.569	21085
852.703	21028
852.838	21093
852.973	21104
853.107	21131
853.242	20956
853.376	20830
853.511	20640
853.645	20834
853.78	20921
853.914	20758
854.048	20834
854.183	20758
854.317	20899
854.451	21032
854.585	20899
854.72	20823
854.854	20853
854.988	20762
855.122	20872
855.256	20792
855.39	20705
855.524	20895
855.658	20880
855.792	20819
855.926	20921
856.06	20933
856.194	20963
856.327	20765
856.461	20705
856.595	20743
856.729	20933
856.862	20891
856.996	20952
857.13	20914
857.263	20834
857.397	20887
857.53	20796
857.664	20979
857.797	20868
857.931	20819
858.064	20982
858.197	20910
858.331	20823
858.464	20754
858.597	20689
858.731	20769
858.864	20781
858.997	20785
859.13	20921
859.263	20785
859.396	20895
859.529	20864
859.662	20762
859.795	20777
859.928	20804
860.061	20918
860.194	21017
860.327	20941
860.46	20796
860.592	20876
860.725	21036
860.858	20990
860.99	20765
861.123	20743
861.256	20765
861.388	20845
861.521	21370
861.653	20716
861.786	20598
861.918	20667
862.05	20674
862.183	20785
862.315	20712
862.447	20853
862.58	20830
862.712	20511
862.844	20533
862.976	20492
863.108	20575
863.24	20975
863.372	20552
863.504	20507
863.636	20583
863.768	20625
863.9	20590
864.032	20457
864.164	20545
864.296	20613
864.428	20651
864.559	20602
864.691	20590
864.823	20533
864.954	20476
865.086	20495
865.217	20457
865.349	20423
865.48	20541
865.612	20434
865.743	20522
865.875	20461
866.006	20476
866.137	20431
866.269	20370
866.4	20358
866.531	20328
866.662	20370
866.793	20480
866.924	20396
867.055	20461
867.186	20339
867.317	20366
867.448	20320
867.579	20400
867.71	20332
867.841	20385
867.972	20503
868.103	20434
868.233	20480
868.364	20412
868.495	20438
868.625	20560
868.756	20762
868.886	20530
869.017	20602
869.147	20746
869.278	20800
869.408	20556
869.539	20632
869.669	20788
869.799	20792
869.929	20686
870.06	20625
870.19	20891
870.32	20845
870.45	20830
870.58	21001
870.71	21108
870.84	21138
870.97	21077
871.1	20979
871.23	21188
871.36	21291
871.489	21123
871.619	21195
871.749	21283
871.879	21203
872.008	21344
872.138	21317
872.267	21291
872.397	21241
872.526	20975
872.656	21211
872.785	21108
872.915	21260
873.044	21283
873.173	21302
873.303	21405
873.432	21214
873.561	21249
873.69	21279
873.819	21245
873.948	21317
874.077	21291
874.206	21112
874.335	21283
874.464	21252
874.593	21332
874.722	21389
874.851	21534
874.979	21511
875.108	21625
875.237	21389
875.365	21298
875.494	21496
875.623	21519
875.751	21507
875.88	21469
876.008	21679
876.136	21644
876.265	21907
876.393	21956
876.521	21998
876.65	21991
876.778	21861
876.906	21800
877.034	21793
877.162	21975
877.29	21797
877.418	21778
877.546	21930
877.674	21884
877.802	21842
877.93	21854
878.058	21831
878.185	21762
878.313	21766
878.441	21808
878.568	21637
878.696	21728
878.824	21956
878.951	21934
879.079	22078
879.206	22196
879.333	21941
879.461	21873
879.588	21975
879.715	22135
879.842	22158
879.97	21915
880.097	21713
880.224	21614
880.351	21759
880.478	21675
880.605	21625
880.732	21732
880.859	21876
880.986	21728
881.112	21717
881.239	21549
881.366	21386
881.493	21272
881.619	21199
881.746	21325
881.872	21123
881.999	21226
882.125	21161
882.252	21226
882.378	21214
882.505	21359
882.631	21009
882.757	21070
882.883	21089
883.01	20899
883.136	20975
883.262	20842
883.388	20872
883.514	20967
883.64	21055
883.766	20834
883.892	20754
884.018	20769
884.143	20845
884.269	20960
884.395	20708
884.52	20590
884.646	20670
884.772	20575
884.897	20400
885.023	20560
885.148	20796
885.274	20689
885.399	20537
885.524	20613
885.65	20667
885.775	20556
885.9	20712
886.025	20785
886.15	20659
886.275	20522
886.4	20488
886.525	20526
886.65	20511
886.775	20465
886.9	20746
887.025	20735
887.149	20530
887.274	20396
887.399	20282
887.523	20275
887.648	20343
887.773	20233
887.897	20442
888.021	20366
888.146	20336
888.27	20488
888.395	20568
888.519	20351
888.643	20442
888.767	20412
888.891	20389
889.015	20149
889.139	20305
889.263	20168
889.387	20294
889.511	20278
889.635	20259
889.759	20214
889.883	20176
890.006	20168
890.13	20199
890.254	20050
890.377	20149
890.501	19947
890.624	19940
890.748	19974
890.871	19719
890.995	19677
891.118	19765
891.241	19742
891.364	19803
891.488	19849
891.611	19700
891.734	19788
891.857	19742
891.98	19776
892.103	19742
892.226	19791
892.349	19719
892.471	19506
892.594	19666
892.717	19769
892.839	19609
892.962	19727
893.085	19719
893.207	19666
893.33	19609
893.452	19605
893.575	19712
893.697	19712
893.819	19799
893.941	19921
894.064	19826
894.186	19529
894.308	19586
894.43	19791
894.552	19811
894.674	19746
894.796	19544
894.918	19605
895.04	19635
895.161	19677
895.283	19750
895.405	19632
895.526	19731
895.648	19556
895.769	19723
895.891	19647
896.012	19655
896.134	19727
896.255	19765
896.376	19677
896.498	19639
896.619	19704
896.74	19700
896.861	19719
896.982	19982
897.103	20195
897.224	19944
897.345	19883
897.466	19833
897.587	19944
897.708	20100
897.828	19940
897.949	19879
898.07	19856
898.19	19822
898.311	19989
898.431	19936
898.552	19963
898.672	19921
898.792	19963
898.913	19864
899.033	19666
899.153	19704
899.273	19616
899.393	19605
899.513	19742
899.633	19742
899.753	19704
899.873	19597
899.993	19700
900.113	19563
900.232	19647
900.352	19457
900.472	19472
900.591	19419
900.711	19419
900.83	19396
900.95	19559
901.069	19510
901.189	19266
901.308	19213
901.427	19034
901.546	19031
901.665	19027
901.784	19023
901.904	18913
902.023	18749
902.141	18582
902.26	18616
902.379	18570
902.498	18486
902.617	18589
902.735	18566
902.854	18456
902.973	18521
903.091	18243
903.21	18220
903.328	18277
903.446	18117
903.565	17935
903.683	18117
903.801	17988
903.919	18015
904.038	17920
904.156	17878
904.274	17843
904.392	17790
904.51	17840
904.627	17786
904.745	17790
904.863	17828
904.981	17532
905.098	17444
905.216	17414
905.334	17421
905.451	17410
905.569	17486
905.686	17528
905.803	17417
905.921	17296
906.038	17376
906.155	17220
906.272	17197
906.389	17056
906.506	17022
906.623	16930
906.74	16976
906.857	16866
906.974	16900
907.091	17052
907.208	17155
907.324	17071
907.441	16869
907.557	16805
907.674	16786
907.79	16694
907.907	16752
908.023	16850
908.139	16706
908.256	16694
908.372	16660
908.488	16615
908.604	16478
908.72	16489
908.836	16497
908.952	16398
909.068	16596
909.184	16424
909.3	16508
909.415	16481
909.531	16455
909.647	16226
909.762	16200
909.878	16131
909.993	16215
910.108	16226
910.224	16055
910.339	16150
910.454	16017
910.57	16044
910.685	15857
910.8	16169
910.915	16040
911.03	15861
911.145	15838
911.259	15717
911.374	15812
911.489	15686
911.604	15610
911.718	15507
911.833	15515
911.947	15454
912.062	15477
912.176	15686
912.291	15519
912.405	15523
912.519	15663
912.633	15717
912.748	15538
912.862	15424
912.976	15401
913.09	15351
913.204	15264
913.318	15424
913.431	15454
913.545	15336
913.659	15389
913.772	15325
913.886	15226
914	15146
914.113	15150
914.226	15268
914.34	15188
914.453	15058
914.566	15123
914.68	15108
914.793	14963
914.906	14830
915.019	14739
915.132	14686
915.245	14769
915.358	14765
915.47	14830
915.583	14727
915.696	14842
915.809	14914
915.921	14864
916.034	14644
916.146	14590
916.259	14606
916.371	14777
916.483	14800
916.595	14663
916.708	14587
916.82	14678
916.932	14568
917.044	14492
917.156	14537
917.268	14488
917.38	14427
917.491	14415
917.603	14400
917.715	14473
917.826	14503
917.938	14259
918.049	14218
918.161	14419
918.272	14564
918.384	14461
918.495	14286
918.606	14252
918.717	14130
918.828	14214
918.939	14123
919.05	14050
919.161	14237
919.272	13913
919.383	14031
919.494	14233
919.604	14442
919.715	14225
919.826	14172
919.936	14153
920.047	14309
920.157	14168
920.267	14313
920.378	14233
920.488	14199
920.598	14324
920.708	14415
920.818	14339
920.928	14195
921.038	14476
921.148	14374
921.258	14195
921.368	14008
921.477	13875
921.587	13890
921.697	13757
921.806	13925
921.916	13784
922.025	13613
922.134	13624
922.244	13460
922.353	13590
922.462	13464
922.571	13369
922.68	13255
922.789	13183
922.898	13259
923.007	13175
923.116	13270
923.224	13187
923.333	13156
923.442	12966
923.55	13012
923.659	13008
923.767	13164
923.876	12981
923.984	13084
924.092	13015
924.201	12897
924.309	12962
924.417	12962
924.525	12856
924.633	12901
924.741	13856
924.849	12650
924.956	12825
925.064	12703
925.172	12612
925.279	12631
925.387	12551
925.494	12681
925.602	12806
925.709	12711
925.816	12589
925.924	12635
926.031	12658
926.138	12536
926.245	12635
926.352	12509
926.459	12578
926.566	12688
926.673	12506
926.779	12388
926.886	12399
926.993	12277
927.099	12201
927.206	12197
927.312	12273
927.419	12254
927.525	12209
927.631	12247
927.737	12117
927.843	12186
927.95	11897
928.056	12030
928.162	12125
928.267	12098
928.373	12646
928.479	12057
928.585	11889
928.69	11912
928.796	12041
928.901	11878
929.007	11748
929.112	11813
929.218	11847
929.323	11745
929.428	11790
929.533	11870
929.638	11703
929.743	11756
929.848	11729
929.953	11661
930.058	11581
930.163	11497
930.267	11535
930.372	11653
930.477	11455
930.581	11577
930.685	11562
930.79	11345
930.894	11356
930.998	11376
931.103	11539
931.207	11079
931.311	11022
931.415	10919
931.519	10767
931.623	10759
