Data from test_V78500241_645.txt Node
Date: Fri Mar 25 15:14:21 CST 2022
User: usil
Spectrometer: V785-0024
Trigger mode: 0
Integration Time (sec): 4.000000E-1
Scans to average: 1
Nonlinearity correction enabled: false
Boxcar width: 0
Storing dark spectrum: false
XAxis mode: Wavelengths
Number of Pixels in Spectrum: 1024
>>>>>Begin Spectral Data<<<<<
801.071	27393
801.214	27424
801.356	27112
801.499	27245
801.641	27043
801.783	26990
801.926	26906
802.068	27028
802.211	26921
802.353	26674
802.496	26693
802.638	26640
802.78	26632
802.923	26549
803.065	26648
803.208	26594
803.35	26659
803.492	26689
803.635	26830
803.777	26720
803.919	26731
804.061	27024
804.204	26762
804.346	26830
804.488	26674
804.63	26876
804.773	26636
804.915	26750
805.057	26800
805.199	26792
805.341	26724
805.483	26876
805.626	26883
805.768	26712
805.91	26887
806.052	26842
806.194	26880
806.336	27043
806.478	26807
806.62	26944
806.762	26952
806.904	27287
807.046	27367
807.188	27252
807.33	27275
807.472	27401
807.614	27287
807.756	27203
807.898	27214
808.04	27154
808.182	27135
808.324	27104
808.465	27207
808.607	27450
808.749	27519
808.891	27564
809.033	27709
809.174	27614
809.316	27454
809.458	27504
809.6	27625
809.741	27599
809.883	27736
810.025	27819
810.166	27861
810.308	27808
810.45	27652
810.591	27770
810.733	27576
810.875	27545
811.016	27340
811.158	27469
811.299	27682
811.441	27656
811.582	27557
811.724	27420
811.865	27515
812.007	27492
812.148	27549
812.29	27587
812.431	27606
812.573	27987
812.714	28017
812.855	27994
812.997	28154
813.138	28325
813.279	28253
813.421	28006
813.562	28051
813.703	27934
813.845	27785
813.986	27542
814.127	27473
814.268	27081
814.41	27298
814.551	27150
814.692	27275
814.833	27047
814.974	27233
815.115	27302
815.256	27249
815.397	27081
815.539	27173
815.68	27036
815.821	26948
815.962	26952
816.103	26952
816.244	26762
816.385	26845
816.526	26678
816.666	26606
816.807	26495
816.948	26644
817.089	26678
817.23	26682
817.371	26587
817.512	26522
817.653	26507
817.793	26396
817.934	26499
818.075	26457
818.216	26526
818.356	26427
818.497	26324
818.638	26092
818.778	26149
818.919	26263
819.06	26244
819.2	26419
819.341	26358
819.481	26583
819.622	26476
819.762	26762
819.903	26773
820.043	26636
820.184	26583
820.324	26568
820.465	26720
820.605	26571
820.746	26583
820.886	26457
821.026	26484
821.167	26564
821.307	26636
821.447	26476
821.588	26446
821.728	26244
821.868	26134
822.008	25921
822.149	25921
822.289	25906
822.429	25944
822.569	25651
822.709	25693
822.849	25506
822.99	25597
823.13	25316
823.27	25453
823.41	25221
823.55	25126
823.69	25403
823.83	25335
823.97	25179
824.11	25000
824.25	24977
824.389	25190
824.529	25187
824.669	25122
824.809	25175
824.949	25152
825.089	25168
825.228	25209
825.368	25019
825.508	25027
825.648	24989
825.787	24821
825.927	25031
826.067	24989
826.206	24829
826.346	24985
826.485	25099
826.625	24878
826.765	25031
826.904	24905
827.044	24639
827.183	24802
827.323	24547
827.462	24783
827.601	24726
827.741	24639
827.88	24726
828.02	24616
828.159	24551
828.298	24749
828.437	24669
828.577	24623
828.716	24741
828.855	24677
828.994	24452
829.134	24464
829.273	24452
829.412	24456
829.551	24273
829.69	24467
829.829	24486
829.968	24414
830.107	24521
830.246	24418
830.385	24216
830.524	24270
830.663	24152
830.802	24102
830.941	23999
831.08	23897
831.219	24163
831.357	24102
831.496	24133
831.635	24038
831.774	23931
831.913	23927
832.051	23863
832.19	23775
832.329	23840
832.467	23703
832.606	23630
832.744	23684
832.883	23604
833.022	23653
833.16	23783
833.299	23627
833.437	23703
833.576	23741
833.714	23729
833.852	23771
833.991	23771
834.129	23775
834.267	23627
834.406	23707
834.544	23821
834.682	23676
834.821	23672
834.959	23760
835.097	23657
835.235	23745
835.373	23790
835.511	23649
835.65	23638
835.788	23608
835.926	23573
836.064	23421
836.202	23360
836.34	23524
836.478	23680
836.615	23516
836.753	23608
836.891	23653
837.029	23676
837.167	23547
837.305	23512
837.443	23520
837.58	23436
837.718	23493
837.856	23452
837.993	23330
838.131	23353
838.269	23265
838.406	23277
838.544	23181
838.681	23010
838.819	23132
838.956	22869
839.094	23006
839.231	22911
839.369	23033
839.506	23440
839.643	23075
839.781	23041
839.918	22904
840.055	22904
840.193	22949
840.33	22790
840.467	22797
840.604	22919
840.742	23060
840.879	22683
841.016	22706
841.153	22694
841.29	22892
841.427	22828
841.564	22691
841.701	22805
841.838	22706
841.975	22733
842.112	22710
842.249	22694
842.385	22481
842.522	22778
842.659	22649
842.796	22675
842.933	22588
843.069	22516
843.206	22519
843.343	22569
843.479	22603
843.616	22565
843.752	22344
843.889	22375
844.025	22493
844.162	22325
844.298	22390
844.435	22398
844.571	22424
844.708	22394
844.844	22569
844.98	22421
845.117	22455
845.253	22303
845.389	22230
845.525	22185
845.661	22280
845.798	22059
845.934	22249
846.07	22105
846.206	22067
846.342	22204
846.478	21991
846.614	21975
846.75	21751
846.886	21846
847.022	21789
847.158	21819
847.294	21895
847.429	21835
847.565	21835
847.701	22116
847.837	21538
847.972	21393
848.108	21561
848.244	21743
848.379	21473
848.515	21389
848.65	21275
848.786	21473
848.921	21599
849.057	21526
849.192	21458
849.328	21466
849.463	21306
849.598	21378
849.734	21374
849.869	21374
850.004	21161
850.14	21294
850.275	21203
850.41	20982
850.545	21062
850.68	21142
850.815	21154
850.95	21165
851.085	21298
851.22	21306
851.355	21218
851.49	21157
851.625	21116
851.76	21058
851.895	20929
852.03	21070
852.165	21275
852.299	21127
852.434	21329
852.569	21287
852.703	21108
852.838	21370
852.973	21233
853.107	21340
853.242	21108
853.376	21146
853.511	20830
853.645	20933
853.78	21058
853.914	21017
854.048	20880
854.183	21013
854.317	21150
854.451	21233
854.585	21043
854.72	20891
854.854	21036
854.988	20899
855.122	20952
855.256	20906
855.39	21066
855.524	21032
855.658	20960
855.792	21017
855.926	21119
856.06	21047
856.194	21077
856.327	20990
856.461	21032
856.595	20902
856.729	20914
856.862	20990
856.996	20910
857.13	21108
857.263	21077
857.397	21036
857.53	20929
857.664	21089
857.797	21039
857.931	21093
858.064	21024
858.197	21135
858.331	21089
858.464	20929
858.597	20845
858.731	21032
858.864	20914
858.997	20895
859.13	20910
859.263	21017
859.396	21119
859.529	21127
859.662	20918
859.795	21020
859.928	21066
860.061	21123
860.194	21123
860.327	21093
860.46	21085
860.592	21020
860.725	21184
860.858	21093
860.99	21028
861.123	21028
861.256	20933
861.388	21005
861.521	21937
861.653	20963
861.786	20746
861.918	20861
862.05	20811
862.183	20857
862.315	20906
862.447	20960
862.58	20849
862.712	20720
862.844	20731
862.976	20838
863.108	20929
863.24	21256
863.372	20648
863.504	20731
863.636	20651
863.768	20689
863.9	20804
864.032	20583
864.164	20667
864.296	20708
864.428	20830
864.559	20933
864.691	20788
864.823	20785
864.954	20678
865.086	20625
865.217	20720
865.349	20495
865.48	20636
865.612	20590
865.743	20720
865.875	20663
866.006	20495
866.137	20568
866.269	20648
866.4	20541
866.531	20587
866.662	20549
866.793	20659
866.924	20571
867.055	20678
867.186	20465
867.317	20526
867.448	20530
867.579	20575
867.71	20457
867.841	20480
867.972	20640
868.103	20495
868.233	20579
868.364	20602
868.495	20636
868.625	20796
868.756	20830
868.886	20682
869.017	20781
869.147	20925
869.278	20921
869.408	20902
869.539	20842
869.669	20910
869.799	20914
869.929	20918
870.06	20849
870.19	21176
870.32	21161
870.45	21142
870.58	21195
870.71	21313
870.84	21252
870.97	21161
871.1	21154
871.23	21218
871.36	21416
871.489	21199
871.619	21260
871.749	21348
871.879	21397
872.008	21496
872.138	21393
872.267	21268
872.397	21119
872.526	21203
872.656	21192
872.785	21222
872.915	21359
873.044	21447
873.173	21329
873.303	21412
873.432	21568
873.561	21500
873.69	21412
873.819	21473
873.948	21477
874.077	21416
874.206	21317
874.335	21321
874.464	21610
874.593	21660
874.722	21595
874.851	21675
874.979	21614
875.108	21591
875.237	21523
875.365	21523
875.494	21515
875.623	21766
875.751	21583
875.88	21713
876.008	21679
876.136	21846
876.265	22002
876.393	22223
876.521	22044
876.65	22124
876.778	22032
876.906	21991
877.034	21819
877.162	22112
877.29	21956
877.418	22086
877.546	21949
877.674	21869
877.802	21949
877.93	21998
878.058	22029
878.185	21880
878.313	21899
878.441	21876
878.568	21850
878.696	21804
878.824	21880
878.951	22070
879.079	22185
879.206	22257
879.333	22135
879.461	22093
879.588	22109
879.715	22097
879.842	22295
879.97	22063
880.097	21915
880.224	22017
880.351	21774
880.478	21759
880.605	21759
880.732	21759
880.859	21960
880.986	21907
881.112	21835
881.239	21625
881.366	21549
881.493	21447
881.619	21428
881.746	21416
881.872	21386
881.999	21355
882.125	21317
882.252	21469
882.378	21279
882.505	21431
882.631	21195
882.757	21150
882.883	21161
883.01	21081
883.136	21138
883.262	20880
883.388	20921
883.514	21180
883.64	21043
883.766	20982
883.892	20887
884.018	20937
884.143	21047
884.269	21085
884.395	20834
884.52	20765
884.646	20796
884.772	20682
884.897	20655
885.023	20807
885.148	20716
885.274	20830
885.399	20868
885.524	20746
885.65	20746
885.775	20762
885.9	20724
886.025	20826
886.15	20872
886.275	20648
886.4	20606
886.525	20667
886.65	20541
886.775	20564
886.9	20933
887.025	20967
887.149	20644
887.274	20640
887.399	20545
887.523	20503
887.648	20469
887.773	20476
887.897	20545
888.021	20537
888.146	20385
888.27	20587
888.395	20541
888.519	20518
888.643	20442
888.767	20571
888.891	20339
889.015	20317
889.139	20370
889.263	20389
889.387	20499
889.511	20362
889.635	20438
889.759	20267
889.883	20271
890.006	20305
890.13	20389
890.254	20164
890.377	20267
890.501	20092
890.624	20031
890.748	20084
890.871	19970
890.995	19936
891.118	19807
891.241	19742
891.364	19791
891.488	19879
891.611	19978
891.734	19734
891.857	19925
891.98	19974
892.103	19883
892.226	19890
892.349	19742
892.471	19658
892.594	19860
892.717	19879
892.839	19708
892.962	19814
893.085	19989
893.207	19822
893.33	19662
893.452	19791
893.575	19833
893.697	19791
893.819	19894
893.941	19921
894.064	20005
894.186	19727
894.308	19807
894.43	19860
894.552	20069
894.674	19898
894.796	19746
894.918	19689
895.04	19772
895.161	19852
895.283	19906
895.405	19833
895.526	19917
895.648	19742
895.769	19826
895.891	19788
896.012	19936
896.134	19871
896.255	19807
896.376	19890
896.498	19841
896.619	19936
896.74	19841
896.861	19917
896.982	20122
897.103	20366
897.224	20218
897.345	20191
897.466	20043
897.587	20134
897.708	20073
897.828	20180
897.949	20069
898.07	19993
898.19	20031
898.311	20126
898.431	20039
898.552	20001
898.672	20081
898.792	20103
898.913	20134
899.033	20031
899.153	19849
899.273	19746
899.393	19803
899.513	19932
899.633	19814
899.753	19708
899.873	19742
899.993	19761
900.113	19674
900.232	19852
900.352	19769
900.472	19715
900.591	19647
900.711	19674
900.83	19525
900.95	19723
901.069	19761
901.189	19529
901.308	19297
901.427	19126
901.546	19194
901.665	19339
901.784	19126
901.904	19110
902.023	19031
902.141	18825
902.26	18734
902.379	18833
902.498	18684
902.617	18700
902.735	18719
902.854	18779
902.973	18700
903.091	18391
903.21	18357
903.328	18342
903.446	18315
903.565	18235
903.683	18216
903.801	18140
903.919	18129
904.038	18106
904.156	17939
904.274	18011
904.392	17920
904.51	17958
904.627	17939
904.745	17992
904.863	18072
904.981	17866
905.098	17543
905.216	17733
905.334	17657
905.451	17665
905.569	17615
905.686	17737
905.803	17642
905.921	17417
906.038	17615
906.155	17471
906.272	17349
906.389	17436
906.506	17162
906.623	17159
906.74	17280
906.857	17037
906.974	17216
907.091	17220
907.208	17250
907.324	17227
907.441	17056
907.557	16885
907.674	16904
907.79	16793
907.907	16767
908.023	16915
908.139	16892
908.256	16824
908.372	16725
908.488	16759
908.604	16694
908.72	16512
908.836	16672
908.952	16500
909.068	16611
909.184	16755
909.3	16649
909.415	16611
909.531	16565
909.647	16284
909.762	16226
909.878	16325
909.993	16363
910.108	16329
910.224	16169
910.339	16314
910.454	16166
910.57	16143
910.685	16036
910.8	16344
910.915	16158
911.03	16166
911.145	15949
911.259	15922
911.374	15934
911.489	15819
911.604	15823
911.718	15660
911.833	15644
911.947	15458
912.062	15545
912.176	15587
912.291	15671
912.405	15591
912.519	15819
912.633	15679
912.748	15629
912.862	15652
912.976	15447
913.09	15306
913.204	15458
913.318	15519
913.431	15576
913.545	15580
913.659	15488
913.772	15462
913.886	15252
914	15275
914.113	15401
914.226	15420
914.34	15336
914.453	15081
914.566	15184
914.68	15184
914.793	15131
914.906	14929
915.019	14876
915.132	14781
915.245	14868
915.358	15032
915.47	14941
915.583	14944
915.696	14921
915.809	15036
915.921	15085
916.034	14880
916.146	14777
916.259	14785
916.371	14941
916.483	14864
916.595	14773
916.708	14670
916.82	14834
916.932	14716
917.044	14682
917.156	14568
917.268	14473
917.38	14518
917.491	14530
917.603	14621
917.715	14594
917.826	14636
917.938	14537
918.049	14408
918.161	14499
918.272	14648
918.384	14708
918.495	14568
918.606	14271
918.717	14271
918.828	14358
918.939	14317
919.05	14225
919.161	14286
919.272	14077
919.383	14168
919.494	14252
919.604	14533
919.715	14275
919.826	14180
919.936	14271
920.047	14381
920.157	14271
920.267	14446
920.378	14313
920.488	14237
920.598	14587
920.708	14533
920.818	14492
920.928	14473
921.038	14568
921.148	14526
921.258	14256
921.368	14214
921.477	14134
921.587	14016
921.697	13822
921.806	14050
921.916	13902
922.025	13677
922.134	13643
922.244	13708
922.353	13693
922.462	13529
922.571	13464
922.68	13331
922.789	13350
922.898	13339
923.007	13289
923.116	13335
923.224	13362
923.333	13274
923.442	13228
923.55	13160
923.659	13152
923.767	13194
923.876	13099
923.984	13217
924.092	13107
924.201	13004
924.309	13061
924.417	13034
924.525	12970
924.633	12939
924.741	13807
924.849	12814
924.956	12943
925.064	12802
925.172	12722
925.279	12745
925.387	12734
925.494	12760
925.602	12837
925.709	12730
925.816	12627
925.924	12681
926.031	12825
926.138	12650
926.245	12795
926.352	12490
926.459	12787
926.566	12783
926.673	12574
926.779	12559
926.886	12532
926.993	12350
927.099	12334
927.206	12235
927.312	12266
927.419	12369
927.525	12334
927.631	12285
927.737	12281
927.843	12171
927.95	12091
928.056	12201
928.162	12220
928.267	12296
928.373	12817
928.479	12232
928.585	11973
928.69	12125
928.796	12232
928.901	12007
929.007	11859
929.112	12072
929.218	11996
929.323	11901
929.428	11927
929.533	12106
929.638	11798
929.743	11874
929.848	11874
929.953	11863
930.058	11695
930.163	11596
930.267	11653
930.372	11741
930.477	11596
930.581	11718
930.685	11703
930.79	11516
930.894	11600
930.998	11452
931.103	11551
931.207	11239
931.311	11159
931.415	11045
931.519	10866
931.623	10885
