Data from test_V78500241_1600.txt Node
Date: Fri Mar 25 15:20:59 CST 2022
User: usil
Spectrometer: V785-0024
Trigger mode: 0
Integration Time (sec): 4.000000E-1
Scans to average: 1
Nonlinearity correction enabled: false
Boxcar width: 0
Storing dark spectrum: false
XAxis mode: Wavelengths
Number of Pixels in Spectrum: 1024
>>>>>Begin Spectral Data<<<<<
801.071	27972
801.214	27918
801.356	27690
801.499	27549
801.641	27481
801.783	27351
801.926	27401
802.068	27488
802.211	27405
802.353	27233
802.496	27100
802.638	27020
802.78	27066
802.923	26975
803.065	27047
803.208	27123
803.35	27127
803.492	27188
803.635	27317
803.777	27173
803.919	27344
804.061	27557
804.204	27340
804.346	27230
804.488	27237
804.63	27351
804.773	27230
804.915	27283
805.057	27245
805.199	27154
805.341	27344
805.483	27389
805.626	27439
805.768	27412
805.91	27458
806.052	27405
806.194	27336
806.336	27641
806.478	27416
806.62	27405
806.762	27622
806.904	27568
807.046	27869
807.188	27804
807.33	27865
807.472	28013
807.614	27835
807.756	27827
807.898	27800
808.04	27610
808.182	27633
808.324	27766
808.465	27857
808.607	27953
808.749	28055
808.891	28105
809.033	28223
809.174	28150
809.316	28002
809.458	28074
809.6	28082
809.741	28230
809.883	28242
810.025	28257
810.166	28181
810.308	28325
810.45	28238
810.591	28246
810.733	28029
810.875	28021
811.016	27941
811.158	27846
811.299	28120
811.441	28116
811.582	28150
811.724	28074
811.865	28032
812.007	28120
812.148	28036
812.29	28063
812.431	28363
812.573	28192
812.714	28500
812.855	28561
812.997	28721
813.138	28736
813.279	28835
813.421	28607
813.562	28561
813.703	28310
813.845	28249
813.986	28105
814.127	27869
814.268	27701
814.41	27762
814.551	27774
814.692	27713
814.833	27614
814.974	27778
815.115	27857
815.256	27519
815.397	27610
815.539	27660
815.68	27576
815.821	27481
815.962	27561
816.103	27572
816.244	27359
816.385	27298
816.526	27408
816.666	27020
816.807	26948
816.948	27218
817.089	27085
817.23	27116
817.371	27089
817.512	27089
817.653	27009
817.793	26914
817.934	27096
818.075	27104
818.216	27005
818.356	26918
818.497	26940
818.638	26861
818.778	26880
818.919	26849
819.06	26910
819.2	26853
819.341	27100
819.481	27119
819.622	27169
819.762	27386
819.903	27325
820.043	27211
820.184	27119
820.324	27146
820.465	27294
820.605	27203
820.746	27055
820.886	27047
821.026	27169
821.167	27043
821.307	27237
821.447	27005
821.588	27066
821.728	26849
821.868	26632
822.008	26514
822.149	26499
822.289	26549
822.429	26290
822.569	26187
822.709	26275
822.849	26229
822.99	26058
823.13	25978
823.27	26096
823.41	25765
823.55	25795
823.69	25830
823.83	25818
823.97	25921
824.11	25738
824.25	25597
824.389	25609
824.529	25753
824.669	25674
824.809	25818
824.949	25681
825.089	25700
825.228	25613
825.368	25506
825.508	25476
825.648	25487
825.787	25616
825.927	25510
826.067	25335
826.206	25521
826.346	25609
826.485	25590
826.625	25529
826.765	25712
826.904	25628
827.044	25350
827.183	25282
827.323	25228
827.462	25324
827.601	25308
827.741	25377
827.88	25403
828.02	25183
828.159	25255
828.298	25285
828.437	25365
828.577	25103
828.716	25346
828.855	25187
828.994	24905
829.134	24924
829.273	24977
829.412	24913
829.551	24772
829.69	24996
829.829	25069
829.968	25141
830.107	24947
830.246	25065
830.385	24886
830.524	24875
830.663	24620
830.802	24787
830.941	24597
831.08	24498
831.219	24722
831.357	24635
831.496	24821
831.635	24464
831.774	24525
831.913	24448
832.051	24426
832.19	24277
832.329	24380
832.467	24300
832.606	24338
832.744	24083
832.883	24186
833.022	24300
833.16	24232
833.299	24342
833.437	24258
833.576	24311
833.714	24216
833.852	24308
833.991	24327
834.129	24327
834.267	24327
834.406	24277
834.544	24213
834.682	24346
834.821	24258
834.959	24388
835.097	24106
835.235	24414
835.373	24270
835.511	24273
835.65	24076
835.788	24277
835.926	23935
836.064	23969
836.202	24038
836.34	24114
836.478	24285
836.615	24060
836.753	24076
836.891	24133
837.029	24190
837.167	24022
837.305	23984
837.443	24102
837.58	23954
837.718	24117
837.856	23920
837.993	23901
838.131	23893
838.269	23817
838.406	23885
838.544	23748
838.681	23558
838.819	23592
838.956	23452
839.094	23455
839.231	23482
839.369	23573
839.506	23870
839.643	23676
839.781	23391
839.918	23360
840.055	23303
840.193	23311
840.33	23341
840.467	23414
840.604	23391
840.742	23672
840.879	23250
841.016	23318
841.153	23288
841.29	23391
841.427	23372
841.564	23493
841.701	23261
841.838	23269
841.975	23227
842.112	23284
842.249	23044
842.385	23113
842.522	23246
842.659	23098
842.796	22995
842.933	23105
843.069	23029
843.206	23128
843.343	23170
843.479	23048
843.616	23178
843.752	22782
843.889	22835
844.025	23052
844.162	22892
844.298	22968
844.435	22862
844.571	22744
844.708	22961
844.844	22968
844.98	22984
845.117	22889
845.253	23006
845.389	22759
845.525	22793
845.661	22858
845.798	22611
845.934	22656
846.07	22497
846.206	22599
846.342	22702
846.478	22634
846.614	22405
846.75	22303
846.886	22459
847.022	22276
847.158	22333
847.294	22318
847.429	22375
847.565	22352
847.701	22550
847.837	22082
847.972	22013
848.108	22230
848.244	22272
848.379	21964
848.515	21892
848.65	21812
848.786	21960
848.921	22044
849.057	22017
849.192	21941
849.328	21979
849.463	21922
849.598	21892
849.734	21861
849.869	21861
850.004	21682
850.14	21671
850.275	21614
850.41	21671
850.545	21637
850.68	21583
850.815	21717
850.95	21641
851.085	21941
851.22	21743
851.355	21660
851.49	21663
851.625	21625
851.76	21553
851.895	21675
852.03	21530
852.165	21629
852.299	21587
852.434	21747
852.569	21736
852.703	21682
852.838	21667
852.973	21800
853.107	21869
853.242	21504
853.376	21473
853.511	21428
853.645	21481
853.78	21610
853.914	21523
854.048	21523
854.183	21641
854.317	21439
854.451	21717
854.585	21538
854.72	21496
854.854	21553
854.988	21447
855.122	21549
855.256	21397
855.39	21557
855.524	21553
855.658	21561
855.792	21534
855.926	21534
856.06	21469
856.194	21614
856.327	21485
856.461	21530
856.595	21424
856.729	21450
856.862	21671
856.996	21656
857.13	21591
857.263	21553
857.397	21622
857.53	21519
857.664	21492
857.797	21679
857.931	21523
858.064	21473
858.197	21538
858.331	21523
858.464	21355
858.597	21412
858.731	21485
858.864	21443
858.997	21416
859.13	21515
859.263	21496
859.396	21511
859.529	21439
859.662	21507
859.795	21458
859.928	21466
860.061	21595
860.194	21660
860.327	21660
860.46	21526
860.592	21583
860.725	21781
860.858	21599
860.99	21439
861.123	21378
861.256	21504
861.388	21526
861.521	22074
861.653	21298
861.786	21321
861.918	21313
862.05	21298
862.183	21401
862.315	21431
862.447	21534
862.58	21454
862.712	21249
862.844	21085
862.976	21260
863.108	21131
863.24	21671
863.372	21157
863.504	21154
863.636	21310
863.768	21283
863.9	21154
864.032	21127
864.164	21199
864.296	21192
864.428	21374
864.559	21298
864.691	21321
864.823	21317
864.954	21245
865.086	21116
865.217	21112
865.349	21055
865.48	21169
865.612	21047
865.743	21310
865.875	21226
866.006	20994
866.137	21096
866.269	21173
866.4	21150
866.531	21047
866.662	21020
866.793	21013
866.924	20933
867.055	21058
867.186	21077
867.317	21055
867.448	20887
867.579	21017
867.71	20975
867.841	20941
867.972	21036
868.103	21039
868.233	21100
868.364	21036
868.495	21169
868.625	21131
868.756	21313
868.886	21207
869.017	21226
869.147	21428
869.278	21443
869.408	21389
869.539	21287
869.669	21473
869.799	21325
869.929	21370
870.06	21367
870.19	21564
870.32	21580
870.45	21610
870.58	21648
870.71	21743
870.84	21785
870.97	21587
871.1	21644
871.23	21842
871.36	21895
871.489	21755
871.619	21915
871.749	21880
871.879	21827
872.008	21953
872.138	21827
872.267	21717
872.397	21679
872.526	21698
872.656	21568
872.785	21663
872.915	21911
873.044	21918
873.173	21884
873.303	21850
873.432	21930
873.561	22029
873.69	21842
873.819	21778
873.948	22029
874.077	21949
874.206	21850
874.335	21884
874.464	21945
874.593	22040
874.722	22082
874.851	22055
874.979	22162
875.108	22158
875.237	22070
875.365	22010
875.494	22063
875.623	22101
875.751	21998
875.88	22154
876.008	22147
876.136	22238
876.265	22455
876.393	22683
876.521	22462
876.65	22691
876.778	22554
876.906	22390
877.034	22455
877.162	22485
877.29	22474
877.418	22523
877.546	22405
877.674	22462
877.802	22432
877.93	22531
878.058	22360
878.185	22390
878.313	22421
878.441	22432
878.568	22318
878.696	22363
878.824	22440
878.951	22523
879.079	22588
879.206	22755
879.333	22554
879.461	22512
879.588	22554
879.715	22626
879.842	22615
879.97	22538
880.097	22272
880.224	22249
880.351	22318
880.478	22211
880.605	22291
880.732	22329
880.859	22443
880.986	22329
881.112	22295
881.239	22109
881.366	21964
881.493	22082
881.619	21831
881.746	22048
881.872	21861
881.999	21762
882.125	21778
882.252	21854
882.378	21899
882.505	22025
882.631	21831
882.757	21538
882.883	21530
883.01	21519
883.136	21408
883.262	21599
883.388	21443
883.514	21561
883.64	21561
883.766	21477
883.892	21363
884.018	21291
884.143	21504
884.269	21523
884.395	21275
884.52	21100
884.646	21294
884.772	21093
884.897	21150
885.023	21211
885.148	21275
885.274	21310
885.399	21287
885.524	21211
885.65	21119
885.775	21131
885.9	21165
886.025	21340
886.15	21176
886.275	21119
886.4	21085
886.525	21077
886.65	21074
886.775	21024
886.9	21268
887.025	21351
887.149	21131
887.274	21032
887.399	20967
887.523	20880
887.648	20971
887.773	20887
887.897	21028
888.021	20937
888.146	20887
888.27	21024
888.395	21085
888.519	21005
888.643	21039
888.767	20937
888.891	20941
889.015	20781
889.139	20796
889.263	20670
889.387	20861
889.511	20902
889.635	20830
889.759	20773
889.883	20777
890.006	20727
890.13	20880
890.254	20609
890.377	20678
890.501	20556
890.624	20564
890.748	20522
890.871	20412
890.995	20301
891.118	20252
891.241	20282
891.364	20282
891.488	20343
891.611	20221
891.734	20377
891.857	20358
891.98	20286
892.103	20294
892.226	20225
892.349	20290
892.471	20161
892.594	20282
892.717	20351
892.839	20206
892.962	20134
893.085	20278
893.207	20275
893.33	20126
893.452	20149
893.575	20248
893.697	20142
893.819	20343
893.941	20469
894.064	20317
894.186	20187
894.308	20020
894.43	20161
894.552	20343
894.674	20286
894.796	20149
894.918	20187
895.04	20195
895.161	20237
895.283	20244
895.405	20180
895.526	20210
895.648	20237
895.769	20290
895.891	20259
896.012	20240
896.134	20355
896.255	20248
896.376	20126
896.498	20180
896.619	20180
896.74	20119
896.861	20278
896.982	20560
897.103	20625
897.224	20484
897.345	20533
897.466	20434
897.587	20393
897.708	20495
897.828	20377
897.949	20488
898.07	20221
898.19	20324
898.311	20545
898.431	20427
898.552	20381
898.672	20507
898.792	20514
898.913	20431
899.033	20324
899.153	20210
899.273	20157
899.393	20183
899.513	20290
899.633	20233
899.753	20176
899.873	20237
899.993	20142
900.113	19932
900.232	20145
900.352	20062
900.472	19959
900.591	19967
900.711	20001
900.83	19944
900.95	19978
901.069	19963
901.189	19849
901.308	19643
901.427	19491
901.546	19613
901.665	19521
901.784	19445
901.904	19396
902.023	19282
902.141	19114
902.26	19034
902.379	19118
902.498	19076
902.617	19057
902.735	19088
902.854	19015
902.973	18954
903.091	18730
903.21	18650
903.328	18779
903.446	18642
903.565	18563
903.683	18559
903.801	18346
903.919	18490
904.038	18422
904.156	18376
904.274	18311
904.392	18254
904.51	18273
904.627	18281
904.745	18361
904.863	18342
904.981	18068
905.098	17980
905.216	18022
905.334	17984
905.451	17973
905.569	17961
905.686	17992
905.803	17904
905.921	17771
906.038	17866
906.155	17783
906.272	17695
906.389	17653
906.506	17501
906.623	17562
906.74	17482
906.857	17398
906.974	17379
907.091	17452
907.208	17589
907.324	17570
907.441	17425
907.557	17223
907.674	17296
907.79	17136
907.907	17094
908.023	17227
908.139	17143
908.256	17094
908.372	17185
908.488	17037
908.604	16968
908.72	16858
908.836	16919
908.952	16889
909.068	16995
909.184	17079
909.3	16957
909.415	16968
909.531	16858
909.647	16713
909.762	16565
909.878	16573
909.993	16626
910.108	16584
910.224	16596
910.339	16489
910.454	16466
910.57	16360
910.685	16318
910.8	16630
910.915	16523
911.03	16344
911.145	16230
911.259	16204
911.374	16116
911.489	16074
911.604	15983
911.718	15949
911.833	16040
911.947	15800
912.062	15823
912.176	15956
912.291	15949
912.405	15907
912.519	16086
912.633	16051
912.748	15934
912.862	15880
912.976	15869
913.09	15644
913.204	15743
913.318	15873
913.431	15831
913.545	15888
913.659	15934
913.772	15743
913.886	15633
914	15530
914.113	15557
914.226	15686
914.34	15679
914.453	15477
914.566	15576
914.68	15367
914.793	15458
914.906	15199
915.019	15180
915.132	15131
915.245	15218
915.358	15165
915.47	15203
915.583	15169
915.696	15157
915.809	15207
915.921	15245
916.034	15138
916.146	15009
916.259	14982
916.371	15135
916.483	15138
916.595	15017
916.708	15017
916.82	15119
916.932	14982
917.044	14982
917.156	14861
917.268	14773
917.38	14872
917.491	14777
917.603	14857
917.715	14982
917.826	14845
917.938	14758
918.049	14746
918.161	14754
918.272	14910
918.384	14971
918.495	14686
918.606	14632
918.717	14648
918.828	14610
918.939	14598
919.05	14526
919.161	14530
919.272	14377
919.383	14484
919.494	14621
919.604	14796
919.715	14655
919.826	14480
919.936	14556
920.047	14708
920.157	14533
920.267	14792
920.378	14438
920.488	14560
920.598	14731
920.708	14834
920.818	14663
920.928	14667
921.038	14861
921.148	14781
921.258	14480
921.368	14408
921.477	14282
921.587	14263
921.697	14123
921.806	14267
921.916	14123
922.025	13989
922.134	14027
922.244	13685
922.353	14024
922.462	13818
922.571	13685
922.68	13677
922.789	13518
922.898	13708
923.007	13563
923.116	13636
923.224	13597
923.333	13453
923.442	13373
923.55	13400
923.659	13377
923.767	13514
923.876	13354
923.984	13457
924.092	13312
924.201	13343
924.309	13316
924.417	13308
924.525	13301
924.633	13259
924.741	13955
924.849	12943
924.956	13129
925.064	13019
925.172	13008
925.279	12966
925.387	13023
925.494	13000
925.602	13141
925.709	12985
925.816	12932
925.924	12962
926.031	12985
926.138	12886
926.245	12993
926.352	12795
926.459	13023
926.566	12935
926.673	12829
926.779	12871
926.886	12764
926.993	12540
927.099	12521
927.206	12426
927.312	12414
927.419	12513
927.525	12551
927.631	12528
927.737	12445
927.843	12365
927.95	12315
928.056	12365
928.162	12346
928.267	12410
928.373	12905
928.479	12437
928.585	12167
928.69	12380
928.796	12323
928.901	12266
929.007	12114
929.112	12201
929.218	12277
929.323	12228
929.428	12007
929.533	12194
929.638	12068
929.743	12087
929.848	12095
929.953	12167
930.058	11984
930.163	11802
930.267	11722
930.372	11897
930.477	11767
930.581	11980
930.685	11794
930.79	11646
930.894	11752
930.998	11661
931.103	11775
931.207	11360
931.311	11322
931.415	11208
931.519	11041
931.623	11006
