Data from test_V78500241_2997.txt Node
Date: Fri Mar 25 15:30:43 CST 2022
User: usil
Spectrometer: V785-0024
Trigger mode: 0
Integration Time (sec): 4.000000E-1
Scans to average: 1
Nonlinearity correction enabled: false
Boxcar width: 0
Storing dark spectrum: false
XAxis mode: Wavelengths
Number of Pixels in Spectrum: 1024
>>>>>Begin Spectral Data<<<<<
801.071	27351
801.214	27157
801.356	26948
801.499	26815
801.641	26811
801.783	26861
801.926	26804
802.068	26781
802.211	26899
802.353	26629
802.496	26575
802.638	26560
802.78	26575
802.923	26282
803.065	26282
803.208	26469
803.35	26495
803.492	26632
803.635	26655
803.777	26480
803.919	26602
804.061	26982
804.204	26598
804.346	26571
804.488	26518
804.63	26579
804.773	26362
804.915	26503
805.057	26724
805.199	26457
805.341	26663
805.483	26629
805.626	26674
805.768	26686
805.91	26663
806.052	26693
806.194	26564
806.336	26830
806.478	26693
806.62	26621
806.762	26785
806.904	26876
807.046	27325
807.188	27116
807.33	27157
807.472	27203
807.614	27036
807.756	27176
807.898	27001
808.04	26918
808.182	26876
808.324	27058
808.465	27074
808.607	27211
808.749	27222
808.891	27431
809.033	27325
809.174	27416
809.316	27412
809.458	27317
809.6	27199
809.741	27386
809.883	27500
810.025	27542
810.166	27724
810.308	27553
810.45	27466
810.591	27447
810.733	27424
810.875	27332
811.016	27195
811.158	27279
811.299	27363
811.441	27469
811.582	27454
811.724	27374
811.865	27230
812.007	27169
812.148	27374
812.29	27466
812.431	27386
812.573	27561
812.714	27641
812.855	27785
812.997	27816
813.138	27953
813.279	27941
813.421	27831
813.562	27724
813.703	27583
813.845	27538
813.986	27188
814.127	27024
814.268	27058
814.41	27119
814.551	27074
814.692	27051
814.833	26937
814.974	26830
815.115	26963
815.256	26804
815.397	26811
815.539	26906
815.68	26762
815.821	26697
815.962	26819
816.103	26663
816.244	26640
816.385	26522
816.526	26347
816.666	26290
816.807	26107
816.948	26339
817.089	26336
817.23	26191
817.371	26240
817.512	26210
817.653	26252
817.793	26050
817.934	26168
818.075	26233
818.216	26225
818.356	26164
818.497	26115
818.638	26016
818.778	26016
818.919	25986
819.06	26077
819.2	26111
819.341	26191
819.481	26263
819.622	26301
819.762	26495
819.903	26568
820.043	26355
820.184	26282
820.324	26248
820.465	26347
820.605	26332
820.746	26347
820.886	26176
821.026	26187
821.167	26339
821.307	26324
821.447	26244
821.588	26046
821.728	25970
821.868	25852
822.008	25563
822.149	25693
822.289	25746
822.429	25426
822.569	25419
822.709	25327
822.849	25198
822.99	25225
823.13	25133
823.27	25122
823.41	25038
823.55	24817
823.69	25069
823.83	25038
823.97	24913
824.11	24722
824.25	24844
824.389	24859
824.529	24871
824.669	24703
824.809	24909
824.949	24890
825.089	24901
825.228	24875
825.368	24726
825.508	24559
825.648	24749
825.787	24642
825.927	24593
826.067	24627
826.206	24658
826.346	24661
826.485	24795
826.625	24734
826.765	24719
826.904	24688
827.044	24441
827.183	24555
827.323	24395
827.462	24384
827.601	24388
827.741	24372
827.88	24365
828.02	24228
828.159	24422
828.298	24327
828.437	24403
828.577	24262
828.716	24319
828.855	24342
828.994	24110
829.134	24034
829.273	24121
829.412	23889
829.551	23958
829.69	24018
829.829	24121
829.968	24285
830.107	24136
830.246	23961
830.385	24102
830.524	23969
830.663	23954
830.802	23745
830.941	23699
831.08	23547
831.219	23817
831.357	23802
831.496	23897
831.635	23672
831.774	23592
831.913	23512
832.051	23490
832.19	23539
832.329	23497
832.467	23353
832.606	23334
832.744	23322
832.883	23273
833.022	23299
833.16	23212
833.299	23505
833.437	23296
833.576	23531
833.714	23277
833.852	23436
833.991	23493
834.129	23509
834.267	23554
834.406	23322
834.544	23379
834.682	23501
834.821	23299
834.959	23547
835.097	23414
835.235	23497
835.373	23349
835.511	23318
835.65	23162
835.788	23235
835.926	23083
836.064	23086
836.202	23064
836.34	23208
836.478	23269
836.615	23280
836.753	23223
836.891	23292
837.029	23277
837.167	23094
837.305	23079
837.443	23098
837.58	23048
837.718	23132
837.856	23132
837.993	22965
838.131	23064
838.269	22919
838.406	23166
838.544	22946
838.681	22793
838.819	22786
838.956	22478
839.094	22588
839.231	22649
839.369	22778
839.506	22934
839.643	22930
839.781	22645
839.918	22409
840.055	22672
840.193	22542
840.33	22542
840.467	22527
840.604	22592
840.742	22771
840.879	22421
841.016	22565
841.153	22284
841.29	22474
841.427	22592
841.564	22508
841.701	22577
841.838	22382
841.975	22341
842.112	22398
842.249	22367
842.385	22177
842.522	22516
842.659	22341
842.796	22356
842.933	22318
843.069	22246
843.206	22204
843.343	22242
843.479	22223
843.616	22318
843.752	22006
843.889	22040
844.025	22181
844.162	21979
844.298	22105
844.435	21994
844.571	21937
844.708	21960
844.844	22177
844.98	22272
845.117	22078
845.253	21934
845.389	21953
845.525	21956
845.661	21903
845.798	21778
845.934	21755
846.07	21717
846.206	21793
846.342	21857
846.478	21743
846.614	21500
846.75	21447
846.886	21458
847.022	21614
847.158	21431
847.294	21511
847.429	21561
847.565	21382
847.701	21747
847.837	21169
847.972	21279
848.108	21291
848.244	21218
848.379	21173
848.515	21074
848.65	21100
848.786	21077
848.921	21036
849.057	21150
849.192	21165
849.328	21161
849.463	21199
849.598	21093
849.734	21005
849.869	20979
850.004	20861
850.14	20883
850.275	20925
850.41	20777
850.545	20861
850.68	20724
850.815	20933
850.95	20720
851.085	21017
851.22	20883
851.355	20891
851.49	20807
851.625	20887
851.76	20754
851.895	20777
852.03	20834
852.165	20845
852.299	20857
852.434	20819
852.569	20811
852.703	20887
852.838	20941
852.973	21028
853.107	20967
853.242	20899
853.376	20785
853.511	20511
853.645	20545
853.78	20746
853.914	20689
854.048	20640
854.183	20651
854.317	20857
854.451	20876
854.585	20701
854.72	20590
854.854	20765
854.988	20724
855.122	20739
855.256	20571
855.39	20552
855.524	20792
855.658	20693
855.792	20648
855.926	20773
856.06	20651
856.194	20693
856.327	20530
856.461	20625
856.595	20659
856.729	20602
856.862	20823
856.996	20796
857.13	20777
857.263	20830
857.397	20754
857.53	20644
857.664	20655
857.797	20667
857.931	20746
858.064	20689
858.197	20796
858.331	20663
858.464	20644
858.597	20556
858.731	20552
858.864	20560
858.997	20655
859.13	20667
859.263	20598
859.396	20716
859.529	20651
859.662	20708
859.795	20579
859.928	20769
860.061	20762
860.194	20853
860.327	20716
860.46	20636
860.592	20800
860.725	20773
860.858	20587
860.99	20678
861.123	20598
861.256	20587
861.388	20674
861.521	21252
861.653	20602
861.786	20480
861.918	20602
862.05	20492
862.183	20560
862.315	20678
862.447	20773
862.58	20549
862.712	20412
862.844	20374
862.976	20541
863.108	20495
863.24	20815
863.372	20225
863.504	20434
863.636	20404
863.768	20393
863.9	20488
864.032	20351
864.164	20339
864.296	20442
864.428	20526
864.559	20400
864.691	20503
864.823	20317
864.954	20438
865.086	20385
865.217	20313
865.349	20210
865.48	20309
865.612	20298
865.743	20427
865.875	20343
866.006	20084
866.137	20309
866.269	20328
866.4	20309
866.531	20252
866.662	20199
866.793	20282
866.924	20210
867.055	20305
867.186	20271
867.317	20202
867.448	20240
867.579	20092
867.71	20119
867.841	20176
867.972	20229
868.103	20282
868.233	20164
868.364	20176
868.495	20282
868.625	20511
868.756	20484
868.886	20393
869.017	20427
869.147	20606
869.278	20648
869.408	20480
869.539	20499
869.669	20476
869.799	20568
869.929	20609
870.06	20507
870.19	20811
870.32	20762
870.45	20872
870.58	20921
870.71	21013
870.84	21028
870.97	20823
871.1	20861
871.23	21028
871.36	21047
871.489	20982
871.619	21104
871.749	21017
871.879	21062
872.008	21161
872.138	21135
872.267	21150
872.397	20914
872.526	20815
872.656	20979
872.785	20895
872.915	21142
873.044	21207
873.173	21157
873.303	21135
873.432	21127
873.561	21119
873.69	21081
873.819	21211
873.948	21154
874.077	21055
874.206	21032
874.335	21062
874.464	21169
874.593	21317
874.722	21382
874.851	21424
874.979	21332
875.108	21405
875.237	21351
875.365	21226
875.494	21332
875.623	21610
875.751	21317
875.88	21378
876.008	21386
876.136	21660
876.265	21724
876.393	21937
876.521	21838
876.65	21884
876.778	21736
876.906	21747
877.034	21698
877.162	21781
877.29	21679
877.418	21694
877.546	21808
877.674	21751
877.802	21576
877.93	21644
878.058	21713
878.185	21633
878.313	21606
878.441	21603
878.568	21515
878.696	21534
878.824	21743
878.951	21724
879.079	21785
879.206	21930
879.333	21842
879.461	21766
879.588	21762
879.715	21922
879.842	21869
879.97	21759
880.097	21507
880.224	21515
880.351	21572
880.478	21599
880.605	21466
880.732	21481
880.859	21694
880.986	21435
881.112	21511
881.239	21378
881.366	21249
881.493	21256
881.619	21066
881.746	21104
881.872	21055
881.999	21013
882.125	21081
882.252	21131
882.378	21036
882.505	21321
882.631	20952
882.757	20804
882.883	20899
883.01	20853
883.136	20823
883.262	20739
883.388	20682
883.514	20830
883.64	20758
883.766	20758
883.892	20560
884.018	20629
884.143	20834
884.269	20811
884.395	20473
884.52	20537
884.646	20511
884.772	20362
884.897	20358
885.023	20488
885.148	20533
885.274	20640
885.399	20587
885.524	20434
885.65	20499
885.775	20602
885.9	20450
886.025	20613
886.15	20400
886.275	20320
886.4	20282
886.525	20446
886.65	20358
886.775	20415
886.9	20492
887.025	20682
887.149	20351
887.274	20126
887.399	20233
887.523	20339
887.648	20282
887.773	20161
887.897	20381
888.021	20400
888.146	20142
888.27	20290
888.395	20290
888.519	20187
888.643	20237
888.767	20225
888.891	20062
889.015	20084
889.139	20176
889.263	20138
889.387	20138
889.511	20229
889.635	20191
889.759	19974
889.883	19955
890.006	20168
890.13	20176
890.254	20020
890.377	20005
890.501	19849
890.624	19803
890.748	19902
890.871	19666
890.995	19582
891.118	19632
891.241	19628
891.364	19506
891.488	19700
891.611	19620
891.734	19643
891.857	19776
891.98	19460
892.103	19685
892.226	19639
892.349	19556
892.471	19289
892.594	19518
892.717	19559
892.839	19495
892.962	19521
893.085	19624
893.207	19521
893.33	19472
893.452	19460
893.575	19525
893.697	19518
893.819	19734
893.941	19734
894.064	19738
894.186	19616
894.308	19529
894.43	19628
894.552	19696
894.674	19712
894.796	19407
894.918	19457
895.04	19491
895.161	19616
895.283	19605
895.405	19445
895.526	19601
895.648	19563
895.769	19529
895.891	19609
896.012	19597
896.134	19594
896.255	19563
896.376	19457
896.498	19460
896.619	19529
896.74	19582
896.861	19677
896.982	19769
897.103	19993
897.224	19738
897.345	19750
897.466	19674
897.587	19791
897.708	19837
897.828	19734
897.949	19666
898.07	19696
898.19	19704
898.311	19856
898.431	19677
898.552	19780
898.672	19947
898.792	19883
898.913	19769
899.033	19685
899.153	19658
899.273	19381
899.393	19594
899.513	19582
899.633	19499
899.753	19449
899.873	19407
899.993	19559
900.113	19518
900.232	19476
900.352	19525
900.472	19362
900.591	19388
900.711	19396
900.83	19289
900.95	19415
901.069	19419
901.189	19133
901.308	19004
901.427	18859
901.546	18741
901.665	18867
901.784	18878
901.904	18795
902.023	18741
902.141	18517
902.26	18429
902.379	18513
902.498	18418
902.617	18452
902.735	18433
902.854	18578
902.973	18350
903.091	18209
903.21	18174
903.328	18140
903.446	18064
903.565	17863
903.683	17920
903.801	17729
903.919	17828
904.038	17786
904.156	17695
904.274	17783
904.392	17665
904.51	17630
904.627	17733
904.745	17760
904.863	17680
904.981	17417
905.098	17486
905.216	17398
905.334	17387
905.451	17452
905.569	17349
905.686	17414
905.803	17318
905.921	17124
906.038	17178
906.155	17246
906.272	17033
906.389	17083
906.506	16980
906.623	16930
906.74	16866
906.857	16710
906.974	16809
907.091	16968
907.208	16991
907.324	16953
907.441	16721
907.557	16630
907.674	16729
907.79	16561
907.907	16599
908.023	16679
908.139	16664
908.256	16599
908.372	16561
908.488	16531
908.604	16402
908.72	16261
908.836	16436
908.952	16287
909.068	16367
909.184	16413
909.3	16268
909.415	16440
909.531	16360
909.647	16040
909.762	16048
909.878	16135
909.993	16029
910.108	16048
910.224	16010
910.339	16013
910.454	15930
910.57	15823
910.685	15804
910.8	15956
910.915	16013
911.03	15857
911.145	15728
911.259	15549
911.374	15701
911.489	15644
911.604	15561
911.718	15428
911.833	15469
911.947	15344
912.062	15233
912.176	15492
912.291	15481
912.405	15447
912.519	15671
912.633	15580
912.748	15416
912.862	15317
912.976	15272
913.09	15112
913.204	15192
913.318	15233
913.431	15298
913.545	15370
913.659	15367
913.772	15207
913.886	15085
914	15047
914.113	15119
914.226	15184
914.34	15104
914.453	14967
914.566	14986
914.68	14925
914.793	14925
914.906	14739
915.019	14701
915.132	14598
915.245	14549
915.358	14712
915.47	14716
915.583	14735
915.696	14773
915.809	14750
915.921	14883
916.034	14587
916.146	14488
916.259	14598
916.371	14663
916.483	14598
916.595	14434
916.708	14431
916.82	14446
916.932	14499
917.044	14457
917.156	14362
917.268	14301
917.38	14396
917.491	14259
917.603	14336
917.715	14415
917.826	14400
917.938	14233
918.049	14263
918.161	14271
918.272	14427
918.384	14446
918.495	14214
918.606	14195
918.717	13936
918.828	14126
918.939	14088
919.05	13970
919.161	14077
919.272	13814
919.383	13970
919.494	14161
919.604	14233
919.715	14176
919.826	14027
919.936	14107
920.047	14103
920.157	14012
920.267	14275
920.378	14054
920.488	13959
920.598	14206
920.708	14366
920.818	14187
920.928	14096
921.038	14389
921.148	14362
921.258	14077
921.368	14043
921.477	13909
921.587	13757
921.697	13632
921.806	13772
921.916	13643
922.025	13575
922.134	13460
922.244	13388
922.353	13491
922.462	13381
922.571	13278
922.68	13141
922.789	13110
922.898	13095
923.007	13080
923.116	13190
923.224	13103
923.333	13107
923.442	12985
923.55	12913
923.659	12871
923.767	12989
923.876	12913
923.984	13019
924.092	12859
924.201	12878
924.309	12875
924.417	12882
924.525	12798
924.633	12806
924.741	13578
924.849	12555
924.956	12658
925.064	12540
925.172	12498
925.279	12563
925.387	12517
925.494	12513
925.602	12631
925.709	12608
925.816	12464
925.924	12486
926.031	12574
926.138	12426
926.245	12559
926.352	12391
926.459	12578
926.566	12601
926.673	12414
926.779	12266
926.886	12292
926.993	12232
927.099	12095
927.206	12163
927.312	12106
927.419	12163
927.525	12110
927.631	12133
927.737	12057
927.843	12045
927.95	11855
928.056	11897
928.162	11992
928.267	11961
928.373	12635
928.479	12068
928.585	11870
928.69	11923
928.796	11912
928.901	11874
929.007	11760
929.112	11828
929.218	11786
929.323	11733
929.428	11703
929.533	11870
929.638	11676
929.743	11589
929.848	11756
929.953	11570
930.058	11520
930.163	11395
930.267	11391
930.372	11524
930.477	11307
930.581	11611
930.685	11512
930.79	11341
930.894	11242
930.998	11345
931.103	11364
931.207	11056
931.311	10942
931.415	10866
931.519	10691
931.623	10660
