Data from test_V78500241_2188.txt Node
Date: Fri Mar 25 15:25:05 CST 2022
User: usil
Spectrometer: V785-0024
Trigger mode: 0
Integration Time (sec): 4.000000E-1
Scans to average: 1
Nonlinearity correction enabled: false
Boxcar width: 0
Storing dark spectrum: false
XAxis mode: Wavelengths
Number of Pixels in Spectrum: 1024
>>>>>Begin Spectral Data<<<<<
801.071	27804
801.214	27641
801.356	27530
801.499	27321
801.641	27340
801.783	27306
801.926	27348
802.068	27424
802.211	27291
802.353	27104
802.496	26944
802.638	27051
802.78	26902
802.923	26910
803.065	27024
803.208	26868
803.35	26876
803.492	27013
803.635	27138
803.777	27055
803.919	27119
804.061	27500
804.204	27161
804.346	27017
804.488	27199
804.63	27157
804.773	27020
804.915	27192
805.057	27108
805.199	27199
805.341	27237
805.483	27291
805.626	27226
805.768	27157
805.91	27378
806.052	27188
806.194	27089
806.336	27481
806.478	27291
806.62	27275
806.762	27363
806.904	27427
807.046	27751
807.188	27774
807.33	27580
807.472	27755
807.614	27599
807.756	27652
807.898	27599
808.04	27435
808.182	27507
808.324	27485
808.465	27660
808.607	27774
808.749	27831
808.891	27987
809.033	28166
809.174	27926
809.316	27797
809.458	27880
809.6	27884
809.741	28192
809.883	27979
810.025	28169
810.166	28318
810.308	28246
810.45	27914
810.591	28078
810.733	27941
810.875	27838
811.016	27857
811.158	27679
811.299	27926
811.441	28063
811.582	28112
811.724	27907
811.865	27804
812.007	27812
812.148	27835
812.29	27892
812.431	27975
812.573	28200
812.714	28299
812.855	28466
812.997	28542
813.138	28588
813.279	28596
813.421	28356
813.562	28322
813.703	28246
813.845	28074
813.986	27835
814.127	27873
814.268	27523
814.41	27682
814.551	27682
814.692	27595
814.833	27549
814.974	27454
815.115	27587
815.256	27534
815.397	27496
815.539	27568
815.68	27310
815.821	27294
815.962	27298
816.103	27287
816.244	27233
816.385	27188
816.526	27058
816.666	26929
816.807	26845
816.948	26796
817.089	26963
817.23	26823
817.371	26864
817.512	26743
817.653	26796
817.793	26830
817.934	26834
818.075	26826
818.216	26952
818.356	26743
818.497	26754
818.638	26720
818.778	26484
818.919	26556
819.06	26587
819.2	26678
819.341	26785
819.481	26838
819.622	26952
819.762	27245
819.903	27077
820.043	26944
820.184	26895
820.324	26838
820.465	26998
820.605	26990
820.746	26937
820.886	26823
821.026	27077
821.167	26815
821.307	26883
821.447	26864
821.588	26788
821.728	26469
821.868	26419
822.008	26412
822.149	26286
822.289	26298
822.429	26016
822.569	25989
822.709	25955
822.849	25906
822.99	25871
823.13	25902
823.27	25780
823.41	25643
823.55	25590
823.69	25655
823.83	25628
823.97	25590
824.11	25457
824.25	25457
824.389	25449
824.529	25499
824.669	25575
824.809	25677
824.949	25479
825.089	25445
825.228	25453
825.368	25419
825.508	25396
825.648	25247
825.787	25460
825.927	25495
826.067	25171
826.206	25213
826.346	25350
826.485	25495
826.625	25282
826.765	25460
826.904	25381
827.044	25107
827.183	25145
827.323	25008
827.462	25080
827.601	24981
827.741	24943
827.88	24958
828.02	25019
828.159	25004
828.298	25053
828.437	25046
828.577	24878
828.716	25232
828.855	24837
828.994	24772
829.134	24863
829.273	24867
829.412	24749
829.551	24738
829.69	24753
829.829	24757
829.968	24707
830.107	24707
830.246	24715
830.385	24684
830.524	24536
830.663	24631
830.802	24498
830.941	24399
831.08	24266
831.219	24357
831.357	24414
831.496	24483
831.635	24380
831.774	24281
831.913	24224
832.051	24228
832.19	24057
832.329	24114
832.467	23980
832.606	23866
832.744	23973
832.883	23882
833.022	24038
833.16	24015
833.299	24038
833.437	24190
833.576	24129
833.714	23969
833.852	24057
833.991	24011
834.129	24243
834.267	24102
834.406	24083
834.544	24060
834.682	24064
834.821	24018
834.959	24095
835.097	23950
835.235	24064
835.373	24068
835.511	24102
835.65	23874
835.788	23882
835.926	23817
836.064	23699
836.202	23718
836.34	23870
836.478	23912
836.615	23851
836.753	23882
836.891	23969
837.029	23969
837.167	23893
837.305	23901
837.443	23843
837.58	23699
837.718	23760
837.856	23870
837.993	23585
838.131	23604
838.269	23611
838.406	23566
838.544	23463
838.681	23379
838.819	23307
838.956	23223
839.094	23174
839.231	23227
839.369	23353
839.506	23497
839.643	23322
839.781	23170
839.918	23064
840.055	23098
840.193	23067
840.33	23033
840.467	23143
840.604	23204
840.742	23471
840.879	22968
841.016	23117
841.153	23048
841.29	23113
841.427	23117
841.564	23185
841.701	23033
841.838	22972
841.975	23014
842.112	23014
842.249	22873
842.385	22820
842.522	23079
842.659	22908
842.796	22801
842.933	22942
843.069	22752
843.206	22812
843.343	22953
843.479	23014
843.616	22820
843.752	22603
843.889	22675
844.025	22831
844.162	22512
844.298	22797
844.435	22538
844.571	22596
844.708	22634
844.844	22847
844.98	22641
845.117	22748
845.253	22637
845.389	22527
845.525	22489
845.661	22580
845.798	22390
845.934	22394
846.07	22382
846.206	22348
846.342	22504
846.478	22219
846.614	22204
846.75	22063
846.886	22006
847.022	22303
847.158	22116
847.294	22090
847.429	22032
847.565	22017
847.701	22390
847.837	21949
847.972	21759
848.108	21899
848.244	21903
848.379	21827
848.515	21789
848.65	21614
848.786	21724
848.921	21819
849.057	21766
849.192	21736
849.328	21739
849.463	21701
849.598	21690
849.734	21572
849.869	21447
850.004	21477
850.14	21473
850.275	21488
850.41	21348
850.545	21450
850.68	21389
850.815	21431
850.95	21405
851.085	21732
851.22	21641
851.355	21538
851.49	21454
851.625	21454
851.76	21393
851.895	21389
852.03	21233
852.165	21374
852.299	21386
852.434	21469
852.569	21401
852.703	21344
852.838	21447
852.973	21545
853.107	21458
853.242	21348
853.376	21313
853.511	21199
853.645	21260
853.78	21386
853.914	21405
854.048	21135
854.183	21294
854.317	21184
854.451	21580
854.585	21256
854.72	21420
854.854	21386
854.988	21230
855.122	21245
855.256	21169
855.39	21325
855.524	21367
855.658	21279
855.792	21199
855.926	21279
856.06	21389
856.194	21302
856.327	21359
856.461	21138
856.595	21184
856.729	21188
856.862	21443
856.996	21348
857.13	21439
857.263	21348
857.397	21412
857.53	21146
857.664	21275
857.797	21291
857.931	21325
858.064	21317
858.197	21488
858.331	21321
858.464	21283
858.597	21199
858.731	21077
858.864	21173
858.997	21260
859.13	21222
859.263	21222
859.396	21370
859.529	21252
859.662	21199
859.795	21218
859.928	21306
860.061	21454
860.194	21378
860.327	21226
860.46	21298
860.592	21355
860.725	21412
860.858	21447
860.99	21195
861.123	21176
861.256	21207
861.388	21226
861.521	21968
861.653	21104
861.786	21070
861.918	21085
862.05	21150
862.183	21306
862.315	21165
862.447	21382
862.58	21176
862.712	21013
862.844	21039
862.976	21074
863.108	21093
863.24	21317
863.372	20914
863.504	21001
863.636	20883
863.768	21017
863.9	20990
864.032	20971
864.164	20937
864.296	20929
864.428	21207
864.559	20944
864.691	20990
864.823	20956
864.954	20975
865.086	21009
865.217	20845
865.349	20838
865.48	20853
865.612	20731
865.743	20967
865.875	20811
866.006	20883
866.137	20842
866.269	20914
866.4	20910
866.531	20758
866.662	20758
866.793	20754
866.924	20921
867.055	20868
867.186	20796
867.317	20743
867.448	20697
867.579	20716
867.71	20777
867.841	20750
867.972	20853
868.103	20788
868.233	20796
868.364	20765
868.495	20956
868.625	21020
868.756	21070
868.886	20963
869.017	21062
869.147	21066
869.278	21039
869.408	21024
869.539	21028
869.669	21131
869.799	21051
869.929	21123
870.06	21180
870.19	21268
870.32	21344
870.45	21397
870.58	21412
870.71	21557
870.84	21473
870.97	21408
871.1	21450
871.23	21595
871.36	21538
871.489	21542
871.619	21557
871.749	21595
871.879	21614
872.008	21831
872.138	21667
872.267	21690
872.397	21511
872.526	21405
872.656	21408
872.785	21397
872.915	21622
873.044	21724
873.173	21682
873.303	21759
873.432	21694
873.561	21739
873.69	21675
873.819	21686
873.948	21698
874.077	21622
874.206	21583
874.335	21610
874.464	21880
874.593	21899
874.722	21766
874.851	21808
874.979	21838
875.108	21873
875.237	21808
875.365	21789
875.494	21846
875.623	21972
875.751	21934
875.88	21903
876.008	21983
876.136	22013
876.265	22257
876.393	22363
876.521	22314
876.65	22318
876.778	22337
876.906	22215
877.034	22211
877.162	22223
877.29	22200
877.418	22253
877.546	22310
877.674	22188
877.802	22253
877.93	22249
878.058	22154
878.185	22268
878.313	22131
878.441	22192
878.568	22006
878.696	22306
878.824	22291
878.951	22367
879.079	22185
879.206	22519
879.333	22306
879.461	22299
879.588	22284
879.715	22325
879.842	22580
879.97	22451
880.097	22051
880.224	22067
880.351	22021
880.478	22025
880.605	22025
880.732	22105
880.859	22386
880.986	22002
881.112	21972
881.239	21941
881.366	21892
881.493	21618
881.619	21686
881.746	21785
881.872	21671
881.999	21633
882.125	21549
882.252	21751
882.378	21610
882.505	21705
882.631	21469
882.757	21298
882.883	21393
883.01	21428
883.136	21146
883.262	21245
883.388	21089
883.514	21393
883.64	21317
883.766	21214
883.892	21119
884.018	21085
884.143	21176
884.269	21351
884.395	21089
884.52	20876
884.646	21028
884.772	20944
884.897	20956
885.023	21020
885.148	21093
885.274	21051
885.399	20979
885.524	20902
885.65	21108
885.775	20906
885.9	20941
886.025	21062
886.15	21039
886.275	20861
886.4	20979
886.525	20899
886.65	20857
886.775	20823
886.9	21001
887.025	21112
887.149	20914
887.274	20750
887.399	20800
887.523	20815
887.648	20724
887.773	20632
887.897	20796
888.021	20773
888.146	20617
888.27	20750
888.395	20769
888.519	20765
888.643	20686
888.767	20765
888.891	20663
889.015	20495
889.139	20526
889.263	20545
889.387	20724
889.511	20712
889.635	20716
889.759	20385
889.883	20469
890.006	20606
890.13	20727
890.254	20476
890.377	20332
890.501	20377
890.624	20229
890.748	20263
890.871	20142
890.995	20107
891.118	20100
891.241	20050
891.364	20008
891.488	20381
891.611	20027
891.734	20039
891.857	20164
891.98	20035
892.103	20130
892.226	20210
892.349	20100
892.471	19769
892.594	20062
892.717	20088
892.839	19955
892.962	20020
893.085	20149
893.207	19959
893.33	19803
893.452	19951
893.575	20020
893.697	19997
893.819	20195
893.941	20199
894.064	20043
894.186	19841
894.308	19925
894.43	20084
894.552	20027
894.674	20145
894.796	19955
894.918	19883
895.04	20008
895.161	19970
895.283	19959
895.405	20092
895.526	20020
895.648	19921
895.769	20012
895.891	20020
896.012	20084
896.134	20096
896.255	20092
896.376	19909
896.498	20065
896.619	19909
896.74	20050
896.861	20031
896.982	20328
897.103	20484
897.224	20377
897.345	20355
897.466	20122
897.587	20229
897.708	20271
897.828	20195
897.949	20210
898.07	20111
898.19	20092
898.311	20267
898.431	20252
898.552	20305
898.672	20294
898.792	20183
898.913	20305
899.033	20244
899.153	20073
899.273	20024
899.393	20043
899.513	19928
899.633	19989
899.753	20027
899.873	19898
899.993	19970
900.113	19940
900.232	19925
900.352	19944
900.472	19856
900.591	19753
900.711	19765
900.83	19575
900.95	19849
901.069	19879
901.189	19658
901.308	19480
901.427	19411
901.546	19282
901.665	19373
901.784	19411
901.904	19221
902.023	19099
902.141	18848
902.26	18939
902.379	18985
902.498	18977
902.617	18833
902.735	18837
902.854	18844
902.973	18749
903.091	18646
903.21	18616
903.328	18460
903.446	18509
903.565	18369
903.683	18224
903.801	18251
903.919	18323
904.038	18201
904.156	18091
904.274	18186
904.392	18117
904.51	18148
904.627	18148
904.745	18133
904.863	18155
904.981	17931
905.098	17672
905.216	17783
905.334	17794
905.451	17798
905.569	17748
905.686	17790
905.803	17771
905.921	17551
906.038	17710
906.155	17661
906.272	17395
906.389	17516
906.506	17410
906.623	17322
906.74	17231
906.857	17220
906.974	17204
907.091	17429
907.208	17486
907.324	17242
907.441	17166
907.557	17162
907.674	17109
907.79	16999
907.907	17083
908.023	16991
908.139	17064
908.256	16984
908.372	16896
908.488	16942
908.604	16797
908.72	16767
908.836	16736
908.952	16725
909.068	16847
909.184	16816
909.3	16645
909.415	16683
909.531	16790
909.647	16455
909.762	16485
909.878	16497
909.993	16447
910.108	16363
910.224	16493
910.339	16447
910.454	16219
910.57	16223
910.685	16226
910.8	16428
910.915	16417
911.03	16261
911.145	16131
911.259	16109
911.374	16067
911.489	15964
911.604	15884
911.718	15808
911.833	15747
911.947	15660
912.062	15671
912.176	15789
912.291	15774
912.405	15751
912.519	16002
912.633	15907
912.748	15835
912.862	15736
912.976	15595
913.09	15500
913.204	15694
913.318	15644
913.431	15622
913.545	15686
913.659	15679
913.772	15504
913.886	15431
914	15488
914.113	15599
914.226	15553
914.34	15572
914.453	15332
914.566	15424
914.68	15195
914.793	15241
914.906	15112
915.019	15009
915.132	14979
915.245	14918
915.358	14971
915.47	15013
915.583	15024
915.696	15039
915.809	15097
915.921	15154
916.034	14971
916.146	14933
916.259	14902
916.371	14956
916.483	14899
916.595	14876
916.708	14800
916.82	14853
916.932	14807
917.044	14849
917.156	14792
917.268	14708
917.38	14804
917.491	14731
917.603	14583
917.715	14781
917.826	14712
917.938	14682
918.049	14545
918.161	14693
918.272	14712
918.384	14716
918.495	14602
918.606	14427
918.717	14442
918.828	14442
918.939	14583
919.05	14271
919.161	14370
919.272	14278
919.383	14309
919.494	14396
919.604	14571
919.715	14438
919.826	14305
919.936	14381
920.047	14415
920.157	14419
920.267	14499
920.378	14419
920.488	14320
920.598	14587
920.708	14617
920.818	14522
920.928	14530
921.038	14739
921.148	14689
921.258	14457
921.368	14252
921.477	14233
921.587	14168
921.697	14065
921.806	14187
921.916	13993
922.025	13822
922.134	13753
922.244	13746
922.353	13765
922.462	13620
922.571	13632
922.68	13525
922.789	13430
922.898	13430
923.007	13244
923.116	13468
923.224	13400
923.333	13373
923.442	13251
923.55	13282
923.659	13251
923.767	13240
923.876	13209
923.984	13266
924.092	13164
924.201	13152
924.309	13145
924.417	13122
924.525	13107
924.633	13065
924.741	13731
924.849	12954
924.956	13053
925.064	12878
925.172	12772
925.279	12837
925.387	12745
925.494	12825
925.602	13004
925.709	12871
925.816	12707
925.924	12814
926.031	12886
926.138	12772
926.245	12802
926.352	12730
926.459	12825
926.566	12867
926.673	12741
926.779	12623
926.886	12623
926.993	12498
927.099	12475
927.206	12388
927.312	12365
927.419	12467
927.525	12418
927.631	12486
927.737	12323
927.843	12285
927.95	12140
928.056	12235
928.162	12292
928.267	12304
928.373	12863
928.479	12292
928.585	12053
928.69	12224
928.796	12190
928.901	12019
929.007	12007
929.112	12133
929.218	12083
929.323	11939
929.428	11927
929.533	12140
929.638	11859
929.743	11847
929.848	12026
929.953	11950
930.058	11813
930.163	11585
930.267	11630
930.372	11775
930.477	11630
930.581	11874
930.685	11661
930.79	11486
930.894	11592
930.998	11482
931.103	11668
931.207	11326
931.311	11201
931.415	11071
931.519	10934
931.623	10953
