Data from test_V78500241_333.txt Node
Date: Fri Mar 25 15:12:10 CST 2022
User: usil
Spectrometer: V785-0024
Trigger mode: 0
Integration Time (sec): 4.000000E-1
Scans to average: 1
Nonlinearity correction enabled: false
Boxcar width: 0
Storing dark spectrum: false
XAxis mode: Wavelengths
Number of Pixels in Spectrum: 1024
>>>>>Begin Spectral Data<<<<<
801.071	27013
801.214	26868
801.356	26944
801.499	26864
801.641	26560
801.783	26617
801.926	26701
802.068	26659
802.211	26640
802.353	26522
802.496	26423
802.638	26408
802.78	26320
802.923	26107
803.065	26092
803.208	26176
803.35	26313
803.492	26294
803.635	26332
803.777	26396
803.919	26355
804.061	26670
804.204	26438
804.346	26313
804.488	26339
804.63	26347
804.773	26275
804.915	26301
805.057	26465
805.199	26446
805.341	26370
805.483	26549
805.626	26492
805.768	26393
805.91	26644
806.052	26533
806.194	26355
806.336	26750
806.478	26507
806.62	26492
806.762	26621
806.904	26804
807.046	26902
807.188	26849
807.33	26929
807.472	27055
807.614	26861
807.756	26830
807.898	26826
808.04	26655
808.182	26632
808.324	26895
808.465	26606
808.607	26815
808.749	26921
808.891	27089
809.033	27291
809.174	27230
809.316	27066
809.458	27089
809.6	27001
809.741	27146
809.883	27378
810.025	27443
810.166	27256
810.308	27321
810.45	27252
810.591	27325
810.733	27241
810.875	26990
811.016	27131
811.158	27009
811.299	27207
811.441	27252
811.582	27176
811.724	26971
811.865	27013
812.007	27047
812.148	27192
812.29	27104
812.431	27135
812.573	27382
812.714	27389
812.855	27557
812.997	27618
813.138	27827
813.279	27732
813.421	27603
813.562	27682
813.703	27405
813.845	27332
813.986	27131
814.127	26781
814.268	26720
814.41	26701
814.551	26724
814.692	26796
814.833	26769
814.974	26670
815.115	26705
815.256	26587
815.397	26708
815.539	26659
815.68	26689
815.821	26381
815.962	26438
816.103	26530
816.244	26396
816.385	26305
816.526	26252
816.666	25997
816.807	26069
816.948	26119
817.089	26130
817.23	25917
817.371	25947
817.512	25932
817.653	26035
817.793	25898
817.934	25940
818.075	25989
818.216	25894
818.356	25940
818.497	25799
818.638	25826
818.778	25738
818.919	25791
819.06	25712
819.2	25818
819.341	25966
819.481	25887
819.622	26202
819.762	26301
819.903	26271
820.043	26153
820.184	26199
820.324	26054
820.465	26062
820.605	26096
820.746	26088
820.886	25978
821.026	25982
821.167	26111
821.307	25966
821.447	26001
821.588	25875
821.728	25765
821.868	25655
822.008	25514
822.149	25327
822.289	25377
822.429	25301
822.569	25232
822.709	25179
822.849	24966
822.99	25000
823.13	24943
823.27	24837
823.41	24696
823.55	24646
823.69	24852
823.83	24821
823.97	24623
824.11	24616
824.25	24479
824.389	24639
824.529	24669
824.669	24540
824.809	24574
824.949	24604
825.089	24726
825.228	24635
825.368	24471
825.508	24422
825.648	24414
825.787	24479
825.927	24456
826.067	24437
826.206	24395
826.346	24471
826.485	24460
826.625	24475
826.765	24582
826.904	24452
827.044	24190
827.183	24243
827.323	24197
827.462	24159
827.601	24216
827.741	24159
827.88	24194
828.02	23984
828.159	24247
828.298	24178
828.437	24346
828.577	23961
828.716	24106
828.855	23999
828.994	23980
829.134	23843
829.273	23851
829.412	23870
829.551	23874
829.69	24098
829.829	23893
829.968	23893
830.107	23992
830.246	23897
830.385	23855
830.524	23741
830.663	23638
830.802	23581
830.941	23455
831.08	23417
831.219	23471
831.357	23474
831.496	23767
831.635	23589
831.774	23364
831.913	23349
832.051	23269
832.19	23360
832.329	23311
832.467	23105
832.606	23105
832.744	23140
832.883	23010
833.022	23166
833.16	23178
833.299	23056
833.437	23098
833.576	23258
833.714	23254
833.852	23273
833.991	23284
834.129	23170
834.267	23288
834.406	23208
834.544	23330
834.682	23349
834.821	23239
834.959	23353
835.097	23223
835.235	23162
835.373	23193
835.511	23235
835.65	23041
835.788	23102
835.926	22904
836.064	22835
836.202	22938
836.34	23083
836.478	23143
836.615	22999
836.753	23090
836.891	23189
837.029	23124
837.167	23105
837.305	22927
837.443	22938
837.58	22934
837.718	23033
837.856	22999
837.993	22820
838.131	23014
838.269	22786
838.406	22786
838.544	22763
838.681	22546
838.819	22535
838.956	22538
839.094	22432
839.231	22398
839.369	22550
839.506	22847
839.643	22656
839.781	22398
839.918	22360
840.055	22341
840.193	22325
840.33	22219
840.467	22276
840.604	22413
840.742	22493
840.879	22276
841.016	22242
841.153	22215
841.29	22459
841.427	22280
841.564	22432
841.701	22322
841.838	22360
841.975	22219
842.112	22219
842.249	22169
842.385	21983
842.522	22265
842.659	22154
842.796	22086
842.933	22166
843.069	22105
843.206	22078
843.343	22265
843.479	22139
843.616	22120
843.752	21869
843.889	21816
844.025	21994
844.162	21960
844.298	22002
844.435	21800
844.571	21907
844.708	21899
844.844	22006
844.98	21964
845.117	22074
845.253	21918
845.389	21633
845.525	21804
845.661	21717
845.798	21728
845.934	21629
846.07	21542
846.206	21713
846.342	21682
846.478	21606
846.614	21401
846.75	21294
846.886	21355
847.022	21355
847.158	21378
847.294	21298
847.429	21298
847.565	21382
847.701	21549
847.837	21169
847.972	21112
848.108	21180
848.244	21058
848.379	21081
848.515	20948
848.65	20933
848.786	20975
848.921	20937
849.057	21043
849.192	21024
849.328	21135
849.463	20921
849.598	20853
849.734	20967
849.869	20842
850.004	20796
850.14	20743
850.275	20746
850.41	20579
850.545	20826
850.68	20541
850.815	20667
850.95	20781
851.085	20971
851.22	20735
851.355	20716
851.49	20792
851.625	20697
851.76	20617
851.895	20560
852.03	20579
852.165	20792
852.299	20792
852.434	20781
852.569	20826
852.703	20746
852.838	20781
852.973	20887
853.107	20849
853.242	20617
853.376	20571
853.511	20564
853.645	20499
853.78	20655
853.914	20537
854.048	20480
854.183	20545
854.317	20613
854.451	20762
854.585	20705
854.72	20507
854.854	20655
854.988	20469
855.122	20476
855.256	20412
855.39	20476
855.524	20587
855.658	20606
855.792	20438
855.926	20613
856.06	20632
856.194	20743
856.327	20480
856.461	20545
856.595	20423
856.729	20484
856.862	20617
856.996	20686
857.13	20651
857.263	20530
857.397	20739
857.53	20518
857.664	20537
857.797	20583
857.931	20663
858.064	20556
858.197	20625
858.331	20514
858.464	20442
858.597	20362
858.731	20583
858.864	20541
858.997	20480
859.13	20560
859.263	20575
859.396	20682
859.529	20469
859.662	20537
859.795	20518
859.928	20568
860.061	20621
860.194	20750
860.327	20621
860.46	20568
860.592	20575
860.725	20644
860.858	20636
860.99	20495
861.123	20549
861.256	20457
861.388	20541
861.521	21081
861.653	20370
861.786	20358
861.918	20320
862.05	20427
862.183	20415
862.315	20503
862.447	20514
862.58	20465
862.712	20298
862.844	20134
862.976	20366
863.108	20298
863.24	20762
863.372	20218
863.504	20336
863.636	20187
863.768	20290
863.9	20183
864.032	20161
864.164	20210
864.296	20229
864.428	20347
864.559	20408
864.691	20339
864.823	20153
864.954	20278
865.086	20180
865.217	20149
865.349	20107
865.48	20092
865.612	20122
865.743	20256
865.875	20282
866.006	20244
866.137	20229
866.269	20164
866.4	20115
866.531	20050
866.662	20050
866.793	20130
866.924	20054
867.055	20153
867.186	20149
867.317	20046
867.448	20039
867.579	20088
867.71	20065
867.841	19989
867.972	20225
868.103	20058
868.233	20149
868.364	20119
868.495	20191
868.625	20290
868.756	20484
868.886	20172
869.017	20404
869.147	20492
869.278	20385
869.408	20244
869.539	20343
869.669	20336
869.799	20446
869.929	20442
870.06	20495
870.19	20686
870.32	20629
870.45	20819
870.58	20678
870.71	20826
870.84	20956
870.97	20781
871.1	20720
871.23	20819
871.36	20906
871.489	20921
871.619	20952
871.749	20979
871.879	20967
872.008	21039
872.138	20918
872.267	20861
872.397	20731
872.526	20743
872.656	20918
872.785	20785
872.915	20979
873.044	20994
873.173	20960
873.303	20975
873.432	21017
873.561	21081
873.69	21081
873.819	20967
873.948	21009
874.077	21081
874.206	20887
874.335	21043
874.464	21020
874.593	21241
874.722	21051
874.851	21241
874.979	21123
875.108	21317
875.237	21237
875.365	21074
875.494	21192
875.623	21260
875.751	21184
875.88	21272
876.008	21279
876.136	21325
876.265	21641
876.393	21652
876.521	21667
876.65	21648
876.778	21618
876.906	21557
877.034	21515
877.162	21599
877.29	21412
877.418	21443
877.546	21515
877.674	21618
877.802	21492
877.93	21519
878.058	21507
878.185	21477
878.313	21553
878.441	21519
878.568	21386
878.696	21488
878.824	21595
878.951	21682
879.079	21766
879.206	21994
879.333	21797
879.461	21595
879.588	21633
879.715	21781
879.842	21778
879.97	21504
880.097	21393
880.224	21374
880.351	21386
880.478	21378
880.605	21306
880.732	21302
880.859	21759
880.986	21412
881.112	21435
881.239	21135
881.366	21089
881.493	21089
881.619	21043
881.746	20956
881.872	20967
881.999	20895
882.125	20998
882.252	21089
882.378	20986
882.505	21058
882.631	20868
882.757	20708
882.883	20762
883.01	20583
883.136	20682
883.262	20625
883.388	20549
883.514	20807
883.64	20693
883.766	20602
883.892	20568
884.018	20419
884.143	20674
884.269	20758
884.395	20370
884.52	20358
884.646	20362
884.772	20221
884.897	20415
885.023	20320
885.148	20473
885.274	20492
885.399	20271
885.524	20301
885.65	20275
885.775	20294
885.9	20218
886.025	20408
886.15	20438
886.275	20332
886.4	20275
886.525	20317
886.65	20328
886.775	20130
886.9	20541
887.025	20575
887.149	20267
887.274	20214
887.399	20138
887.523	20183
887.648	20005
887.773	19982
887.897	20195
888.021	20252
888.146	20027
888.27	20199
888.395	20145
888.519	20187
888.643	20039
888.767	20062
888.891	19951
889.015	19955
889.139	19974
889.263	20046
889.387	20081
889.511	20103
889.635	19932
889.759	19890
889.883	19830
890.006	19959
890.13	19955
890.254	19879
890.377	19776
890.501	19689
890.624	19689
890.748	19662
890.871	19563
890.995	19499
891.118	19548
891.241	19537
891.364	19597
891.488	19575
891.611	19510
891.734	19472
891.857	19635
891.98	19533
892.103	19670
892.226	19483
892.349	19544
892.471	19384
892.594	19422
892.717	19476
892.839	19407
892.962	19518
893.085	19487
893.207	19506
893.33	19346
893.452	19350
893.575	19537
893.697	19388
893.819	19480
893.941	19674
894.064	19597
894.186	19331
894.308	19365
894.43	19594
894.552	19616
894.674	19533
894.796	19384
894.918	19396
895.04	19506
895.161	19571
895.283	19499
895.405	19415
895.526	19415
895.648	19407
895.769	19525
895.891	19419
896.012	19594
896.134	19415
896.255	19529
896.376	19483
896.498	19468
896.619	19483
896.74	19400
896.861	19472
896.982	19856
897.103	19814
897.224	19635
897.345	19609
897.466	19662
897.587	19689
897.708	19799
897.828	19658
897.949	19639
898.07	19632
898.19	19567
898.311	19780
898.431	19742
898.552	19696
898.672	19715
898.792	19651
898.913	19784
899.033	19575
899.153	19514
899.273	19434
899.393	19464
899.513	19563
899.633	19457
899.753	19384
899.873	19320
899.993	19438
900.113	19487
900.232	19407
900.352	19350
900.472	19274
900.591	19145
900.711	19304
900.83	19225
900.95	19274
901.069	19343
901.189	19126
901.308	18890
901.427	18837
901.546	18871
901.665	18726
901.784	18795
901.904	18722
902.023	18616
902.141	18357
902.26	18319
902.379	18365
902.498	18372
902.617	18228
902.735	18334
902.854	18319
902.973	18194
903.091	17996
903.21	18003
903.328	18060
903.446	17920
903.565	17870
903.683	17783
903.801	17691
903.919	17646
904.038	17676
904.156	17615
904.274	17668
904.392	17630
904.51	17604
904.627	17634
904.745	17745
904.863	17695
904.981	17440
905.098	17269
905.216	17326
905.334	17258
905.451	17235
905.569	17204
905.686	17189
905.803	17220
905.921	17003
906.038	17231
906.155	17079
906.272	16949
906.389	17052
906.506	16725
906.623	16702
906.74	16786
906.857	16713
906.974	16801
907.091	16843
907.208	16911
907.324	16717
907.441	16672
907.557	16527
907.674	16558
907.79	16447
907.907	16455
908.023	16542
908.139	16558
908.256	16459
908.372	16466
908.488	16284
908.604	16295
908.72	16344
908.836	16276
908.952	16158
909.068	16303
909.184	16352
909.3	16166
909.415	16265
909.531	16310
909.647	16055
909.762	15991
909.878	16063
909.993	16025
910.108	15983
910.224	15888
910.339	15899
910.454	15903
910.57	15789
910.685	15686
910.8	15998
910.915	15964
911.03	15781
911.145	15618
911.259	15572
911.374	15576
911.489	15542
911.604	15469
911.718	15287
911.833	15447
911.947	15230
912.062	15150
912.176	15180
912.291	15306
912.405	15279
912.519	15553
912.633	15515
912.748	15351
912.862	15230
912.976	15077
913.09	15119
913.204	15058
913.318	15176
913.431	15195
913.545	15287
913.659	15272
913.772	15226
913.886	14887
914	14952
914.113	15074
914.226	15017
914.34	14990
914.453	14815
914.566	15055
914.68	14830
914.793	14777
914.906	14682
915.019	14560
915.132	14499
915.245	14610
915.358	14651
915.47	14674
915.583	14610
915.696	14560
915.809	14765
915.921	14762
916.034	14511
916.146	14461
916.259	14476
916.371	14632
916.483	14594
916.595	14480
916.708	14419
916.82	14434
916.932	14423
917.044	14400
917.156	14438
917.268	14374
917.38	14294
917.491	14248
917.603	14191
917.715	14305
917.826	14248
917.938	14111
918.049	14046
918.161	14199
918.272	14332
918.384	14374
918.495	14259
918.606	14134
918.717	13959
918.828	13970
918.939	14111
919.05	13936
919.161	13955
919.272	13757
919.383	13887
919.494	14103
919.604	14153
919.715	14043
919.826	13845
919.936	13940
920.047	14043
920.157	13928
920.267	14111
920.378	14031
920.488	14027
920.598	14096
920.708	14362
920.818	14290
920.928	14123
921.038	14290
921.148	14172
921.258	13974
921.368	13849
921.477	13658
921.587	13769
921.697	13643
921.806	13780
921.916	13582
922.025	13445
922.134	13480
922.244	13369
922.353	13464
922.462	13270
922.571	13202
922.68	13095
922.789	13000
922.898	13149
923.007	12894
923.116	13122
923.224	13080
923.333	12981
923.442	12935
923.55	12806
923.659	12913
923.767	12920
923.876	12863
923.984	12909
924.092	12772
924.201	12916
924.309	12897
924.417	12840
924.525	12696
924.633	12745
924.741	13514
924.849	12467
924.956	12700
925.064	12597
925.172	12422
925.279	12494
925.387	12578
925.494	12486
925.602	12623
925.709	12532
925.816	12429
925.924	12464
926.031	12555
926.138	12467
926.245	12422
926.352	12346
926.459	12452
926.566	12486
926.673	12319
926.779	12289
926.886	12175
926.993	12117
927.099	12068
927.206	12098
927.312	12011
927.419	12072
927.525	12083
927.631	12053
927.737	11954
927.843	11912
927.95	11870
928.056	11851
928.162	11912
928.267	12034
928.373	12502
928.479	11996
928.585	11760
928.69	11836
928.796	11935
928.901	11802
929.007	11554
929.112	11817
929.218	11592
929.323	11718
929.428	11619
929.533	11805
929.638	11623
929.743	11657
929.848	11707
929.953	11649
930.058	11414
930.163	11326
930.267	11360
930.372	11474
930.477	11296
930.581	11551
930.685	11440
930.79	11265
930.894	11330
930.998	11261
931.103	11307
931.207	10991
931.311	10908
931.415	10869
931.519	10569
931.623	10607
