Data from test_V78500241_1811.txt Node
Date: Fri Mar 25 15:22:27 CST 2022
User: usil
Spectrometer: V785-0024
Trigger mode: 0
Integration Time (sec): 4.000000E-1
Scans to average: 1
Nonlinearity correction enabled: false
Boxcar width: 0
Storing dark spectrum: false
XAxis mode: Wavelengths
Number of Pixels in Spectrum: 1024
>>>>>Begin Spectral Data<<<<<
801.071	27907
801.214	27800
801.356	27507
801.499	27534
801.641	27294
801.783	27469
801.926	27504
802.068	27420
802.211	27458
802.353	27199
802.496	27169
802.638	26975
802.78	26975
802.923	27001
803.065	26872
803.208	27077
803.35	27066
803.492	27439
803.635	27256
803.777	27180
803.919	27211
804.061	27701
804.204	27397
804.346	27199
804.488	27131
804.63	27211
804.773	27188
804.915	27108
805.057	27321
805.199	27252
805.341	27405
805.483	27427
805.626	27477
805.768	27321
805.91	27424
806.052	27241
806.194	27283
806.336	27515
806.478	27466
806.62	27481
806.762	27431
806.904	27663
807.046	27850
807.188	27819
807.33	27743
807.472	27869
807.614	27648
807.756	27865
807.898	27641
808.04	27663
808.182	27622
808.324	27686
808.465	27762
808.607	27781
808.749	27987
808.891	28139
809.033	28181
809.174	28093
809.316	27964
809.458	27968
809.6	27994
809.741	28234
809.883	28204
810.025	28295
810.166	28234
810.308	28299
810.45	28314
810.591	28116
810.733	27991
810.875	27857
811.016	27953
811.158	27831
811.299	27934
811.441	28253
811.582	28162
811.724	27922
811.865	28006
812.007	27926
812.148	28093
812.29	27914
812.431	28211
812.573	28386
812.714	28447
812.855	28500
812.997	28637
813.138	28786
813.279	28698
813.421	28656
813.562	28421
813.703	28413
813.845	28318
813.986	27922
814.127	27766
814.268	27739
814.41	27667
814.551	27667
814.692	27762
814.833	27728
814.974	27648
815.115	27701
815.256	27595
815.397	27614
815.539	27443
815.68	27576
815.821	27492
815.962	27401
816.103	27477
816.244	27294
816.385	27279
816.526	27382
816.666	27081
816.807	26906
816.948	27017
817.089	27070
817.23	27009
817.371	26944
817.512	26853
817.653	26819
817.793	26823
817.934	27039
818.075	26952
818.216	27013
818.356	26944
818.497	26845
818.638	26682
818.778	26762
818.919	26689
819.06	26834
819.2	26948
819.341	27017
819.481	26944
819.622	27199
819.762	27283
819.903	27317
820.043	27226
820.184	27199
820.324	27089
820.465	27154
820.605	27051
820.746	27116
820.886	26990
821.026	27055
821.167	27150
821.307	27184
821.447	27051
821.588	26956
821.728	26796
821.868	26511
822.008	26453
822.149	26457
822.289	26313
822.429	26103
822.569	26084
822.709	26145
822.849	25917
822.99	25993
823.13	25890
823.27	25879
823.41	25871
823.55	25655
823.69	25742
823.83	25738
823.97	25651
824.11	25556
824.25	25575
824.389	25620
824.529	25632
824.669	25590
824.809	25704
824.949	25791
825.089	25670
825.228	25677
825.368	25529
825.508	25403
825.648	25388
825.787	25582
825.927	25715
826.067	25491
826.206	25419
826.346	25510
826.485	25582
826.625	25506
826.765	25586
826.904	25506
827.044	25152
827.183	25194
827.323	25137
827.462	25251
827.601	25400
827.741	25038
827.88	25247
828.02	25236
828.159	25145
828.298	25084
828.437	25076
828.577	25015
828.716	25312
828.855	25091
828.994	24859
829.134	24894
829.273	24905
829.412	24928
829.551	24848
829.69	24863
829.829	24760
829.968	24878
830.107	25038
830.246	24894
830.385	24951
830.524	24958
830.663	24730
830.802	24635
830.941	24509
831.08	24513
831.219	24604
831.357	24585
831.496	24833
831.635	24585
831.774	24384
831.913	24376
832.051	24308
832.19	24296
832.329	24418
832.467	24136
832.606	24159
832.744	24213
832.883	24190
833.022	24251
833.16	24144
833.299	24266
833.437	24194
833.576	24235
833.714	24369
833.852	24369
833.991	24346
834.129	24296
834.267	24319
834.406	24308
834.544	24296
834.682	24262
834.821	24285
834.959	24418
835.097	24201
835.235	24311
835.373	24232
835.511	24380
835.65	24076
835.788	24243
835.926	24003
836.064	23961
836.202	23988
836.34	24148
836.478	24258
836.615	24152
836.753	24064
836.891	24178
837.029	24148
837.167	24095
837.305	23973
837.443	24083
837.58	24049
837.718	24022
837.856	24022
837.993	23882
838.131	23935
838.269	23843
838.406	23935
838.544	23779
838.681	23638
838.819	23520
838.956	23417
839.094	23585
839.231	23391
839.369	23493
839.506	23752
839.643	23589
839.781	23486
839.918	23364
840.055	23524
840.193	23341
840.33	23417
840.467	23402
840.604	23414
840.742	23657
840.879	23315
841.016	23326
841.153	23265
841.29	23414
841.427	23353
841.564	23326
841.701	23417
841.838	23311
841.975	23250
842.112	23231
842.249	23094
842.385	23079
842.522	23372
842.659	23296
842.796	23162
842.933	23121
843.069	23041
843.206	22976
843.343	23155
843.479	23105
843.616	23162
843.752	23010
843.889	22881
844.025	23044
844.162	22881
844.298	23048
844.435	23006
844.571	22793
844.708	22961
844.844	23109
844.98	23132
845.117	23025
845.253	22850
845.389	22812
845.525	22778
845.661	22835
845.798	22569
845.934	22603
846.07	22618
846.206	22672
846.342	22767
846.478	22596
846.614	22432
846.75	22303
846.886	22310
847.022	22447
847.158	22363
847.294	22284
847.429	22481
847.565	22360
847.701	22675
847.837	22204
847.972	22188
848.108	22265
848.244	22246
848.379	22017
848.515	21930
848.65	21945
848.786	22048
848.921	22013
849.057	22093
849.192	22067
849.328	22067
849.463	21926
849.598	21991
849.734	22006
849.869	21705
850.004	21701
850.14	21629
850.275	21724
850.41	21667
850.545	21705
850.68	21705
850.815	21831
850.95	21720
851.085	21873
851.22	21789
851.355	21667
851.49	21816
851.625	21728
851.76	21595
851.895	21675
852.03	21652
852.165	21701
852.299	21743
852.434	21770
852.569	21743
852.703	21622
852.838	21812
852.973	21812
853.107	21884
853.242	21534
853.376	21530
853.511	21420
853.645	21405
853.78	21568
853.914	21526
854.048	21504
854.183	21595
854.317	21561
854.451	21720
854.585	21576
854.72	21629
854.854	21633
854.988	21545
855.122	21523
855.256	21545
855.39	21549
855.524	21583
855.658	21603
855.792	21500
855.926	21694
856.06	21595
856.194	21614
856.327	21576
856.461	21530
856.595	21549
856.729	21545
856.862	21675
856.996	21545
857.13	21614
857.263	21652
857.397	21690
857.53	21606
857.664	21458
857.797	21603
857.931	21663
858.064	21591
858.197	21625
858.331	21481
858.464	21496
858.597	21504
858.731	21564
858.864	21519
858.997	21447
859.13	21507
859.263	21553
859.396	21545
859.529	21542
859.662	21530
859.795	21447
859.928	21557
860.061	21812
860.194	21747
860.327	21637
860.46	21633
860.592	21682
860.725	21701
860.858	21690
860.99	21519
861.123	21526
861.256	21526
861.388	21477
861.521	22181
861.653	21405
861.786	21310
861.918	21283
862.05	21469
862.183	21572
862.315	21401
862.447	21667
862.58	21473
862.712	21291
862.844	21294
862.976	21340
863.108	21389
863.24	21728
863.372	21291
863.504	21237
863.636	21218
863.768	21249
863.9	21252
864.032	21272
864.164	21264
864.296	21275
864.428	21298
864.559	21268
864.691	21374
864.823	21294
864.954	21237
865.086	21287
865.217	21173
865.349	21154
865.48	21032
865.612	21165
865.743	21291
865.875	21317
866.006	21070
866.137	21096
866.269	21176
866.4	21199
866.531	21104
866.662	21184
866.793	21112
866.924	21306
867.055	21119
867.186	21108
867.317	21138
867.448	21074
867.579	21108
867.71	21047
867.841	20952
867.972	21150
868.103	21138
868.233	21294
868.364	21108
868.495	21199
868.625	21397
868.756	21477
868.886	21165
869.017	21336
869.147	21378
869.278	21424
869.408	21340
869.539	21348
869.669	21477
869.799	21359
869.929	21580
870.06	21477
870.19	21641
870.32	21648
870.45	21667
870.58	21816
870.71	21785
870.84	21789
870.97	21770
871.1	21660
871.23	21892
871.36	21994
871.489	21876
871.619	21979
871.749	21922
871.879	21922
872.008	22150
872.138	22006
872.267	21983
872.397	21766
872.526	21717
872.656	21724
872.785	21797
872.915	22006
873.044	22067
873.173	21915
873.303	21979
873.432	22086
873.561	21968
873.69	21945
873.819	21983
873.948	21956
874.077	21991
874.206	21869
874.335	21968
874.464	22070
874.593	22150
874.722	22166
874.851	22219
874.979	22211
875.108	22253
875.237	22055
875.365	22074
875.494	22196
875.623	22238
875.751	22120
875.88	22109
876.008	22322
876.136	22382
876.265	22592
876.393	22573
876.521	22550
876.65	22630
876.778	22653
876.906	22546
877.034	22493
877.162	22603
877.29	22584
877.418	22668
877.546	22447
877.674	22489
877.802	22459
877.93	22390
878.058	22474
878.185	22379
878.313	22402
878.441	22546
878.568	22363
878.696	22405
878.824	22694
878.951	22603
879.079	22584
879.206	22866
879.333	22706
879.461	22360
879.588	22664
879.715	22653
879.842	22569
879.97	22577
880.097	22341
880.224	22306
880.351	22371
880.478	22443
880.605	22276
880.732	22306
880.859	22497
880.986	22405
881.112	22489
881.239	22147
881.366	22112
881.493	21987
881.619	21930
881.746	21895
881.872	21945
881.999	21937
882.125	21876
882.252	21903
882.378	21816
882.505	22074
882.631	21747
882.757	21728
882.883	21808
883.01	21477
883.136	21625
883.262	21481
883.388	21523
883.514	21690
883.64	21671
883.766	21523
883.892	21313
884.018	21374
884.143	21603
884.269	21679
884.395	21260
884.52	21260
884.646	21275
884.772	21154
884.897	21116
885.023	21378
885.148	21272
885.274	21515
885.399	21195
885.524	21203
885.65	21405
885.775	21359
885.9	21138
886.025	21325
886.15	21313
886.275	21237
886.4	21260
886.525	21184
886.65	21154
886.775	21199
886.9	21378
887.025	21542
887.149	21108
887.274	21077
887.399	20982
887.523	21005
887.648	21017
887.773	20880
887.897	21108
888.021	21074
888.146	20994
888.27	21116
888.395	21009
888.519	21047
888.643	21047
888.767	21146
888.891	20944
889.015	20842
889.139	20944
889.263	20880
889.387	20834
889.511	20998
889.635	20998
889.759	20785
889.883	20842
890.006	20785
890.13	20880
890.254	20815
890.377	20644
890.501	20560
890.624	20545
890.748	20705
890.871	20533
890.995	20389
891.118	20164
891.241	20370
891.364	20324
891.488	20598
891.611	20362
891.734	20389
891.857	20396
891.98	20389
892.103	20465
892.226	20404
892.349	20313
892.471	20077
892.594	20377
892.717	20415
892.839	20168
892.962	20214
893.085	20393
893.207	20214
893.33	20168
893.452	20237
893.575	20339
893.697	20164
893.819	20431
893.941	20434
894.064	20419
894.186	20305
894.308	20142
894.43	20313
894.552	20347
894.674	20290
894.796	20248
894.918	20180
895.04	20252
895.161	20267
895.283	20336
895.405	20122
895.526	20195
895.648	20221
895.769	20339
895.891	20313
896.012	20366
896.134	20355
896.255	20317
896.376	20324
896.498	20290
896.619	20286
896.74	20294
896.861	20358
896.982	20629
897.103	20716
897.224	20465
897.345	20568
897.466	20400
897.587	20511
897.708	20594
897.828	20526
897.949	20438
898.07	20366
898.19	20294
898.311	20598
898.431	20415
898.552	20556
898.672	20480
898.792	20571
898.913	20431
899.033	20461
899.153	20237
899.273	20134
899.393	20252
899.513	20263
899.633	20240
899.753	20259
899.873	20248
899.993	20240
900.113	20172
900.232	20069
900.352	20058
900.472	20065
900.591	19982
900.711	20062
900.83	19849
900.95	20062
901.069	20046
901.189	19852
901.308	19696
901.427	19616
901.546	19544
901.665	19556
901.784	19666
901.904	19525
902.023	19365
902.141	19190
902.26	19069
902.379	19148
902.498	19099
902.617	19046
902.735	19088
902.854	19110
902.973	18878
903.091	18738
903.21	18783
903.328	18760
903.446	18654
903.565	18650
903.683	18578
903.801	18376
903.919	18528
904.038	18471
904.156	18308
904.274	18517
904.392	18429
904.51	18232
904.627	18201
904.745	18277
904.863	18220
904.981	18190
905.098	18038
905.216	17973
905.334	18060
905.451	18098
905.569	17908
905.686	18003
905.803	18003
905.921	17863
906.038	17958
906.155	17855
906.272	17627
906.389	17703
906.506	17570
906.623	17520
906.74	17463
906.857	17398
906.974	17486
907.091	17562
907.208	17630
907.324	17528
907.441	17486
907.557	17231
907.674	17231
907.79	17204
907.907	17212
908.023	17330
908.139	17155
908.256	17166
908.372	17193
908.488	17079
908.604	17018
908.72	16968
908.836	16915
908.952	16919
909.068	16976
909.184	17041
909.3	16930
909.415	16953
909.531	16904
909.647	16778
909.762	16710
909.878	16630
909.993	16577
910.108	16599
910.224	16618
910.339	16656
910.454	16565
910.57	16493
910.685	16440
910.8	16664
910.915	16664
911.03	16462
911.145	16371
911.259	16325
911.374	16280
911.489	16185
911.604	16139
911.718	16029
911.833	16120
911.947	15888
912.062	15846
912.176	16013
912.291	16044
912.405	15991
912.519	16185
912.633	16181
912.748	16051
912.862	16074
912.976	15968
913.09	15713
913.204	15743
913.318	15922
913.431	15827
913.545	16006
913.659	15892
913.772	15686
913.886	15595
914	15584
914.113	15755
914.226	15682
914.34	15789
914.453	15500
914.566	15584
914.68	15511
914.793	15466
914.906	15370
915.019	15272
915.132	15275
915.245	15306
915.358	15260
915.47	15237
915.583	15203
915.696	15195
915.809	15374
915.921	15268
916.034	15119
916.146	15214
916.259	15188
916.371	15165
916.483	15154
916.595	15089
916.708	14982
916.82	15013
916.932	15020
917.044	15093
917.156	14941
917.268	14944
917.38	14861
917.491	14895
917.603	14872
917.715	14952
917.826	14899
917.938	14815
918.049	14762
918.161	14872
918.272	14845
918.384	14921
918.495	14807
918.606	14629
918.717	14583
918.828	14659
918.939	14556
919.05	14499
919.161	14640
919.272	14412
919.383	14457
919.494	14648
919.604	14716
919.715	14651
919.826	14454
919.936	14636
920.047	14644
920.157	14549
920.267	14746
920.378	14629
920.488	14594
920.598	14678
920.708	14914
920.818	14735
920.928	14545
921.038	14883
921.148	14864
921.258	14556
921.368	14442
921.477	14332
921.587	14278
921.697	14252
921.806	14256
921.916	14149
922.025	13978
922.134	13974
922.244	13959
922.353	13989
922.462	13826
922.571	13715
922.68	13655
922.789	13597
922.898	13666
923.007	13552
923.116	13594
923.224	13636
923.333	13544
923.442	13453
923.55	13422
923.659	13468
923.767	13537
923.876	13422
923.984	13487
924.092	13304
924.201	13434
924.309	13362
924.417	13293
924.525	13194
924.633	13297
924.741	14168
924.849	12985
924.956	13095
925.064	13072
925.172	12977
925.279	13084
925.387	13042
925.494	13084
925.602	13095
925.709	13091
925.816	12916
925.924	12905
926.031	13038
926.138	12947
926.245	13042
926.352	12844
926.459	12966
926.566	13027
926.673	12848
926.779	12806
926.886	12848
926.993	12726
927.099	12601
927.206	12639
927.312	12506
927.419	12669
927.525	12570
927.631	12616
927.737	12506
927.843	12395
927.95	12319
928.056	12388
928.162	12486
928.267	12445
928.373	13034
928.479	12471
928.585	12266
928.69	12433
928.796	12467
928.901	12285
929.007	12079
929.112	12289
929.218	12243
929.323	12167
929.428	12159
929.533	12254
929.638	12015
929.743	12186
929.848	12144
929.953	12148
930.058	12015
930.163	11866
930.267	11878
930.372	11912
930.477	11783
930.581	12076
930.685	11988
930.79	11741
930.894	11672
930.998	11771
931.103	11840
931.207	11444
931.311	11421
931.415	11258
931.519	11098
931.623	11117
