Data from test_V78500241_2979.txt Node
Date: Fri Mar 25 15:30:36 CST 2022
User: usil
Spectrometer: V785-0024
Trigger mode: 0
Integration Time (sec): 4.000000E-1
Scans to average: 1
Nonlinearity correction enabled: false
Boxcar width: 0
Storing dark spectrum: false
XAxis mode: Wavelengths
Number of Pixels in Spectrum: 1024
>>>>>Begin Spectral Data<<<<<
801.071	27237
801.214	27165
801.356	26895
801.499	26902
801.641	26712
801.783	26640
801.926	26727
802.068	26724
802.211	26621
802.353	26492
802.496	26442
802.638	26415
802.78	26396
802.923	26309
803.065	26282
803.208	26248
803.35	26271
803.492	26526
803.635	26374
803.777	26381
803.919	26503
804.061	26705
804.204	26503
804.346	26495
804.488	26366
804.63	26457
804.773	26453
804.915	26328
805.057	26724
805.199	26431
805.341	26545
805.483	26651
805.626	26598
805.768	26579
805.91	26526
806.052	26720
806.194	26648
806.336	26785
806.478	26609
806.62	26609
806.762	26705
806.904	26933
807.046	27138
807.188	27032
807.33	27039
807.472	27245
807.614	26998
807.756	26994
807.898	26868
808.04	26838
808.182	26842
808.324	26830
808.465	27020
808.607	27081
808.749	27310
808.891	27264
809.033	27462
809.174	27363
809.316	27161
809.458	27119
809.6	27138
809.741	27393
809.883	27252
810.025	27389
810.166	27583
810.308	27462
810.45	27496
810.591	27363
810.733	27249
810.875	27264
811.016	27176
811.158	27268
811.299	27351
811.441	27374
811.582	27431
811.724	27207
811.865	27165
812.007	27150
812.148	27131
812.29	27180
812.431	27336
812.573	27439
812.714	27648
812.855	27675
812.997	27759
813.138	27774
813.279	27789
813.421	27819
813.562	27603
813.703	27507
813.845	27386
813.986	27211
814.127	26891
814.268	26845
814.41	26921
814.551	26785
814.692	27047
814.833	26868
814.974	26781
815.115	26918
815.256	26750
815.397	26823
815.539	26807
815.68	26598
815.821	26461
815.962	26663
816.103	26670
816.244	26568
816.385	26408
816.526	26393
816.666	26122
816.807	26027
816.948	26180
817.089	26309
817.23	26149
817.371	26100
817.512	26218
817.653	26092
817.793	25963
817.934	26149
818.075	26168
818.216	26077
818.356	25970
818.497	25982
818.638	25966
818.778	25826
818.919	25906
819.06	26077
819.2	25932
819.341	26062
819.481	26069
819.622	26172
819.762	26415
819.903	26381
820.043	26343
820.184	26275
820.324	26355
820.465	26221
820.605	26282
820.746	26214
820.886	26035
821.026	26050
821.167	26111
821.307	26248
821.447	26168
821.588	25955
821.728	25993
821.868	25731
822.008	25632
822.149	25727
822.289	25643
822.429	25312
822.569	25282
822.709	25236
822.849	25171
822.99	25168
823.13	24981
823.27	25091
823.41	24760
823.55	24848
823.69	24981
823.83	24996
823.97	24863
824.11	24677
824.25	24688
824.389	24665
824.529	24760
824.669	24677
824.809	24821
824.949	24715
825.089	24871
825.228	24597
825.368	24517
825.508	24597
825.648	24544
825.787	24623
825.927	24779
826.067	24574
826.206	24574
826.346	24597
826.485	24635
826.625	24464
826.765	24711
826.904	24608
827.044	24342
827.183	24311
827.323	24232
827.462	24273
827.601	24281
827.741	24384
827.88	24323
828.02	24064
828.159	24247
828.298	24285
828.437	24353
828.577	24216
828.716	24357
828.855	24064
828.994	24064
829.134	24087
829.273	23961
829.412	23984
829.551	23908
829.69	23980
829.829	23973
829.968	24049
830.107	24098
830.246	24057
830.385	23840
830.524	23851
830.663	23729
830.802	23760
830.941	23539
831.08	23440
831.219	23646
831.357	23604
831.496	23866
831.635	23429
831.774	23512
831.913	23482
832.051	23265
832.19	23414
832.329	23459
832.467	23395
832.606	23147
832.744	23140
832.883	23204
833.022	23109
833.16	23212
833.299	23231
833.437	23254
833.576	23208
833.714	23189
833.852	23269
833.991	23273
834.129	23448
834.267	23368
834.406	23402
834.544	23417
834.682	23334
834.821	23398
834.959	23486
835.097	23159
835.235	23376
835.373	23315
835.511	23330
835.65	23231
835.788	23181
835.926	23060
836.064	22987
836.202	22911
836.34	23239
836.478	23212
836.615	23155
836.753	23083
836.891	23223
837.029	23094
837.167	23132
837.305	22980
837.443	22987
837.58	22942
837.718	23132
837.856	22976
837.993	23022
838.131	22980
838.269	22869
838.406	22942
838.544	22858
838.681	22653
838.819	22607
838.956	22455
839.094	22417
839.231	22466
839.369	22615
839.506	22702
839.643	22721
839.781	22428
839.918	22398
840.055	22447
840.193	22508
840.33	22421
840.467	22382
840.604	22394
840.742	22584
840.879	22303
841.016	22268
841.153	22310
841.29	22318
841.427	22371
841.564	22440
841.701	22310
841.838	22276
841.975	22360
842.112	22360
842.249	22181
842.385	22192
842.522	22394
842.659	22261
842.796	22154
842.933	22265
843.069	21975
843.206	22150
843.343	22253
843.479	22067
843.616	22105
843.752	21987
843.889	21831
844.025	22051
844.162	21873
844.298	22215
844.435	21869
844.571	21850
844.708	21884
844.844	21998
844.98	22029
845.117	22147
845.253	21880
845.389	21789
845.525	21953
845.661	21770
845.798	21698
845.934	21808
846.07	21587
846.206	21618
846.342	21857
846.478	21694
846.614	21469
846.75	21466
846.886	21313
847.022	21454
847.158	21382
847.294	21431
847.429	21378
847.565	21431
847.701	21572
847.837	21135
847.972	21138
848.108	21165
848.244	21237
848.379	21020
848.515	20982
848.65	20975
848.786	21058
848.921	20971
849.057	21142
849.192	21112
849.328	20986
849.463	20902
849.598	20883
849.734	20864
849.869	20845
850.004	20629
850.14	20811
850.275	20777
850.41	20705
850.545	20655
850.68	20773
850.815	20849
850.95	20792
851.085	20891
851.22	20864
851.355	20887
851.49	20678
851.625	20682
851.76	20659
851.895	20667
852.03	20762
852.165	20735
852.299	20845
852.434	20781
852.569	20773
852.703	20758
852.838	20788
852.973	20861
853.107	20731
853.242	20632
853.376	20556
853.511	20488
853.645	20575
853.78	20724
853.914	20617
854.048	20640
854.183	20514
854.317	20575
854.451	20781
854.585	20655
854.72	20621
854.854	20587
854.988	20438
855.122	20590
855.256	20446
855.39	20564
855.524	20625
855.658	20575
855.792	20507
855.926	20602
856.06	20594
856.194	20697
856.327	20590
856.461	20454
856.595	20545
856.729	20507
856.862	20621
856.996	20530
857.13	20670
857.263	20617
857.397	20587
857.53	20621
857.664	20621
857.797	20617
857.931	20621
858.064	20594
858.197	20712
858.331	20606
858.464	20537
858.597	20511
858.731	20602
858.864	20583
858.997	20568
859.13	20587
859.263	20701
859.396	20705
859.529	20648
859.662	20568
859.795	20583
859.928	20530
860.061	20689
860.194	20682
860.327	20651
860.46	20541
860.592	20697
860.725	20712
860.858	20629
860.99	20617
861.123	20473
861.256	20587
861.388	20693
861.521	21226
861.653	20450
861.786	20488
861.918	20503
862.05	20431
862.183	20480
862.315	20602
862.447	20644
862.58	20454
862.712	20282
862.844	20237
862.976	20324
863.108	20473
863.24	20804
863.372	20164
863.504	20218
863.636	20317
863.768	20347
863.9	20442
864.032	20263
864.164	20263
864.296	20393
864.428	20385
864.559	20393
864.691	20476
864.823	20267
864.954	20218
865.086	20294
865.217	20214
865.349	20100
865.48	20183
865.612	20214
865.743	20259
865.875	20119
866.006	20225
866.137	20305
866.269	20290
866.4	20164
866.531	20145
866.662	20130
866.793	20138
866.924	20035
867.055	20039
867.186	20145
867.317	20233
867.448	19955
867.579	20149
867.71	20157
867.841	20115
867.972	20103
868.103	20084
868.233	20229
868.364	20096
868.495	20138
868.625	20347
868.756	20446
868.886	20278
869.017	20339
869.147	20476
869.278	20431
869.408	20434
869.539	20355
869.669	20488
869.799	20484
869.929	20507
870.06	20480
870.19	20693
870.32	20708
870.45	20773
870.58	20758
870.71	20823
870.84	20895
870.97	20826
871.1	20735
871.23	21093
871.36	20891
871.489	20861
871.619	20952
871.749	20937
871.879	20979
872.008	21024
872.138	21062
872.267	21077
872.397	20891
872.526	20705
872.656	20735
872.785	20819
872.915	21039
873.044	21150
873.173	20990
873.303	21214
873.432	21150
873.561	21135
873.69	21036
873.819	20982
873.948	21165
874.077	21058
874.206	20971
874.335	21013
874.464	21150
874.593	21249
874.722	21176
874.851	21237
874.979	21058
875.108	21351
875.237	21199
875.365	21211
875.494	21264
875.623	21355
875.751	21165
875.88	21291
876.008	21382
876.136	21363
876.265	21705
876.393	21785
876.521	21724
876.65	21762
876.778	21542
876.906	21728
877.034	21526
877.162	21660
877.29	21500
877.418	21515
877.546	21633
877.674	21686
877.802	21504
877.93	21572
878.058	21606
878.185	21370
878.313	21686
878.441	21523
878.568	21485
878.696	21492
878.824	21519
878.951	21686
879.079	21762
879.206	21861
879.333	21705
879.461	21618
879.588	21701
879.715	21812
879.842	21781
879.97	21633
880.097	21359
880.224	21447
880.351	21389
880.478	21530
880.605	21336
880.732	21511
880.859	21675
880.986	21405
881.112	21519
881.239	21363
881.366	21119
881.493	20967
881.619	20933
881.746	20986
881.872	21013
881.999	21058
882.125	20975
882.252	21173
882.378	21138
882.505	21192
882.631	20811
882.757	20792
882.883	20823
883.01	20758
883.136	20625
883.262	20602
883.388	20651
883.514	20765
883.64	20583
883.766	20731
883.892	20450
884.018	20606
884.143	20590
884.269	20754
884.395	20518
884.52	20317
884.646	20427
884.772	20385
884.897	20408
885.023	20328
885.148	20476
885.274	20503
885.399	20480
885.524	20366
885.65	20457
885.775	20389
885.9	20294
886.025	20526
886.15	20412
886.275	20347
886.4	20233
886.525	20343
886.65	20214
886.775	20317
886.9	20412
887.025	20644
887.149	20362
887.274	20157
887.399	20172
887.523	20073
887.648	20119
887.773	19963
887.897	20259
888.021	20187
888.146	20043
888.27	20142
888.395	20305
888.519	20126
888.643	20084
888.767	20355
888.891	20054
889.015	19974
889.139	19982
889.263	19845
889.387	20031
889.511	20221
889.635	19947
889.759	19898
889.883	19814
890.006	20016
890.13	19997
890.254	19898
890.377	19864
890.501	19769
890.624	19616
890.748	19708
890.871	19586
890.995	19563
891.118	19464
891.241	19616
891.364	19476
891.488	19708
891.611	19544
891.734	19525
891.857	19613
891.98	19502
892.103	19403
892.226	19556
892.349	19514
892.471	19400
892.594	19407
892.717	19502
892.839	19457
892.962	19384
893.085	19510
893.207	19502
893.33	19381
893.452	19320
893.575	19563
893.697	19358
893.819	19514
893.941	19597
894.064	19674
894.186	19506
894.308	19335
894.43	19468
894.552	19540
894.674	19540
894.796	19354
894.918	19441
895.04	19384
895.161	19483
895.283	19529
895.405	19445
895.526	19457
895.648	19381
895.769	19502
895.891	19457
896.012	19567
896.134	19590
896.255	19487
896.376	19449
896.498	19540
896.619	19434
896.74	19430
896.861	19525
896.982	19845
897.103	19906
897.224	19814
897.345	19677
897.466	19632
897.587	19727
897.708	19731
897.828	19719
897.949	19586
898.07	19647
898.19	19540
898.311	19723
898.431	19635
898.552	19708
898.672	19681
898.792	19727
898.913	19795
899.033	19525
899.153	19495
899.273	19422
899.393	19514
899.513	19635
899.633	19480
899.753	19392
899.873	19335
899.993	19487
900.113	19362
900.232	19453
900.352	19419
900.472	19304
900.591	19213
900.711	19221
900.83	19228
900.95	19285
901.069	19263
901.189	19160
901.308	18943
901.427	18776
901.546	18856
901.665	18821
901.784	18814
901.904	18863
902.023	18650
902.141	18509
902.26	18277
902.379	18426
902.498	18338
902.617	18304
902.735	18399
902.854	18327
902.973	18319
903.091	18068
903.21	18121
903.328	18038
903.446	17954
903.565	17836
903.683	17805
903.801	17638
903.919	17874
904.038	17661
904.156	17642
904.274	17653
904.392	17661
904.51	17509
904.627	17623
904.745	17611
904.863	17729
904.981	17296
905.098	17136
905.216	17326
905.334	17345
905.451	17356
905.569	17296
905.686	17330
905.803	17223
905.921	17041
906.038	17117
906.155	17151
906.272	16934
906.389	16995
906.506	16835
906.623	16786
906.74	16767
906.857	16824
906.974	16797
907.091	16885
907.208	16999
907.324	16930
907.441	16759
907.557	16596
907.674	16664
907.79	16523
907.907	16443
908.023	16527
908.139	16485
908.256	16599
908.372	16417
908.488	16455
908.604	16344
908.72	16333
908.836	16291
908.952	16348
909.068	16352
909.184	16398
909.3	16291
909.415	16234
909.531	16276
909.647	16048
909.762	16021
909.878	16078
909.993	16025
910.108	15945
910.224	15979
910.339	15975
910.454	15835
910.57	15732
910.685	15720
910.8	15907
910.915	15903
911.03	15797
911.145	15641
911.259	15599
911.374	15534
911.489	15530
911.604	15397
911.718	15359
911.833	15359
911.947	15237
912.062	15252
912.176	15302
912.291	15500
912.405	15405
912.519	15458
912.633	15450
912.748	15405
912.862	15260
912.976	15245
913.09	15051
913.204	15100
913.318	15214
913.431	15355
913.545	15226
913.659	15332
913.772	15097
913.886	14979
914	14876
914.113	15032
914.226	15157
914.34	15047
914.453	14937
914.566	15032
914.68	14811
914.793	14811
914.906	14674
915.019	14575
915.132	14549
915.245	14518
915.358	14492
915.47	14613
915.583	14564
915.696	14590
915.809	14625
915.921	14712
916.034	14556
916.146	14537
916.259	14454
916.371	14511
916.483	14560
916.595	14389
916.708	14442
916.82	14488
916.932	14393
917.044	14271
917.156	14294
917.268	14252
917.38	14244
917.491	14229
917.603	14244
917.715	14404
917.826	14404
917.938	14206
918.049	13963
918.161	14298
918.272	14480
918.384	14320
918.495	14252
918.606	14020
918.717	13932
918.828	14077
918.939	14062
919.05	13959
919.161	13978
919.272	13795
919.383	13856
919.494	14035
919.604	14218
919.715	14039
919.826	13917
919.936	13936
920.047	14035
920.157	14016
920.267	14168
920.378	14012
920.488	13986
920.598	14138
920.708	14313
920.818	14172
920.928	14202
921.038	14305
921.148	14275
921.258	13963
921.368	13860
921.477	13788
921.587	13712
921.697	13518
921.806	13841
921.916	13632
922.025	13396
922.134	13457
922.244	13426
922.353	13426
922.462	13327
922.571	13312
922.68	13042
922.789	13126
922.898	13031
923.007	13034
923.116	13091
923.224	13114
923.333	13103
923.442	12943
923.55	12837
923.659	12863
923.767	12985
923.876	12909
923.984	12867
924.092	12749
924.201	12863
924.309	12776
924.417	12738
924.525	12703
924.633	12806
924.741	13506
924.849	12601
924.956	12696
925.064	12551
925.172	12509
925.279	12475
925.387	12540
925.494	12513
925.602	12673
925.709	12597
925.816	12441
925.924	12399
926.031	12555
926.138	12418
926.245	12437
926.352	12380
926.459	12540
926.566	12582
926.673	12334
926.779	12220
926.886	12300
926.993	12064
927.099	12133
927.206	12030
927.312	12019
927.419	12140
927.525	12098
927.631	12175
927.737	11996
927.843	11901
927.95	11764
928.056	11977
928.162	11961
928.267	11992
928.373	12544
928.479	11977
928.585	11790
928.69	11916
928.796	11889
928.901	11798
929.007	11634
929.112	11794
929.218	11688
929.323	11707
929.428	11585
929.533	11798
929.638	11581
929.743	11684
929.848	11600
929.953	11524
930.058	11459
930.163	11372
930.267	11349
930.372	11482
930.477	11341
930.581	11604
930.685	11387
930.79	11269
930.894	11223
930.998	11174
931.103	11383
931.207	11029
931.311	10972
931.415	10873
931.519	10649
931.623	10660
