Data from test_V78500241_2708.txt Node
Date: Fri Mar 25 15:28:42 CST 2022
User: usil
Spectrometer: V785-0024
Trigger mode: 0
Integration Time (sec): 4.000000E-1
Scans to average: 1
Nonlinearity correction enabled: false
Boxcar width: 0
Storing dark spectrum: false
XAxis mode: Wavelengths
Number of Pixels in Spectrum: 1024
>>>>>Begin Spectral Data<<<<<
801.071	27112
801.214	27138
801.356	26785
801.499	26697
801.641	26724
801.783	26697
801.926	26686
802.068	26697
802.211	26530
802.353	26431
802.496	26400
802.638	26199
802.78	26263
802.923	26138
803.065	26161
803.208	26210
803.35	26282
803.492	26385
803.635	26518
803.777	26286
803.919	26381
804.061	26746
804.204	26419
804.346	26328
804.488	26324
804.63	26450
804.773	26427
804.915	26469
805.057	26594
805.199	26374
805.341	26434
805.483	26590
805.626	26415
805.768	26442
805.91	26575
806.052	26602
806.194	26552
806.336	26689
806.478	26594
806.62	26579
806.762	26598
806.904	26842
807.046	26883
807.188	26849
807.33	26929
807.472	27020
807.614	26838
807.756	26830
807.898	26708
808.04	26800
808.182	26765
808.324	26830
808.465	26762
808.607	26921
808.749	27154
808.891	27123
809.033	27233
809.174	27157
809.316	27146
809.458	27188
809.6	27043
809.741	27252
809.883	27131
810.025	27298
810.166	27367
810.308	27416
810.45	27363
810.591	27256
810.733	27154
810.875	27108
811.016	26971
811.158	27036
811.299	27294
811.441	27332
811.582	27325
811.724	27112
811.865	26998
812.007	27039
812.148	27089
812.29	27142
812.431	27283
812.573	27355
812.714	27603
812.855	27610
812.997	27698
813.138	27892
813.279	27747
813.421	27618
813.562	27485
813.703	27435
813.845	27283
813.986	27055
814.127	26925
814.268	26773
814.41	26929
814.551	26773
814.692	26910
814.833	26914
814.974	26758
815.115	26819
815.256	26670
815.397	26705
815.539	26629
815.68	26625
815.821	26415
815.962	26465
816.103	26480
816.244	26450
816.385	26358
816.526	26240
816.666	26278
816.807	26138
816.948	26119
817.089	26145
817.23	26142
817.371	26008
817.512	26107
817.653	26054
817.793	25955
817.934	26039
818.075	26176
818.216	26077
818.356	25947
818.497	26046
818.638	25799
818.778	25723
818.919	25871
819.06	25925
819.2	25890
819.341	26084
819.481	25986
819.622	26199
819.762	26259
819.903	26320
820.043	26252
820.184	26164
820.324	26138
820.465	26229
820.605	26130
820.746	26084
820.886	25974
821.026	26012
821.167	26005
821.307	26149
821.447	26005
821.588	25955
821.728	25875
821.868	25567
822.008	25552
822.149	25556
822.289	25605
822.429	25168
822.569	25244
822.709	25168
822.849	25061
822.99	25084
823.13	24932
823.27	24894
823.41	24787
823.55	24776
823.69	24859
823.83	24909
823.97	24753
824.11	24566
824.25	24525
824.389	24669
824.529	24859
824.669	24631
824.809	24700
824.949	24654
825.089	24787
825.228	24745
825.368	24410
825.508	24433
825.648	24483
825.787	24559
825.927	24684
826.067	24422
826.206	24464
826.346	24494
826.485	24536
826.625	24525
826.765	24711
826.904	24471
827.044	24388
827.183	24289
827.323	24296
827.462	24270
827.601	24125
827.741	24194
827.88	24254
828.02	23996
828.159	24224
828.298	24205
828.437	24133
828.577	24079
828.716	24296
828.855	24095
828.994	23954
829.134	23950
829.273	23855
829.412	23882
829.551	23824
829.69	23961
829.829	23992
829.968	23874
830.107	24007
830.246	23912
830.385	23824
830.524	23824
830.663	23714
830.802	23802
830.941	23539
831.08	23570
831.219	23611
831.357	23505
831.496	23657
831.635	23497
831.774	23528
831.913	23497
832.051	23425
832.19	23345
832.329	23337
832.467	23094
832.606	23197
832.744	23250
832.883	23254
833.022	23128
833.16	23181
833.299	23220
833.437	23220
833.576	23143
833.714	23220
833.852	23235
833.991	23299
834.129	23402
834.267	23296
834.406	23337
834.544	23254
834.682	23311
834.821	23250
834.959	23474
835.097	23098
835.235	23280
835.373	23189
835.511	23349
835.65	23121
835.788	23181
835.926	23033
836.064	22915
836.202	22919
836.34	23090
836.478	23174
836.615	23041
836.753	23079
836.891	23022
837.029	23143
837.167	23006
837.305	23109
837.443	22949
837.58	22927
837.718	23022
837.856	22999
837.993	22824
838.131	22854
838.269	22790
838.406	22900
838.544	22774
838.681	22527
838.819	22702
838.956	22382
839.094	22497
839.231	22462
839.369	22550
839.506	22873
839.643	22615
839.781	22337
839.918	22379
840.055	22451
840.193	22295
840.33	22432
840.467	22341
840.604	22470
840.742	22634
840.879	22169
841.016	22379
841.153	22265
841.29	22516
841.427	22265
841.564	22424
841.701	22295
841.838	22234
841.975	22177
842.112	22306
842.249	22230
842.385	22181
842.522	22333
842.659	22154
842.796	22246
842.933	22120
843.069	22032
843.206	22150
843.343	22314
843.479	22166
843.616	22059
843.752	21960
843.889	21994
844.025	22139
844.162	21907
844.298	21892
844.435	21945
844.571	21915
844.708	21880
844.844	22021
844.98	22002
845.117	22067
845.253	21888
845.389	21724
845.525	21827
845.661	21755
845.798	21549
845.934	21671
846.07	21656
846.206	21705
846.342	21895
846.478	21534
846.614	21332
846.75	21416
846.886	21393
847.022	21629
847.158	21401
847.294	21416
847.429	21538
847.565	21355
847.701	21610
847.837	21070
847.972	21055
848.108	21203
848.244	21165
848.379	20994
848.515	20914
848.65	20963
848.786	21119
848.921	20967
849.057	21077
849.192	21119
849.328	21116
849.463	20883
849.598	20887
849.734	20899
849.869	20754
850.004	20674
850.14	20712
850.275	20796
850.41	20678
850.545	20727
850.68	20712
850.815	20765
850.95	20777
851.085	20967
851.22	20876
851.355	20750
851.49	20788
851.625	20571
851.76	20693
851.895	20587
852.03	20705
852.165	20826
852.299	20746
852.434	20849
852.569	20743
852.703	20697
852.838	20693
852.973	20769
853.107	20929
853.242	20727
853.376	20568
853.511	20564
853.645	20583
853.78	20609
853.914	20571
854.048	20495
854.183	20507
854.317	20735
854.451	20769
854.585	20632
854.72	20571
854.854	20480
854.988	20480
855.122	20541
855.256	20511
855.39	20431
855.524	20792
855.658	20640
855.792	20545
855.926	20651
856.06	20571
856.194	20667
856.327	20556
856.461	20530
856.595	20473
856.729	20556
856.862	20701
856.996	20587
857.13	20640
857.263	20644
857.397	20632
857.53	20499
857.664	20526
857.797	20613
857.931	20724
858.064	20648
858.197	20632
858.331	20575
858.464	20537
858.597	20465
858.731	20613
858.864	20541
858.997	20571
859.13	20560
859.263	20659
859.396	20594
859.529	20484
859.662	20514
859.795	20476
859.928	20476
860.061	20708
860.194	20609
860.327	20701
860.46	20693
860.592	20686
860.725	20602
860.858	20750
860.99	20488
861.123	20457
861.256	20366
861.388	20571
861.521	21116
861.653	20552
861.786	20301
861.918	20362
862.05	20473
862.183	20476
862.315	20507
862.447	20670
862.58	20488
862.712	20374
862.844	20271
862.976	20320
863.108	20347
863.24	20724
863.372	20233
863.504	20305
863.636	20278
863.768	20278
863.9	20233
864.032	20256
864.164	20202
864.296	20248
864.428	20248
864.559	20385
864.691	20317
864.823	20313
864.954	20263
865.086	20263
865.217	20237
865.349	20119
865.48	20237
865.612	20161
865.743	20374
865.875	20237
866.006	20142
866.137	20161
866.269	20298
866.4	20271
866.531	20103
866.662	20119
866.793	20142
866.924	20130
867.055	20199
867.186	20100
867.317	20202
867.448	20024
867.579	20096
867.71	20069
867.841	20134
867.972	20259
868.103	20065
868.233	20138
868.364	20240
868.495	20168
868.625	20317
868.756	20438
868.886	20259
869.017	20282
869.147	20419
869.278	20400
869.408	20351
869.539	20473
869.669	20537
869.799	20526
869.929	20530
870.06	20461
870.19	20792
870.32	20674
870.45	20754
870.58	20674
870.71	20807
870.84	20842
870.97	20773
871.1	20701
871.23	20937
871.36	20941
871.489	20781
871.619	20914
871.749	21017
871.879	20948
872.008	21051
872.138	21032
872.267	20842
872.397	20838
872.526	20800
872.656	20864
872.785	20769
872.915	20971
873.044	20971
873.173	20998
873.303	21066
873.432	20990
873.561	21096
873.69	21119
873.819	20864
873.948	20975
874.077	20963
874.206	20891
874.335	20925
874.464	20986
874.593	21355
874.722	21169
874.851	21294
874.979	21302
875.108	21283
875.237	21214
875.365	21180
875.494	21264
875.623	21154
875.751	21298
875.88	21199
876.008	21450
876.136	21408
876.265	21667
876.393	21698
876.521	21739
876.65	21542
876.778	21603
876.906	21675
877.034	21591
877.162	21660
877.29	21671
877.418	21644
877.546	21618
877.674	21576
877.802	21561
877.93	21523
878.058	21477
878.185	21435
878.313	21538
878.441	21671
878.568	21302
878.696	21595
878.824	21701
878.951	21732
879.079	21720
879.206	21873
879.333	21854
879.461	21595
879.588	21682
879.715	21789
879.842	21679
879.97	21656
880.097	21370
880.224	21462
880.351	21435
880.478	21454
880.605	21313
880.732	21469
880.859	21587
880.986	21450
881.112	21504
881.239	21310
881.366	21176
881.493	20990
881.619	21135
881.746	20971
881.872	21013
881.999	20952
882.125	20937
882.252	21005
882.378	20963
882.505	21039
882.631	20861
882.757	20659
882.883	20864
883.01	20758
883.136	20629
883.262	20613
883.388	20640
883.514	20678
883.64	20651
883.766	20655
883.892	20549
884.018	20579
884.143	20769
884.269	20693
884.395	20503
884.52	20385
884.646	20275
884.772	20438
884.897	20210
885.023	20465
885.148	20461
885.274	20488
885.399	20461
885.524	20286
885.65	20366
885.775	20339
885.9	20434
886.025	20438
886.15	20320
886.275	20362
886.4	20229
886.525	20431
886.65	20313
886.775	20225
886.9	20362
887.025	20644
887.149	20339
887.274	20145
887.399	20073
887.523	19982
887.648	20012
887.773	20096
887.897	20199
888.021	20233
888.146	20088
888.27	20202
888.395	20294
888.519	20119
888.643	20012
888.767	20233
888.891	19997
889.015	20073
889.139	19982
889.263	20001
889.387	19986
889.511	20138
889.635	20111
889.759	19902
889.883	19811
890.006	19925
890.13	20100
890.254	19879
890.377	19883
890.501	19582
890.624	19677
890.748	19624
890.871	19674
890.995	19464
891.118	19483
891.241	19578
891.364	19392
891.488	19544
891.611	19445
891.734	19544
891.857	19556
891.98	19434
892.103	19491
892.226	19590
892.349	19464
892.471	19415
892.594	19460
892.717	19434
892.839	19350
892.962	19354
893.085	19415
893.207	19365
893.33	19301
893.452	19369
893.575	19480
893.697	19354
893.819	19464
893.941	19647
894.064	19575
894.186	19350
894.308	19441
894.43	19537
894.552	19567
894.674	19495
894.796	19339
894.918	19381
895.04	19480
895.161	19525
895.283	19472
895.405	19407
895.526	19221
895.648	19312
895.769	19460
895.891	19529
896.012	19525
896.134	19518
896.255	19468
896.376	19415
896.498	19438
896.619	19487
896.74	19575
896.861	19525
896.982	19811
897.103	19947
897.224	19693
897.345	19723
897.466	19601
897.587	19620
897.708	19704
897.828	19723
897.949	19616
898.07	19426
898.19	19510
898.311	19677
898.431	19685
898.552	19704
898.672	19837
898.792	19830
898.913	19670
899.033	19597
899.153	19506
899.273	19369
899.393	19468
899.513	19373
899.633	19460
899.753	19556
899.873	19449
899.993	19483
900.113	19415
900.232	19460
900.352	19339
900.472	19278
900.591	19129
900.711	19327
900.83	19213
900.95	19365
901.069	19304
901.189	19088
901.308	18985
901.427	18768
901.546	18924
901.665	18749
901.784	18829
901.904	18677
902.023	18601
902.141	18414
902.26	18407
902.379	18372
902.498	18395
902.617	18399
902.735	18365
902.854	18327
902.973	18197
903.091	18098
903.21	17999
903.328	18003
903.446	17870
903.565	17828
903.683	17855
903.801	17722
903.919	17805
904.038	17707
904.156	17585
904.274	17718
904.392	17539
904.51	17668
904.627	17478
904.745	17615
904.863	17672
904.981	17391
905.098	17341
905.216	17242
905.334	17315
905.451	17395
905.569	17189
905.686	17277
905.803	17178
905.921	17105
906.038	17185
906.155	17117
906.272	16889
906.389	16965
906.506	16805
906.623	16816
906.74	16831
906.857	16767
906.974	16656
907.091	16862
907.208	17003
907.324	16812
907.441	16748
907.557	16565
907.674	16474
907.79	16516
907.907	16527
908.023	16592
908.139	16466
908.256	16538
908.372	16413
908.488	16455
908.604	16253
908.72	16177
908.836	16268
908.952	16166
909.068	16261
909.184	16284
909.3	16291
909.415	16207
909.531	16242
909.647	16040
909.762	15972
909.878	15956
909.993	15998
910.108	16002
910.224	15979
910.339	15842
910.454	15895
910.57	15800
910.685	15694
910.8	16093
910.915	15998
911.03	15797
911.145	15648
911.259	15591
911.374	15622
911.489	15458
911.604	15435
911.718	15401
911.833	15363
911.947	15275
912.062	15214
912.176	15370
912.291	15336
912.405	15374
912.519	15519
912.633	15496
912.748	15416
912.862	15401
912.976	15222
913.09	15020
913.204	15097
913.318	15089
913.431	15256
913.545	15180
913.659	15283
913.772	15188
913.886	14971
914	14921
914.113	15017
914.226	15161
914.34	15017
914.453	14834
914.566	14971
914.68	14895
914.793	14956
914.906	14667
915.019	14579
915.132	14564
915.245	14613
915.358	14526
915.47	14583
915.583	14537
915.696	14587
915.809	14564
915.921	14640
916.034	14488
916.146	14412
916.259	14465
916.371	14530
916.483	14602
916.595	14404
916.708	14396
916.82	14377
916.932	14381
917.044	14358
917.156	14427
917.268	14328
917.38	14233
917.491	14294
917.603	14248
917.715	14324
917.826	14282
917.938	14176
918.049	14183
918.161	14157
918.272	14313
918.384	14362
918.495	14214
918.606	14119
918.717	13887
918.828	14027
918.939	14119
919.05	13852
919.161	14027
919.272	13837
919.383	13890
919.494	14062
919.604	14240
919.715	14096
919.826	13940
919.936	13959
920.047	14119
920.157	14027
920.267	14183
920.378	14077
920.488	14027
920.598	14233
920.708	14328
920.818	14126
920.928	14111
921.038	14320
921.148	14317
921.258	14001
921.368	13864
921.477	13757
921.587	13704
921.697	13651
921.806	13723
921.916	13620
922.025	13445
922.134	13419
922.244	13346
922.353	13438
922.462	13358
922.571	13213
922.68	13103
922.789	13065
922.898	13149
923.007	13057
923.116	13015
923.224	13091
923.333	13012
923.442	12935
923.55	12886
923.659	12943
923.767	12909
923.876	12844
923.984	12821
924.092	12738
924.201	12867
924.309	12776
924.417	12772
924.525	12711
924.633	12719
924.741	13685
924.849	12540
924.956	12745
925.064	12494
925.172	12407
925.279	12589
925.387	12502
925.494	12448
925.602	12566
925.709	12498
925.816	12361
925.924	12376
926.031	12528
926.138	12475
926.245	12441
926.352	12292
926.459	12395
926.566	12551
926.673	12289
926.779	12190
926.886	12205
926.993	12091
927.099	12034
927.206	11992
927.312	12076
927.419	12076
927.525	12064
927.631	12121
927.737	11931
927.843	11942
927.95	11790
928.056	11889
928.162	11942
928.267	11954
928.373	12456
928.479	11954
928.585	11646
928.69	11863
928.796	11958
928.901	11771
929.007	11646
929.112	11771
929.218	11722
929.323	11714
929.428	11608
929.533	11805
929.638	11615
929.743	11642
929.848	11665
929.953	11512
930.058	11497
930.163	11288
930.267	11311
930.372	11448
930.477	11330
930.581	11490
930.685	11372
930.79	11155
930.894	11254
930.998	11201
931.103	11364
931.207	11052
931.311	10873
931.415	10831
931.519	10660
931.623	10664
