Data from test_V78500241_3100.txt Node
Date: Fri Mar 25 15:31:26 CST 2022
User: usil
Spectrometer: V785-0024
Trigger mode: 0
Integration Time (sec): 4.000000E-1
Scans to average: 1
Nonlinearity correction enabled: false
Boxcar width: 0
Storing dark spectrum: false
XAxis mode: Wavelengths
Number of Pixels in Spectrum: 1024
>>>>>Begin Spectral Data<<<<<
801.071	26625
801.214	26465
801.356	26168
801.499	26221
801.641	25959
801.783	26016
801.926	26069
802.068	26016
802.211	25940
802.353	26001
802.496	25906
802.638	25647
802.78	25693
802.923	25571
803.065	25521
803.208	25453
803.35	25609
803.492	25765
803.635	25780
803.777	25761
803.919	25753
804.061	26035
804.204	25833
804.346	25734
804.488	25727
804.63	25689
804.773	25605
804.915	25647
805.057	25852
805.199	25765
805.341	25811
805.483	25818
805.626	25822
805.768	25765
805.91	25803
806.052	25791
806.194	25803
806.336	26035
806.478	25894
806.62	25822
806.762	25940
806.904	26142
807.046	26366
807.188	26252
807.33	26210
807.472	26252
807.614	26278
807.756	26195
807.898	26134
808.04	26016
808.182	25875
808.324	25944
808.465	26096
808.607	26206
808.749	26374
808.891	26541
809.033	26575
809.174	26423
809.316	26389
809.458	26419
809.6	26374
809.741	26549
809.883	26511
810.025	26587
810.166	26625
810.308	26648
810.45	26575
810.591	26434
810.733	26404
810.875	26339
811.016	26244
811.158	26225
811.299	26503
811.441	26625
811.582	26495
811.724	26339
811.865	26317
812.007	26195
812.148	26286
812.29	26480
812.431	26590
812.573	26712
812.714	26807
812.855	26906
812.997	26910
813.138	27070
813.279	26960
813.421	26956
813.562	26762
813.703	26712
813.845	26461
813.986	26282
814.127	26122
814.268	26016
814.41	26084
814.551	25875
814.692	26084
814.833	25856
814.974	25963
815.115	26027
815.256	25845
815.397	25974
815.539	25837
815.68	25845
815.821	25719
815.962	25757
816.103	25902
816.244	25578
816.385	25521
816.526	25460
816.666	25453
816.807	25308
816.948	25327
817.089	25384
817.23	25278
817.371	25289
817.512	25206
817.653	25259
817.793	25274
817.934	25320
818.075	25126
818.216	25263
818.356	25209
818.497	25171
818.638	24886
818.778	24992
818.919	24966
819.06	24977
819.2	25050
819.341	25183
819.481	25255
819.622	25225
819.762	25491
819.903	25441
820.043	25373
820.184	25343
820.324	25285
820.465	25369
820.605	25301
820.746	25190
820.886	25209
821.026	25240
821.167	25175
821.307	25297
821.447	25175
821.588	25156
821.728	24954
821.868	24795
822.008	24623
822.149	24627
822.289	24635
822.429	24448
822.569	24456
822.709	24178
822.849	24308
822.99	24178
823.13	24209
823.27	24140
823.41	24060
823.55	23920
823.69	23977
823.83	23984
823.97	23912
824.11	23786
824.25	23824
824.389	23764
824.529	23821
824.669	23859
824.809	23961
824.949	23977
825.089	23897
825.228	23859
825.368	23733
825.508	23672
825.648	23748
825.787	23691
825.927	23627
826.067	23729
826.206	23653
826.346	23786
826.485	23668
826.625	23699
826.765	23836
826.904	23741
827.044	23524
827.183	23406
827.323	23360
827.462	23398
827.601	23277
827.741	23490
827.88	23455
828.02	23166
828.159	23372
828.298	23372
828.437	23463
828.577	23216
828.716	23406
828.855	23273
828.994	23121
829.134	23174
829.273	23162
829.412	23159
829.551	23166
829.69	23143
829.829	23048
829.968	23124
830.107	22957
830.246	23235
830.385	23124
830.524	23098
830.663	22965
830.802	22877
830.941	22778
831.08	22805
831.219	22736
831.357	22748
831.496	22889
831.635	22729
831.774	22694
831.913	22653
832.051	22535
832.19	22508
832.329	22478
832.467	22333
832.606	22242
832.744	22268
832.883	22257
833.022	22390
833.16	22409
833.299	22367
833.437	22455
833.576	22421
833.714	22451
833.852	22577
833.991	22360
834.129	22599
834.267	22504
834.406	22557
834.544	22592
834.682	22485
834.821	22367
834.959	22592
835.097	22356
835.235	22405
835.373	22417
835.511	22394
835.65	22318
835.788	22310
835.926	22112
836.064	22196
836.202	22166
836.34	22253
836.478	22348
836.615	22337
836.753	22314
836.891	22337
837.029	22333
837.167	22265
837.305	22181
837.443	22120
837.58	22090
837.718	22192
837.856	22070
837.993	22105
838.131	22109
838.269	22082
838.406	22234
838.544	21880
838.681	21823
838.819	21755
838.956	21656
839.094	21568
839.231	21717
839.369	21846
839.506	21979
839.643	21873
839.781	21542
839.918	21580
840.055	21610
840.193	21595
840.33	21663
840.467	21591
840.604	21671
840.742	21865
840.879	21405
841.016	21557
841.153	21534
841.29	21698
841.427	21500
841.564	21568
841.701	21591
841.838	21523
841.975	21454
842.112	21504
842.249	21367
842.385	21317
842.522	21587
842.659	21386
842.796	21298
842.933	21298
843.069	21313
843.206	21313
843.343	21329
843.479	21408
843.616	21298
843.752	21024
843.889	21131
844.025	21211
844.162	21055
844.298	21211
844.435	21108
844.571	21100
844.708	21169
844.844	21260
844.98	21135
845.117	21100
845.253	21066
845.389	20902
845.525	21013
845.661	20921
845.798	20845
845.934	20883
846.07	20830
846.206	20880
846.342	20921
846.478	20804
846.614	20674
846.75	20602
846.886	20617
847.022	20613
847.158	20655
847.294	20629
847.429	20594
847.565	20579
847.701	20880
847.837	20301
847.972	20317
848.108	20514
848.244	20434
848.379	20221
848.515	20092
848.65	20210
848.786	20259
848.921	20210
849.057	20271
849.192	20298
849.328	20206
849.463	20050
849.598	20157
849.734	20103
849.869	20058
850.004	19989
850.14	19932
850.275	19928
850.41	19947
850.545	19837
850.68	19940
850.815	20005
850.95	19925
851.085	20145
851.22	20035
851.355	20016
851.49	20092
851.625	19890
851.76	19841
851.895	19997
852.03	19944
852.165	19925
852.299	20081
852.434	19970
852.569	19951
852.703	19947
852.838	20111
852.973	20084
853.107	19967
853.242	19803
853.376	19776
853.511	19700
853.645	19742
853.78	19864
853.914	19826
854.048	19734
854.183	19818
854.317	19780
854.451	19967
854.585	19753
854.72	19822
854.854	19814
854.988	19761
855.122	19811
855.256	19635
855.39	19826
855.524	19936
855.658	19753
855.792	19750
855.926	19742
856.06	19967
856.194	19879
856.327	19696
856.461	19662
856.595	19715
856.729	19685
856.862	19837
856.996	19784
857.13	19871
857.263	19913
857.397	19864
857.53	19856
857.664	19833
857.797	19803
857.931	19833
858.064	19814
858.197	19818
858.331	19784
858.464	19769
858.597	19624
858.731	19765
858.864	19795
858.997	19845
859.13	19791
859.263	19849
859.396	19917
859.529	19780
859.662	19734
859.795	19674
859.928	19841
860.061	19906
860.194	19974
860.327	19906
860.46	19715
860.592	19845
860.725	20016
860.858	19868
860.99	19841
861.123	19712
861.256	19715
861.388	19674
861.521	20328
861.653	19662
861.786	19605
861.918	19632
862.05	19601
862.183	19575
862.315	19727
862.447	19845
862.58	19719
862.712	19559
862.844	19582
862.976	19639
863.108	19586
863.24	19807
863.372	19358
863.504	19563
863.636	19396
863.768	19597
863.9	19586
864.032	19434
864.164	19533
864.296	19575
864.428	19597
864.559	19616
864.691	19518
864.823	19540
864.954	19590
865.086	19556
865.217	19445
865.349	19411
865.48	19468
865.612	19396
865.743	19544
865.875	19449
866.006	19445
866.137	19392
866.269	19324
866.4	19381
866.531	19194
866.662	19324
866.793	19400
866.924	19388
867.055	19316
867.186	19403
867.317	19362
867.448	19289
867.579	19316
867.71	19270
867.841	19350
867.972	19365
868.103	19350
868.233	19438
868.364	19346
868.495	19472
868.625	19563
868.756	19662
868.886	19613
869.017	19506
869.147	19655
869.278	19757
869.408	19666
869.539	19609
869.669	19727
869.799	19689
869.929	19818
870.06	19696
870.19	19932
870.32	19860
870.45	19936
870.58	20031
870.71	20096
870.84	20058
870.97	19986
871.1	20096
871.23	20164
871.36	20309
871.489	20103
871.619	20202
871.749	20122
871.879	20240
872.008	20396
872.138	20233
872.267	20240
872.397	20149
872.526	20115
872.656	20081
872.785	20065
872.915	20336
873.044	20412
873.173	20225
873.303	20229
873.432	20400
873.561	20298
873.69	20339
873.819	20210
873.948	20347
874.077	20347
874.206	20225
874.335	20176
874.464	20294
874.593	20412
874.722	20507
874.851	20530
874.979	20438
875.108	20336
875.237	20301
875.365	20404
875.494	20514
875.623	20541
875.751	20511
875.88	20503
876.008	20552
876.136	20625
876.265	20769
876.393	21051
876.521	21058
876.65	20998
876.778	20902
876.906	20826
877.034	20781
877.162	20914
877.29	20743
877.418	20960
877.546	20857
877.674	20902
877.802	20891
877.93	20815
878.058	20750
878.185	20769
878.313	20811
878.441	20811
878.568	20686
878.696	20826
878.824	20861
878.951	20899
879.079	20941
879.206	21169
879.333	21013
879.461	20906
879.588	21001
879.715	21051
879.842	21017
879.97	20979
880.097	20640
880.224	20701
880.351	20716
880.478	20689
880.605	20571
880.732	20640
880.859	20853
880.986	20670
881.112	20606
881.239	20632
881.366	20476
881.493	20347
881.619	20320
881.746	20324
881.872	20324
881.999	20240
882.125	20233
882.252	20290
882.378	20263
882.505	20343
882.631	20130
882.757	19959
882.883	19970
883.01	19993
883.136	19868
883.262	19856
883.388	19864
883.514	19993
883.64	20020
883.766	19932
883.892	19715
884.018	19799
884.143	19917
884.269	20084
884.395	19750
884.52	19666
884.646	19674
884.772	19670
884.897	19624
885.023	19651
885.148	19772
885.274	19898
885.399	19757
885.524	19601
885.65	19738
885.775	19734
885.9	19620
886.025	19776
886.15	19818
886.275	19666
886.4	19681
886.525	19647
886.65	19590
886.775	19578
886.9	19681
887.025	19845
887.149	19567
887.274	19384
887.399	19384
887.523	19495
887.648	19324
887.773	19293
887.897	19578
888.021	19350
888.146	19487
888.27	19441
888.395	19480
888.519	19483
888.643	19441
888.767	19438
888.891	19354
889.015	19278
889.139	19331
889.263	19282
889.387	19335
889.511	19525
889.635	19472
889.759	19240
889.883	19137
890.006	19293
890.13	19350
890.254	19179
890.377	19213
890.501	19008
890.624	18928
890.748	19050
890.871	18932
890.995	18806
891.118	18757
891.241	18977
891.364	18890
891.488	18985
891.611	18829
891.734	18768
891.857	18932
891.98	18973
892.103	18901
892.226	18871
892.349	18833
892.471	18669
892.594	18802
892.717	18798
892.839	18776
892.962	18806
893.085	18863
893.207	18905
893.33	18654
893.452	18673
893.575	18886
893.697	18722
893.819	18882
893.941	18958
894.064	18905
894.186	18749
894.308	18764
894.43	18837
894.552	18932
894.674	18890
894.796	18779
894.918	18798
895.04	18711
895.161	18802
895.283	18776
895.405	18639
895.526	18890
895.648	18795
895.769	18772
895.891	18817
896.012	18856
896.134	18954
896.255	18878
896.376	18711
896.498	18829
896.619	18802
896.74	18856
896.861	18745
896.982	19088
897.103	19289
897.224	19038
897.345	19015
897.466	18905
897.587	18981
897.708	19129
897.828	18989
897.949	19004
898.07	18970
898.19	18954
898.311	19198
898.431	19038
898.552	19114
898.672	19129
898.792	19145
898.913	19122
899.033	18970
899.153	18745
899.273	18783
899.393	18817
899.513	18795
899.633	18768
899.753	18867
899.873	18802
899.993	18848
900.113	18844
900.232	18730
900.352	18814
900.472	18646
900.591	18566
900.711	18608
900.83	18597
900.95	18715
901.069	18623
901.189	18407
901.308	18304
901.427	18182
901.546	18300
901.665	18270
901.784	18277
901.904	18098
902.023	18114
902.141	17878
902.26	17737
902.379	17809
902.498	17722
902.617	17653
902.735	17790
902.854	17775
902.973	17676
903.091	17402
903.21	17398
903.328	17452
903.446	17341
903.565	17277
903.683	17208
903.801	17151
903.919	17239
904.038	17189
904.156	17010
904.274	16976
904.392	17121
904.51	16972
904.627	17048
904.745	17025
904.863	17121
904.981	16850
905.098	16790
905.216	16664
905.334	16713
905.451	16653
905.569	16656
905.686	16653
905.803	16679
905.921	16535
906.038	16622
906.155	16558
906.272	16333
906.389	16360
906.506	16196
906.623	16234
906.74	16284
906.857	16192
906.974	16131
907.091	16295
907.208	16360
907.324	16253
907.441	16143
907.557	15987
907.674	16021
907.79	15907
907.907	15907
908.023	16086
908.139	15991
908.256	15994
908.372	15876
908.488	15876
908.604	15736
908.72	15686
908.836	15717
908.952	15682
909.068	15728
909.184	15679
909.3	15705
909.415	15766
909.531	15656
909.647	15416
909.762	15561
909.878	15473
909.993	15382
910.108	15412
910.224	15325
910.339	15336
910.454	15294
910.57	15249
910.685	15142
910.8	15329
910.915	15374
911.03	15245
911.145	15020
911.259	15058
911.374	15077
911.489	15020
911.604	14937
911.718	14796
911.833	14773
911.947	14648
912.062	14594
912.176	14807
912.291	14849
912.405	14743
912.519	15017
912.633	15047
912.748	14796
912.862	14857
912.976	14606
913.09	14476
913.204	14533
913.318	14598
913.431	14724
913.545	14587
913.659	14689
913.772	14579
913.886	14408
914	14465
914.113	14469
914.226	14541
914.34	14511
914.453	14328
914.566	14537
914.68	14343
914.793	14362
914.906	14130
915.019	14092
915.132	14065
915.245	14081
915.358	14031
915.47	14096
915.583	14050
915.696	14149
915.809	14092
915.921	14221
916.034	14005
916.146	13970
916.259	13959
916.371	14046
916.483	14100
916.595	13928
916.708	13940
916.82	13860
916.932	13947
917.044	13830
917.156	13845
917.268	13784
917.38	13826
917.491	13685
917.603	13818
917.715	13841
917.826	13826
917.938	13681
918.049	13609
918.161	13723
918.272	13887
918.384	13780
918.495	13795
918.606	13575
918.717	13411
918.828	13575
918.939	13559
919.05	13480
919.161	13632
919.272	13289
919.383	13377
919.494	13510
919.604	13712
919.715	13468
919.826	13384
919.936	13502
920.047	13502
920.157	13590
920.267	13700
920.378	13597
920.488	13537
920.598	13712
920.708	13902
920.818	13677
920.928	13662
921.038	13902
921.148	13746
921.258	13502
921.368	13377
921.477	13247
921.587	13236
921.697	13164
921.806	13331
921.916	13118
922.025	13118
922.134	12996
922.244	12920
922.353	12901
922.462	12863
922.571	12760
922.68	12639
922.789	12593
922.898	12570
923.007	12566
923.116	12623
923.224	12540
923.333	12483
923.442	12429
923.55	12410
923.659	12410
923.767	12403
923.876	12342
923.984	12433
924.092	12228
924.201	12342
924.309	12334
924.417	12350
924.525	12266
924.633	12235
924.741	13168
924.849	12110
924.956	12308
925.064	12098
925.172	12038
925.279	12072
925.387	12049
925.494	12041
925.602	12224
925.709	12129
925.816	11916
925.924	11961
926.031	12201
926.138	12015
926.245	12072
926.352	11935
926.459	12125
926.566	12076
926.673	11942
926.779	11874
926.886	11859
926.993	11722
927.099	11668
927.206	11672
927.312	11619
927.419	11726
927.525	11634
927.631	11779
927.737	11547
927.843	11646
927.95	11402
928.056	11554
928.162	11554
928.267	11501
928.373	12079
928.479	11505
928.585	11227
928.69	11547
928.796	11558
928.901	11303
929.007	11170
929.112	11421
929.218	11391
929.323	11280
929.428	11197
929.533	11410
929.638	11060
929.743	11239
929.848	11292
929.953	11197
930.058	11056
930.163	10980
930.267	10972
930.372	11056
930.477	10930
930.581	11201
930.685	10980
930.79	10866
930.894	10854
930.998	10854
931.103	10915
931.207	10584
931.311	10519
931.415	10474
931.519	10284
931.623	10249
