Data from test_V78500241_1549.txt Node
Date: Fri Mar 25 15:20:38 CST 2022
User: usil
Spectrometer: V785-0024
Trigger mode: 0
Integration Time (sec): 4.000000E-1
Scans to average: 1
Nonlinearity correction enabled: false
Boxcar width: 0
Storing dark spectrum: false
XAxis mode: Wavelengths
Number of Pixels in Spectrum: 1024
>>>>>Begin Spectral Data<<<<<
801.071	28006
801.214	27739
801.356	27519
801.499	27458
801.641	27420
801.783	27427
801.926	27500
802.068	27367
802.211	27439
802.353	27214
802.496	27077
802.638	27135
802.78	27138
802.923	27047
803.065	26952
803.208	27001
803.35	27195
803.492	27256
803.635	27241
803.777	27123
803.919	27184
804.061	27587
804.204	27317
804.346	27157
804.488	27131
804.63	27264
804.773	27188
804.915	27378
805.057	27561
805.199	27340
805.341	27359
805.483	27500
805.626	27382
805.768	27313
805.91	27447
806.052	27625
806.194	27401
806.336	27530
806.478	27351
806.62	27466
806.762	27561
806.904	27800
807.046	27907
807.188	27732
807.33	27819
807.472	27945
807.614	27797
807.756	27793
807.898	27808
808.04	27720
808.182	27800
808.324	27660
808.465	27819
808.607	27922
808.749	28040
808.891	28215
809.033	28215
809.174	28082
809.316	28070
809.458	28010
809.6	28002
809.741	28063
809.883	28219
810.025	28314
810.166	28401
810.308	28329
810.45	28116
810.591	28306
810.733	28181
810.875	28032
811.016	27979
811.158	27972
811.299	28181
811.441	28272
811.582	28238
811.724	28070
811.865	28044
812.007	28040
812.148	28090
812.29	28059
812.431	28280
812.573	28363
812.714	28443
812.855	28626
812.997	28641
813.138	28843
813.279	28774
813.421	28500
813.562	28531
813.703	28618
813.845	28276
813.986	27934
814.127	27854
814.268	27838
814.41	27747
814.551	27663
814.692	27762
814.833	27656
814.974	27755
815.115	27789
815.256	27599
815.397	27606
815.539	27542
815.68	27534
815.821	27355
815.962	27534
816.103	27561
816.244	27458
816.385	27351
816.526	27443
816.666	27104
816.807	26933
816.948	27226
817.089	27116
817.23	27123
817.371	27093
817.512	27047
817.653	27005
817.793	26960
817.934	27028
818.075	27108
818.216	27024
818.356	27036
818.497	26804
818.638	26758
818.778	26758
818.919	26716
819.06	26834
819.2	27043
819.341	27100
819.481	27039
819.622	27302
819.762	27359
819.903	27291
820.043	27161
820.184	27207
820.324	27245
820.465	27176
820.605	27112
820.746	27028
820.886	27032
821.026	27233
821.167	27081
821.307	27169
821.447	26998
821.588	26960
821.728	26891
821.868	26659
822.008	26438
822.149	26457
822.289	26438
822.429	26259
822.569	26115
822.709	26240
822.849	26092
822.99	26020
823.13	25860
823.27	25852
823.41	25772
823.55	25731
823.69	25917
823.83	25833
823.97	25780
824.11	25742
824.25	25647
824.389	25578
824.529	25613
824.669	25567
824.809	25723
824.949	25666
825.089	25723
825.228	25575
825.368	25419
825.508	25544
825.648	25632
825.787	25670
825.927	25514
826.067	25582
826.206	25537
826.346	25548
826.485	25601
826.625	25556
826.765	25624
826.904	25586
827.044	25464
827.183	25301
827.323	25285
827.462	25259
827.601	25312
827.741	25312
827.88	25263
828.02	25110
828.159	25285
828.298	25244
828.437	25213
828.577	25103
828.716	25304
828.855	25148
828.994	24966
829.134	24901
829.273	24954
829.412	24810
829.551	24852
829.69	24894
829.829	25057
829.968	24992
830.107	25168
830.246	24920
830.385	24932
830.524	24840
830.663	24696
830.802	24726
830.941	24574
831.08	24601
831.219	24707
831.357	24734
831.496	24734
831.635	24486
831.774	24578
831.913	24456
832.051	24426
832.19	24467
832.329	24262
832.467	24273
832.606	24136
832.744	24262
832.883	24194
833.022	24129
833.16	24201
833.299	24213
833.437	24258
833.576	24330
833.714	24262
833.852	24422
833.991	24323
834.129	24365
834.267	24388
834.406	24235
834.544	24228
834.682	24494
834.821	24308
834.959	24410
835.097	24224
835.235	24433
835.373	24232
835.511	24448
835.65	24129
835.788	24087
835.926	24102
836.064	24049
836.202	24003
836.34	24220
836.478	24254
836.615	24064
836.753	24194
836.891	24159
837.029	24091
837.167	24140
837.305	23984
837.443	23897
837.58	23958
837.718	24011
837.856	23923
837.993	23973
838.131	23912
838.269	23813
838.406	23779
838.544	23722
838.681	23581
838.819	23566
838.956	23562
839.094	23429
839.231	23448
839.369	23562
839.506	23882
839.643	23665
839.781	23531
839.918	23417
840.055	23459
840.193	23277
840.33	23269
840.467	23254
840.604	23303
840.742	23570
840.879	23280
841.016	23128
841.153	23151
841.29	23482
841.427	23292
841.564	23364
841.701	23318
841.838	23383
841.975	23178
842.112	23170
842.249	23128
842.385	23117
842.522	23303
842.659	23174
842.796	23132
842.933	23155
843.069	23299
843.206	23113
843.343	23189
843.479	22999
843.616	23136
843.752	22957
843.889	22900
844.025	23083
844.162	22873
844.298	22900
844.435	22831
844.571	22820
844.708	23003
844.844	23052
844.98	23025
845.117	23067
845.253	22729
845.389	22717
845.525	22725
845.661	22744
845.798	22706
845.934	22774
846.07	22451
846.206	22538
846.342	22653
846.478	22561
846.614	22394
846.75	22325
846.886	22367
847.022	22371
847.158	22470
847.294	22337
847.429	22394
847.565	22409
847.701	22550
847.837	22177
847.972	22078
848.108	22086
848.244	22223
848.379	21941
848.515	21857
848.65	21823
848.786	22070
848.921	22032
849.057	21998
849.192	22017
849.328	22010
849.463	22013
849.598	21861
849.734	21789
849.869	21861
850.004	21778
850.14	21743
850.275	21781
850.41	21728
850.545	21606
850.68	21660
850.815	21747
850.95	21713
851.085	21846
851.22	21781
851.355	21648
851.49	21701
851.625	21667
851.76	21766
851.895	21633
852.03	21549
852.165	21656
852.299	21743
852.434	21823
852.569	21869
852.703	21633
852.838	21759
852.973	21846
853.107	21884
853.242	21557
853.376	21545
853.511	21374
853.645	21477
853.78	21652
853.914	21526
854.048	21606
854.183	21504
854.317	21496
854.451	21637
854.585	21530
854.72	21485
854.854	21538
854.988	21500
855.122	21523
855.256	21283
855.39	21363
855.524	21599
855.658	21549
855.792	21561
855.926	21477
856.06	21477
856.194	21576
856.327	21519
856.461	21526
856.595	21507
856.729	21629
856.862	21587
856.996	21622
857.13	21599
857.263	21747
857.397	21603
857.53	21614
857.664	21561
857.797	21603
857.931	21618
858.064	21545
858.197	21542
858.331	21389
858.464	21401
858.597	21370
858.731	21473
858.864	21561
858.997	21500
859.13	21439
859.263	21538
859.396	21633
859.529	21412
859.662	21443
859.795	21587
859.928	21568
860.061	21568
860.194	21690
860.327	21519
860.46	21538
860.592	21545
860.725	21629
860.858	21705
860.99	21542
861.123	21454
861.256	21332
861.388	21492
861.521	22291
861.653	21431
861.786	21249
861.918	21214
862.05	21321
862.183	21336
862.315	21291
862.447	21583
862.58	21370
862.712	21226
862.844	21112
862.976	21382
863.108	21298
863.24	21564
863.372	21233
863.504	21260
863.636	21199
863.768	21169
863.9	21154
864.032	21116
864.164	21161
864.296	21275
864.428	21317
864.559	21492
864.691	21275
864.823	21203
864.954	21214
865.086	21131
865.217	21135
865.349	20998
865.48	21123
865.612	20990
865.743	21214
865.875	21146
866.006	21036
866.137	21093
866.269	21024
866.4	21135
866.531	20994
866.662	21085
866.793	20998
866.924	20906
867.055	21116
867.186	21096
867.317	21032
867.448	20914
867.579	21096
867.71	21020
867.841	20994
867.972	21020
868.103	20986
868.233	20967
868.364	21173
868.495	21089
868.625	21264
868.756	21336
868.886	21272
869.017	21226
869.147	21386
869.278	21447
869.408	21393
869.539	21214
869.669	21424
869.799	21272
869.929	21359
870.06	21340
870.19	21614
870.32	21576
870.45	21553
870.58	21625
870.71	21713
870.84	21827
870.97	21682
871.1	21698
871.23	21800
871.36	21759
871.489	21842
871.619	21800
871.749	21728
871.879	21869
872.008	21960
872.138	21857
872.267	21816
872.397	21778
872.526	21739
872.656	21701
872.785	21690
872.915	21842
873.044	22032
873.173	21869
873.303	21869
873.432	22002
873.561	21998
873.69	21835
873.819	21831
873.948	21907
874.077	22070
874.206	21819
874.335	21899
874.464	21945
874.593	22109
874.722	22059
874.851	22051
874.979	22048
875.108	22124
875.237	22055
875.365	21998
875.494	22078
875.623	22150
875.751	22131
875.88	22211
876.008	22166
876.136	22188
876.265	22485
876.393	22736
876.521	22493
876.65	22656
876.778	22599
876.906	22497
877.034	22527
877.162	22508
877.29	22443
877.418	22485
877.546	22500
877.674	22402
877.802	22371
877.93	22554
878.058	22246
878.185	22337
878.313	22386
878.441	22398
878.568	22249
878.696	22375
878.824	22478
878.951	22459
879.079	22668
879.206	22710
879.333	22573
879.461	22443
879.588	22626
879.715	22573
879.842	22790
879.97	22512
880.097	22284
880.224	22131
880.351	22409
880.478	22337
880.605	22272
880.732	22325
880.859	22580
880.986	22261
881.112	22325
881.239	22109
881.366	21979
881.493	21975
881.619	21937
881.746	21857
881.872	21956
881.999	21899
882.125	21823
882.252	21884
882.378	21766
882.505	21831
882.631	21720
882.757	21530
882.883	21709
883.01	21603
883.136	21496
883.262	21340
883.388	21355
883.514	21443
883.64	21591
883.766	21492
883.892	21355
884.018	21378
884.143	21488
884.269	21447
884.395	21317
884.52	21100
884.646	21218
884.772	21165
884.897	20998
885.023	21150
885.148	21336
885.274	21283
885.399	21306
885.524	21138
885.65	21135
885.775	21123
885.9	21096
886.025	21195
886.15	21310
886.275	21127
886.4	21089
886.525	21131
886.65	21089
886.775	21108
886.9	21268
887.025	21428
887.149	21074
887.274	20975
887.399	20876
887.523	20948
887.648	20800
887.773	20899
887.897	20883
888.021	20899
888.146	20849
888.27	21017
888.395	20952
888.519	20979
888.643	21077
888.767	21028
888.891	20796
889.015	20834
889.139	20838
889.263	20746
889.387	20853
889.511	20872
889.635	20765
889.759	20788
889.883	20781
890.006	20773
890.13	20815
890.254	20701
890.377	20686
890.501	20446
890.624	20469
890.748	20564
890.871	20343
890.995	20244
891.118	20252
891.241	20309
891.364	20370
891.488	20358
891.611	20328
891.734	20396
891.857	20457
891.98	20225
892.103	20385
892.226	20419
892.349	20210
892.471	20084
892.594	20210
892.717	20183
892.839	20282
892.962	20206
893.085	20244
893.207	20168
893.33	20157
893.452	20119
893.575	20210
893.697	20328
893.819	20381
893.941	20313
894.064	20237
894.186	20172
894.308	20077
894.43	20259
894.552	20347
894.674	20320
894.796	20130
894.918	20191
895.04	20138
895.161	20339
895.283	20206
895.405	20035
895.526	20081
895.648	20210
895.769	20191
895.891	20180
896.012	20221
896.134	20225
896.255	20210
896.376	20100
896.498	20191
896.619	20237
896.74	20183
896.861	20218
896.982	20541
897.103	20686
897.224	20450
897.345	20419
897.466	20393
897.587	20495
897.708	20503
897.828	20450
897.949	20374
898.07	20275
898.19	20282
898.311	20442
898.431	20324
898.552	20313
898.672	20423
898.792	20609
898.913	20457
899.033	20374
899.153	20237
899.273	20202
899.393	20081
899.513	20191
899.633	20225
899.753	20218
899.873	20172
899.993	20237
900.113	19993
900.232	20142
900.352	20081
900.472	19947
900.591	19894
900.711	19986
900.83	20020
900.95	20084
901.069	20001
901.189	19753
901.308	19590
901.427	19438
901.546	19567
901.665	19552
901.784	19582
901.904	19365
902.023	19293
902.141	19152
902.26	19053
902.379	19206
902.498	19042
902.617	18920
902.735	19012
902.854	18981
902.973	18935
903.091	18757
903.21	18688
903.328	18821
903.446	18722
903.565	18517
903.683	18608
903.801	18429
903.919	18464
904.038	18456
904.156	18346
904.274	18376
904.392	18251
904.51	18262
904.627	18353
904.745	18327
904.863	18292
904.981	18178
905.098	17920
905.216	17920
905.334	18034
905.451	17939
905.569	17916
905.686	17961
905.803	17870
905.921	17691
906.038	17836
906.155	17695
906.272	17676
906.389	17630
906.506	17497
906.623	17486
906.74	17520
906.857	17455
906.974	17356
907.091	17554
907.208	17585
907.324	17509
907.441	17360
907.557	17200
907.674	17204
907.79	17132
907.907	17197
908.023	17143
908.139	17109
908.256	17083
908.372	17147
908.488	17018
908.604	16927
908.72	16869
908.836	16946
908.952	16957
909.068	16953
909.184	16919
909.3	16835
909.415	16839
909.531	16896
909.647	16588
909.762	16778
909.878	16645
909.993	16679
910.108	16622
910.224	16516
910.339	16584
910.454	16493
910.57	16440
910.685	16322
910.8	16626
910.915	16390
911.03	16344
911.145	16207
911.259	16405
911.374	16234
911.489	16101
911.604	16025
911.718	15979
911.833	15865
911.947	15850
912.062	15793
912.176	15922
912.291	15922
912.405	15816
912.519	16139
912.633	16013
912.748	15975
912.862	15915
912.976	15804
913.09	15698
913.204	15701
913.318	15694
913.431	15846
913.545	15846
913.659	15865
913.772	15762
913.886	15671
914	15572
914.113	15698
914.226	15641
914.34	15644
914.453	15545
914.566	15629
914.68	15549
914.793	15466
914.906	15294
915.019	15226
915.132	15020
915.245	15184
915.358	15252
915.47	15127
915.583	15154
915.696	15195
915.809	15359
915.921	15252
916.034	15001
916.146	15123
916.259	15047
916.371	15077
916.483	15047
916.595	15020
916.708	15005
916.82	14880
916.932	14990
917.044	14910
917.156	15043
917.268	14918
917.38	14910
917.491	14880
917.603	14861
917.715	14773
917.826	14899
917.938	14686
918.049	14613
918.161	14788
918.272	14910
918.384	14929
918.495	14731
918.606	14655
918.717	14518
918.828	14590
918.939	14655
919.05	14457
919.161	14556
919.272	14332
919.383	14499
919.494	14663
919.604	14682
919.715	14613
919.826	14358
919.936	14522
920.047	14606
920.157	14484
920.267	14788
920.378	14533
920.488	14476
920.598	14693
920.708	14868
920.818	14613
920.928	14610
921.038	14777
921.148	14746
921.258	14412
921.368	14374
921.477	14339
921.587	14275
921.697	14134
921.806	14305
921.916	14058
922.025	13982
922.134	13875
922.244	13898
922.353	13936
922.462	13849
922.571	13662
922.68	13628
922.789	13483
922.898	13677
923.007	13487
923.116	13575
923.224	13613
923.333	13510
923.442	13491
923.55	13327
923.659	13445
923.767	13449
923.876	13362
923.984	13529
924.092	13324
924.201	13377
924.309	13255
924.417	13255
924.525	13228
924.633	13213
924.741	14024
924.849	12985
924.956	13080
925.064	13015
925.172	12973
925.279	12882
925.387	13012
925.494	12890
925.602	13061
925.709	13019
925.816	12882
925.924	12970
926.031	13050
926.138	12844
926.245	12935
926.352	12859
926.459	12928
926.566	13000
926.673	12829
926.779	12623
926.886	12719
926.993	12570
927.099	12574
927.206	12555
927.312	12502
927.419	12498
927.525	12566
927.631	12513
927.737	12441
927.843	12357
927.95	12277
928.056	12372
928.162	12395
928.267	12395
928.373	12977
928.479	12407
928.585	12201
928.69	12334
928.796	12270
928.901	12140
929.007	12102
929.112	12224
929.218	12171
929.323	12034
929.428	12072
929.533	12182
929.638	11950
929.743	12057
929.848	12079
929.953	12064
930.058	11965
930.163	11718
930.267	11805
930.372	11923
930.477	11703
930.581	11946
930.685	11824
930.79	11615
930.894	11653
930.998	11665
931.103	11760
931.207	11402
931.311	11410
931.415	11315
931.519	11041
931.623	10976
