Data from test_V78500241_2310.txt Node
Date: Fri Mar 25 15:25:56 CST 2022
User: usil
Spectrometer: V785-0024
Trigger mode: 0
Integration Time (sec): 4.000000E-1
Scans to average: 1
Nonlinearity correction enabled: false
Boxcar width: 0
Storing dark spectrum: false
XAxis mode: Wavelengths
Number of Pixels in Spectrum: 1024
>>>>>Begin Spectral Data<<<<<
801.071	27252
801.214	27237
801.356	26944
801.499	26853
801.641	26773
801.783	26727
801.926	26792
802.068	26727
802.211	26686
802.353	26648
802.496	26552
802.638	26339
802.78	26457
802.923	26362
803.065	26282
803.208	26313
803.35	26404
803.492	26526
803.635	26560
803.777	26370
803.919	26667
804.061	26800
804.204	26648
804.346	26457
804.488	26492
804.63	26488
804.773	26514
804.915	26602
805.057	26625
805.199	26533
805.341	26697
805.483	26712
805.626	26511
805.768	26598
805.91	26495
806.052	26762
806.194	26568
806.336	26967
806.478	26640
806.62	26758
806.762	26686
806.904	27058
807.046	27138
807.188	27005
807.33	27142
807.472	27135
807.614	26929
807.756	27028
807.898	27036
808.04	26849
808.182	26792
808.324	26800
808.465	27043
808.607	27146
808.749	27306
808.891	27389
809.033	27408
809.174	27317
809.316	27173
809.458	27294
809.6	27245
809.741	27287
809.883	27294
810.025	27469
810.166	27523
810.308	27466
810.45	27500
810.591	27272
810.733	27275
810.875	27119
811.016	27077
811.158	27104
811.299	27260
811.441	27416
811.582	27165
811.724	27237
811.865	27336
812.007	27116
812.148	27169
812.29	27355
812.431	27306
812.573	27420
812.714	27724
812.855	27732
812.997	27694
813.138	27876
813.279	27793
813.421	27835
813.562	27641
813.703	27507
813.845	27329
813.986	27055
814.127	27066
814.268	26910
814.41	26838
814.551	26921
814.692	26986
814.833	26994
814.974	26929
815.115	26990
815.256	26834
815.397	26800
815.539	26689
815.68	26777
815.821	26609
815.962	26617
816.103	26644
816.244	26590
816.385	26404
816.526	26393
816.666	26259
816.807	26180
816.948	26278
817.089	26237
817.23	26134
817.371	26149
817.512	26183
817.653	26191
817.793	26149
817.934	26069
818.075	26119
818.216	26145
818.356	26195
818.497	25970
818.638	25955
818.778	25947
818.919	25955
819.06	25947
819.2	26145
819.341	26012
819.481	26065
819.622	26263
819.762	26370
819.903	26385
820.043	26233
820.184	26298
820.324	26252
820.465	26328
820.605	26180
820.746	26122
820.886	26069
821.026	26221
821.167	26206
821.307	26351
821.447	26058
821.588	26001
821.728	25936
821.868	25841
822.008	25578
822.149	25582
822.289	25434
822.429	25312
822.569	25247
822.709	25293
822.849	25122
822.99	25133
823.13	25088
823.27	25057
823.41	24856
823.55	24897
823.69	24916
823.83	25004
823.97	24707
824.11	24768
824.25	24719
824.389	24658
824.529	24688
824.669	24661
824.809	24871
824.949	24837
825.089	24745
825.228	24700
825.368	24582
825.508	24673
825.648	24566
825.787	24623
825.927	24741
826.067	24536
826.206	24414
826.346	24654
826.485	24665
826.625	24563
826.765	24585
826.904	24681
827.044	24464
827.183	24441
827.323	24311
827.462	24270
827.601	24292
827.741	24228
827.88	24281
828.02	24334
828.159	24273
828.298	24281
828.437	24452
828.577	24239
828.716	24327
828.855	24152
828.994	24140
829.134	24030
829.273	24045
829.412	23958
829.551	23984
829.69	24015
829.829	24125
829.968	24167
830.107	24022
830.246	24064
830.385	24022
830.524	23912
830.663	23904
830.802	23859
830.941	23516
831.08	23577
831.219	23748
831.357	23710
831.496	23870
831.635	23649
831.774	23585
831.913	23516
832.051	23452
832.19	23410
832.329	23330
832.467	23364
832.606	23349
832.744	23254
832.883	23372
833.022	23239
833.16	23292
833.299	23395
833.437	23254
833.576	23372
833.714	23395
833.852	23250
833.991	23360
834.129	23307
834.267	23478
834.406	23337
834.544	23452
834.682	23353
834.821	23277
834.959	23558
835.097	23193
835.235	23372
835.373	23364
835.511	23299
835.65	23166
835.788	23395
835.926	23113
836.064	23094
836.202	23041
836.34	23231
836.478	23318
836.615	23094
836.753	23216
836.891	23334
837.029	23197
837.167	23090
837.305	23048
837.443	23056
837.58	23132
837.718	23102
837.856	23064
837.993	22999
838.131	23033
838.269	22835
838.406	22930
838.544	22850
838.681	22759
838.819	22611
838.956	22459
839.094	22478
839.231	22523
839.369	22729
839.506	22877
839.643	22767
839.781	22500
839.918	22360
840.055	22508
840.193	22497
840.33	22344
840.467	22459
840.604	22535
840.742	22649
840.879	22223
841.016	22455
841.153	22360
841.29	22527
841.427	22489
841.564	22493
841.701	22409
841.838	22409
841.975	22280
842.112	22265
842.249	22242
842.385	22196
842.522	22500
842.659	22181
842.796	22124
842.933	22226
843.069	22211
843.206	22131
843.343	22265
843.479	22219
843.616	22093
843.752	22032
843.889	21918
844.025	22135
844.162	21876
844.298	22192
844.435	21888
844.571	21915
844.708	22032
844.844	22158
844.98	22173
845.117	22169
845.253	21884
845.389	21724
845.525	21880
845.661	21869
845.798	21816
845.934	21778
846.07	21728
846.206	21827
846.342	21857
846.478	21766
846.614	21485
846.75	21412
846.886	21431
847.022	21568
847.158	21431
847.294	21393
847.429	21412
847.565	21454
847.701	21660
847.837	21146
847.972	21302
848.108	21180
848.244	21199
848.379	21028
848.515	20952
848.65	21036
848.786	21104
848.921	21039
849.057	21176
849.192	21226
849.328	21093
849.463	21051
849.598	20967
849.734	20910
849.869	20845
850.004	20731
850.14	20796
850.275	20910
850.41	20769
850.545	20701
850.68	20663
850.815	20849
850.95	20811
851.085	20952
851.22	20842
851.355	20804
851.49	20781
851.625	20693
851.76	20857
851.895	20712
852.03	20724
852.165	20792
852.299	20838
852.434	20872
852.569	20785
852.703	20792
852.838	20788
852.973	20952
853.107	20891
853.242	20773
853.376	20731
853.511	20537
853.645	20476
853.78	20708
853.914	20754
854.048	20625
854.183	20530
854.317	20590
854.451	20777
854.585	20640
854.72	20636
854.854	20731
854.988	20549
855.122	20579
855.256	20674
855.39	20667
855.524	20651
855.658	20552
855.792	20602
855.926	20693
856.06	20667
856.194	20705
856.327	20488
856.461	20476
856.595	20686
856.729	20659
856.862	20807
856.996	20587
857.13	20621
857.263	20743
857.397	20796
857.53	20587
857.664	20682
857.797	20503
857.931	20659
858.064	20640
858.197	20651
858.331	20583
858.464	20625
858.597	20507
858.731	20629
858.864	20640
858.997	20579
859.13	20587
859.263	20693
859.396	20659
859.529	20625
859.662	20560
859.795	20724
859.928	20598
860.061	20788
860.194	20845
860.327	20621
860.46	20609
860.592	20674
860.725	20842
860.858	20750
860.99	20697
861.123	20564
861.256	20488
861.388	20545
861.521	21260
861.653	20454
861.786	20507
861.918	20488
862.05	20499
862.183	20526
862.315	20590
862.447	20667
862.58	20552
862.712	20145
862.844	20195
862.976	20419
863.108	20473
863.24	20891
863.372	20271
863.504	20339
863.636	20263
863.768	20396
863.9	20385
864.032	20305
864.164	20339
864.296	20377
864.428	20560
864.559	20415
864.691	20362
864.823	20305
864.954	20343
865.086	20377
865.217	20233
865.349	20210
865.48	20278
865.612	20336
865.743	20431
865.875	20366
866.006	20252
866.137	20252
866.269	20294
866.4	20271
866.531	20199
866.662	20073
866.793	20107
866.924	20183
867.055	20282
867.186	20282
867.317	20149
867.448	20164
867.579	20176
867.71	20164
867.841	20100
867.972	20225
868.103	20145
868.233	20157
868.364	20187
868.495	20298
868.625	20423
868.756	20499
868.886	20305
869.017	20381
869.147	20522
869.278	20667
869.408	20389
869.539	20431
869.669	20499
869.799	20362
869.929	20564
870.06	20484
870.19	20640
870.32	20701
870.45	20693
870.58	20788
870.71	20781
870.84	20952
870.97	20830
871.1	20895
871.23	20963
871.36	21074
871.489	20899
871.619	20971
871.749	20971
871.879	20967
872.008	21058
872.138	21032
872.267	20963
872.397	20921
872.526	20902
872.656	20845
872.785	20891
872.915	21024
873.044	21169
873.173	21047
873.303	21089
873.432	21058
873.561	21100
873.69	21096
873.819	21157
873.948	21077
874.077	21199
874.206	20990
874.335	20998
874.464	21123
874.593	21306
874.722	21180
874.851	21363
874.979	21401
875.108	21397
875.237	21310
875.365	21230
875.494	21348
875.623	21348
875.751	21180
875.88	21287
876.008	21310
876.136	21439
876.265	21637
876.393	21778
876.521	21679
876.65	21751
876.778	21603
876.906	21633
877.034	21557
877.162	21603
877.29	21629
877.418	21625
877.546	21747
877.674	21667
877.802	21717
877.93	21614
878.058	21675
878.185	21473
878.313	21625
878.441	21583
878.568	21431
878.696	21488
878.824	21557
878.951	21762
879.079	21789
879.206	22032
879.333	21789
879.461	21561
879.588	21797
879.715	21724
879.842	21918
879.97	21755
880.097	21511
880.224	21488
880.351	21530
880.478	21572
880.605	21412
880.732	21511
880.859	21633
880.986	21591
881.112	21389
881.239	21298
881.366	21161
881.493	21119
881.619	21058
881.746	21077
881.872	21100
881.999	21001
882.125	20952
882.252	21150
882.378	21089
882.505	21150
882.631	20941
882.757	20773
882.883	20804
883.01	20754
883.136	20659
883.262	20594
883.388	20537
883.514	20864
883.64	20811
883.766	20689
883.892	20583
884.018	20667
884.143	20777
884.269	20792
884.395	20564
884.52	20309
884.646	20469
884.772	20275
884.897	20347
885.023	20351
885.148	20454
885.274	20526
885.399	20602
885.524	20355
885.65	20492
885.775	20457
885.9	20431
886.025	20640
886.15	20400
886.275	20370
886.4	20400
886.525	20389
886.65	20454
886.775	20324
886.9	20408
887.025	20545
887.149	20320
887.274	20229
887.399	20134
887.523	20233
887.648	20111
887.773	20107
887.897	20305
888.021	20221
888.146	20077
888.27	20157
888.395	20252
888.519	20115
888.643	20157
888.767	20115
888.891	20077
889.015	19890
889.139	20065
889.263	19955
889.387	20088
889.511	20229
889.635	20027
889.759	20081
889.883	19993
890.006	20008
890.13	20092
890.254	19898
890.377	19913
890.501	19803
890.624	19624
890.748	19784
890.871	19651
890.995	19510
891.118	19521
891.241	19639
891.364	19563
891.488	19639
891.611	19552
891.734	19521
891.857	19571
891.98	19552
892.103	19590
892.226	19559
892.349	19472
892.471	19297
892.594	19392
892.717	19540
892.839	19411
892.962	19422
893.085	19582
893.207	19403
893.33	19544
893.452	19403
893.575	19529
893.697	19476
893.819	19563
893.941	19544
894.064	19708
894.186	19422
894.308	19289
894.43	19620
894.552	19613
894.674	19647
894.796	19441
894.918	19460
895.04	19491
895.161	19670
895.283	19548
895.405	19244
895.526	19430
895.648	19453
895.769	19480
895.891	19556
896.012	19616
896.134	19575
896.255	19445
896.376	19499
896.498	19438
896.619	19502
896.74	19430
896.861	19548
896.982	19803
897.103	19947
897.224	19742
897.345	19708
897.466	19616
897.587	19791
897.708	19849
897.828	19708
897.949	19746
898.07	19571
898.19	19662
898.311	19761
898.431	19696
898.552	19635
898.672	19784
898.792	19868
898.913	19662
899.033	19552
899.153	19563
899.273	19373
899.393	19464
899.513	19453
899.633	19457
899.753	19464
899.873	19407
899.993	19453
900.113	19392
900.232	19438
900.352	19373
900.472	19350
900.591	19282
900.711	19354
900.83	19160
900.95	19285
901.069	19362
901.189	19019
901.308	18958
901.427	18783
901.546	18954
901.665	18901
901.784	18833
901.904	18749
902.023	18604
902.141	18422
902.26	18426
902.379	18467
902.498	18437
902.617	18357
902.735	18429
902.854	18372
902.973	18262
903.091	18182
903.21	18079
903.328	18076
903.446	17984
903.565	17897
903.683	17874
903.801	17779
903.919	17786
904.038	17836
904.156	17676
904.274	17710
904.392	17585
904.51	17646
904.627	17630
904.745	17642
904.863	17570
904.981	17501
905.098	17280
905.216	17269
905.334	17337
905.451	17265
905.569	17269
905.686	17368
905.803	17254
905.921	17071
906.038	17071
906.155	17250
906.272	17056
906.389	16915
906.506	16881
906.623	16858
906.74	16866
906.857	16710
906.974	16755
907.091	16965
907.208	16946
907.324	16946
907.441	16771
907.557	16660
907.674	16630
907.79	16558
907.907	16558
908.023	16656
908.139	16535
908.256	16565
908.372	16466
908.488	16470
908.604	16375
908.72	16314
908.836	16261
908.952	16329
909.068	16200
909.184	16280
909.3	16249
909.415	16386
909.531	16303
909.647	16078
909.762	16048
909.878	16010
909.993	16067
910.108	16013
910.224	15876
910.339	15899
910.454	15831
910.57	15827
910.685	15759
910.8	16048
910.915	16010
911.03	15785
911.145	15641
911.259	15717
911.374	15705
911.489	15614
911.604	15435
911.718	15348
911.833	15393
911.947	15313
912.062	15127
912.176	15336
912.291	15310
912.405	15351
912.519	15511
912.633	15648
912.748	15401
912.862	15397
912.976	15157
913.09	15017
913.204	15127
913.318	15207
913.431	15302
913.545	15241
913.659	15283
913.772	15150
913.886	14967
914	14982
914.113	15036
914.226	15066
914.34	15127
914.453	14826
914.566	14937
914.68	14906
914.793	14853
914.906	14674
915.019	14598
915.132	14495
915.245	14583
915.358	14594
915.47	14587
915.583	14594
915.696	14598
915.809	14678
915.921	14693
916.034	14518
916.146	14492
916.259	14537
916.371	14575
916.483	14514
916.595	14465
916.708	14492
916.82	14400
916.932	14431
917.044	14423
917.156	14469
917.268	14343
917.38	14259
917.491	14172
917.603	14176
917.715	14313
917.826	14366
917.938	14210
918.049	14073
918.161	14183
918.272	14374
918.384	14309
918.495	14206
918.606	14161
918.717	13921
918.828	14016
918.939	14020
919.05	14020
919.161	13913
919.272	13807
919.383	13845
919.494	14149
919.604	14313
919.715	14020
919.826	13936
919.936	13997
920.047	14149
920.157	14031
920.267	14199
920.378	14096
920.488	13925
920.598	14126
920.708	14320
920.818	14202
920.928	14123
921.038	14256
921.148	14358
921.258	13989
921.368	13883
921.477	13788
921.587	13761
921.697	13666
921.806	13788
921.916	13662
922.025	13480
922.134	13441
922.244	13415
922.353	13502
922.462	13209
922.571	13278
922.68	13072
922.789	13141
922.898	13088
923.007	12993
923.116	13038
923.224	13065
923.333	13015
923.442	12932
923.55	12924
923.659	12943
923.767	13072
923.876	12920
923.984	12954
924.092	12814
924.201	12871
924.309	12859
924.417	12745
924.525	12715
924.633	12726
924.741	13723
924.849	12544
924.956	12791
925.064	12536
925.172	12448
925.279	12566
925.387	12486
925.494	12471
925.602	12635
925.709	12620
925.816	12452
925.924	12578
926.031	12551
926.138	12464
926.245	12464
926.352	12372
926.459	12509
926.566	12574
926.673	12323
926.779	12357
926.886	12209
926.993	12049
927.099	12038
927.206	11969
927.312	11977
927.419	12125
927.525	12117
927.631	12178
927.737	11950
927.843	11935
927.95	11809
928.056	11908
928.162	11920
928.267	11950
928.373	12555
928.479	11965
928.585	11794
928.69	11950
928.796	11851
928.901	11703
929.007	11558
929.112	11790
929.218	11737
929.323	11737
929.428	11592
929.533	11836
929.638	11528
929.743	11562
929.848	11642
929.953	11646
930.058	11570
930.163	11307
930.267	11402
930.372	11467
930.477	11402
930.581	11528
930.685	11436
930.79	11322
930.894	11284
930.998	11235
931.103	11341
931.207	10961
931.311	10927
931.415	10850
931.519	10653
931.623	10683
