Data from test_V78500241_1039.txt Node
Date: Fri Mar 25 15:17:05 CST 2022
User: usil
Spectrometer: V785-0024
Trigger mode: 0
Integration Time (sec): 4.000000E-1
Scans to average: 1
Nonlinearity correction enabled: false
Boxcar width: 0
Storing dark spectrum: false
XAxis mode: Wavelengths
Number of Pixels in Spectrum: 1024
>>>>>Begin Spectral Data<<<<<
801.071	28280
801.214	28207
801.356	28006
801.499	27865
801.641	27808
801.783	27899
801.926	27994
802.068	27937
802.211	27804
802.353	27633
802.496	27614
802.638	27485
802.78	27424
802.923	27382
803.065	27405
803.208	27450
803.35	27408
803.492	27549
803.635	27675
803.777	27583
803.919	27732
804.061	28105
804.204	27648
804.346	27660
804.488	27519
804.63	27778
804.773	27694
804.915	27671
805.057	27869
805.199	27679
805.341	27739
805.483	27884
805.626	27983
805.768	27625
805.91	27793
806.052	27994
806.194	27770
806.336	28093
806.478	27914
806.62	27770
806.762	27941
806.904	28120
807.046	28352
807.188	28291
807.33	28261
807.472	28314
807.614	28192
807.756	28246
807.898	28185
808.04	28021
808.182	28173
808.324	28177
808.465	28257
808.607	28257
808.749	28375
808.891	28436
809.033	28675
809.174	28527
809.316	28603
809.458	28481
809.6	28497
809.741	28774
809.883	28577
810.025	28888
810.166	28877
810.308	28854
810.45	28778
810.591	28626
810.733	28474
810.875	28565
811.016	28417
811.158	28303
811.299	28615
811.441	28664
811.582	28573
811.724	28672
811.865	28523
812.007	28512
812.148	28489
812.29	28668
812.431	28679
812.573	28862
812.714	28927
812.855	29079
812.997	29086
813.138	29235
813.279	29414
813.421	29079
813.562	29044
813.703	28953
813.845	28725
813.986	28474
814.127	28409
814.268	28185
814.41	28310
814.551	28257
814.692	28265
814.833	28116
814.974	28188
815.115	28238
815.256	28086
815.397	27949
815.539	28139
815.68	27941
815.821	28017
815.962	27960
816.103	27975
816.244	27888
816.385	27743
816.526	27831
816.666	27694
816.807	27564
816.948	27641
817.089	27717
817.23	27641
817.371	27625
817.512	27663
817.653	27412
817.793	27564
817.934	27625
818.075	27622
818.216	27511
818.356	27603
818.497	27302
818.638	27268
818.778	27146
818.919	27393
819.06	27317
819.2	27298
819.341	27511
819.481	27603
819.622	27622
819.762	27945
819.903	27979
820.043	27861
820.184	27610
820.324	27519
820.465	27739
820.605	27614
820.746	27652
820.886	27454
821.026	27603
821.167	27530
821.307	27648
821.447	27564
821.588	27561
821.728	27336
821.868	27207
822.008	27085
822.149	27020
822.289	27039
822.429	26807
822.569	26781
822.709	26689
822.849	26659
822.99	26598
823.13	26484
823.27	26503
823.41	26434
823.55	26263
823.69	26473
823.83	26427
823.97	26305
824.11	26058
824.25	26115
824.389	26126
824.529	26210
824.669	26202
824.809	26305
824.949	26305
825.089	26244
825.228	26206
825.368	26020
825.508	26058
825.648	26153
825.787	26130
825.927	26157
826.067	26001
826.206	26100
826.346	26084
826.485	26130
826.625	26084
826.765	26195
826.904	26008
827.044	25883
827.183	25849
827.323	25856
827.462	25807
827.601	25913
827.741	25750
827.88	25681
828.02	25647
828.159	25799
828.298	25734
828.437	25925
828.577	25666
828.716	25776
828.855	25666
828.994	25479
829.134	25567
829.273	25624
829.412	25514
829.551	25293
829.69	25674
829.829	25411
829.968	25441
830.107	25537
830.246	25563
830.385	25354
830.524	25297
830.663	25293
830.802	25274
830.941	25103
831.08	25019
831.219	25168
831.357	25228
831.496	25301
831.635	25080
831.774	24996
831.913	25000
832.051	24928
832.19	24863
832.329	24996
832.467	24814
832.606	24753
832.744	24745
832.883	24829
833.022	24817
833.16	24882
833.299	24829
833.437	24833
833.576	24867
833.714	24791
833.852	24951
833.991	25019
834.129	24962
834.267	24905
834.406	24932
834.544	24905
834.682	24768
834.821	24825
834.959	25103
835.097	24833
835.235	24985
835.373	24863
835.511	24802
835.65	24787
835.788	24730
835.926	24547
836.064	24555
836.202	24384
836.34	24802
836.478	24764
836.615	24597
836.753	24703
836.891	24719
837.029	24734
837.167	24684
837.305	24661
837.443	24540
837.58	24528
837.718	24665
837.856	24521
837.993	24661
838.131	24456
838.269	24505
838.406	24361
838.544	24281
838.681	24064
838.819	24213
838.956	23912
839.094	24041
839.231	24045
839.369	24205
839.506	24505
839.643	24148
839.781	23988
839.918	23946
840.055	23950
840.193	24045
840.33	23904
840.467	23882
840.604	23897
840.742	24129
840.879	23790
841.016	23965
841.153	23684
841.29	24072
841.427	23923
841.564	23988
841.701	23912
841.838	23843
841.975	23973
842.112	23878
842.249	23653
842.385	23737
842.522	23980
842.659	23733
842.796	23741
842.933	23592
843.069	23535
843.206	23653
843.343	23718
843.479	23661
843.616	23642
843.752	23467
843.889	23520
844.025	23691
844.162	23509
844.298	23490
844.435	23482
844.571	23398
844.708	23566
844.844	23668
844.98	23547
845.117	23604
845.253	23296
845.389	23318
845.525	23455
845.661	23250
845.798	23231
845.934	23379
846.07	23151
846.206	23235
846.342	23326
846.478	23235
846.614	22984
846.75	22957
846.886	22869
847.022	23056
847.158	22984
847.294	22980
847.429	22919
847.565	22824
847.701	23052
847.837	22668
847.972	22626
848.108	22812
848.244	22759
848.379	22603
848.515	22561
848.65	22474
848.786	22470
848.921	22413
849.057	22748
849.192	22603
849.328	22508
849.463	22523
849.598	22386
849.734	22398
849.869	22409
850.004	22303
850.14	22253
850.275	22299
850.41	22196
850.545	22215
850.68	22215
850.815	22287
850.95	22200
851.085	22447
851.22	22390
851.355	22230
851.49	22147
851.625	22230
851.76	22310
851.895	22135
852.03	22192
852.165	22276
852.299	22265
852.434	22337
852.569	22207
852.703	22303
852.838	22329
852.973	22409
853.107	22382
853.242	22139
853.376	22226
853.511	21918
853.645	21979
853.78	22154
853.914	22048
854.048	21949
854.183	22120
854.317	22090
854.451	22265
854.585	22029
854.72	21968
854.854	22074
854.988	21968
855.122	22055
855.256	21915
855.39	22135
855.524	22116
855.658	22257
855.792	22200
855.926	22147
856.06	22135
856.194	22150
856.327	22261
856.461	21987
856.595	22013
856.729	22154
856.862	22131
856.996	22120
857.13	22143
857.263	22188
857.397	22147
857.53	22070
857.664	22204
857.797	22093
857.931	22204
858.064	22143
858.197	22124
858.331	22055
858.464	22048
858.597	21945
858.731	22078
858.864	22067
858.997	22044
859.13	21991
859.263	22055
859.396	22192
859.529	22070
859.662	22017
859.795	21968
859.928	22135
860.061	22249
860.194	22363
860.327	22093
860.46	21979
860.592	22185
860.725	22109
860.858	22044
860.99	22067
861.123	22044
861.256	21998
861.388	21972
861.521	22847
861.653	21975
861.786	21812
861.918	21930
862.05	21895
862.183	21983
862.315	22048
862.447	22063
862.58	21915
862.712	21781
862.844	21789
862.976	21854
863.108	21823
863.24	22200
863.372	21679
863.504	21774
863.636	21774
863.768	21895
863.9	21793
864.032	21713
864.164	21774
864.296	21857
864.428	21865
864.559	21755
864.691	21819
864.823	21876
864.954	21861
865.086	21766
865.217	21698
865.349	21618
865.48	21614
865.612	21686
865.743	21812
865.875	21675
866.006	21614
866.137	21663
866.269	21686
866.4	21603
866.531	21576
866.662	21462
866.793	21530
866.924	21606
867.055	21572
867.186	21759
867.317	21637
867.448	21599
867.579	21591
867.71	21545
867.841	21545
867.972	21568
868.103	21705
868.233	21610
868.364	21481
868.495	21682
868.625	21724
868.756	21884
868.886	21823
869.017	21930
869.147	21991
869.278	21956
869.408	21903
869.539	21781
869.669	21869
869.799	21816
869.929	21922
870.06	21918
870.19	22048
870.32	22173
870.45	22158
870.58	22226
870.71	22204
870.84	22337
870.97	22188
871.1	22211
871.23	22421
871.36	22443
871.489	22303
871.619	22257
871.749	22272
871.879	22333
872.008	22523
872.138	22542
872.267	22462
872.397	22223
872.526	22322
872.656	22223
872.785	22287
872.915	22440
873.044	22592
873.173	22432
873.303	22470
873.432	22485
873.561	22584
873.69	22466
873.819	22413
873.948	22519
874.077	22428
874.206	22238
874.335	22363
874.464	22512
874.593	22645
874.722	22584
874.851	22797
874.979	22702
875.108	22698
875.237	22645
875.365	22481
875.494	22622
875.623	22729
875.751	22740
875.88	22656
876.008	22725
876.136	22828
876.265	23060
876.393	23162
876.521	23083
876.65	23083
876.778	23075
876.906	23037
877.034	22919
877.162	23052
877.29	22965
877.418	22946
877.546	22927
877.674	22934
877.802	23018
877.93	23003
878.058	22991
878.185	22858
878.313	22972
878.441	22927
878.568	22904
878.696	22881
878.824	23037
878.951	23128
879.079	23109
879.206	23223
879.333	23128
879.461	23079
879.588	23052
879.715	23307
879.842	23220
879.97	23083
880.097	22873
880.224	22748
880.351	22908
880.478	22896
880.605	22706
880.732	22805
880.859	23025
880.986	22839
881.112	22824
881.239	22599
881.366	22637
881.493	22607
881.619	22527
881.746	22352
881.872	22436
881.999	22280
882.125	22394
882.252	22390
882.378	22394
882.505	22390
882.631	22303
882.757	22063
882.883	22242
883.01	22078
883.136	21934
883.262	22010
883.388	21800
883.514	22074
883.64	22040
883.766	21941
883.892	21789
884.018	21922
884.143	21968
884.269	22032
884.395	21793
884.52	21690
884.646	21713
884.772	21587
884.897	21587
885.023	21770
885.148	21652
885.274	21759
885.399	21759
885.524	21682
885.65	21724
885.775	21606
885.9	21644
886.025	21850
886.15	21766
886.275	21538
886.4	21488
886.525	21713
886.65	21564
886.775	21667
886.9	21876
887.025	21979
887.149	21633
887.274	21447
887.399	21408
887.523	21568
887.648	21363
887.773	21310
887.897	21553
888.021	21504
888.146	21344
888.27	21709
888.395	21462
888.519	21447
888.643	21412
888.767	21473
888.891	21386
889.015	21256
889.139	21275
889.263	21283
889.387	21367
889.511	21412
889.635	21355
889.759	21233
889.883	21093
890.006	21294
890.13	21294
890.254	21226
890.377	21199
890.501	20967
890.624	21039
890.748	21013
890.871	20891
890.995	20891
891.118	20716
891.241	20929
891.364	20765
891.488	20948
891.611	20823
891.734	20792
891.857	20868
891.98	20705
892.103	20826
892.226	20712
892.349	20739
892.471	20629
892.594	20765
892.717	20731
892.839	20750
892.962	20689
893.085	20792
893.207	20636
893.33	20549
893.452	20640
893.575	20659
893.697	20674
893.819	20914
893.941	20914
894.064	20834
894.186	20712
894.308	20609
894.43	20720
894.552	20849
894.674	20853
894.796	20644
894.918	20720
895.04	20560
895.161	20674
895.283	20758
895.405	20587
895.526	20758
895.648	20674
895.769	20735
895.891	20826
896.012	20689
896.134	20834
896.255	20617
896.376	20674
896.498	20727
896.619	20693
896.74	20613
896.861	20826
896.982	20963
897.103	21036
897.224	20933
897.345	21001
897.466	20834
897.587	20887
897.708	20914
897.828	20998
897.949	20899
898.07	20743
898.19	20910
898.311	20872
898.431	20834
898.552	20872
898.672	20941
898.792	20941
898.913	20842
899.033	20743
899.153	20629
899.273	20537
899.393	20625
899.513	20750
899.633	20644
899.753	20667
899.873	20648
899.993	20720
900.113	20590
900.232	20587
900.352	20526
900.472	20575
900.591	20438
900.711	20408
900.83	20218
900.95	20514
901.069	20438
901.189	20366
901.308	20035
901.427	19925
901.546	19860
901.665	19982
901.784	19906
901.904	19776
902.023	19643
902.141	19537
902.26	19514
902.379	19624
902.498	19426
902.617	19597
902.735	19415
902.854	19518
902.973	19464
903.091	19259
903.21	19050
903.328	19152
903.446	18996
903.565	18943
903.683	18875
903.801	18837
903.919	18882
904.038	18882
904.156	18719
904.274	18905
904.392	18604
904.51	18661
904.627	18749
904.745	18745
904.863	18882
904.981	18513
905.098	18441
905.216	18361
905.334	18437
905.451	18410
905.569	18407
905.686	18388
905.803	18399
905.921	18121
906.038	18346
906.155	18224
906.272	18098
906.389	18125
906.506	17958
906.623	17992
906.74	17916
906.857	17802
906.974	17893
907.091	17992
907.208	17897
907.324	17973
907.441	17904
907.557	17657
907.674	17657
907.79	17623
907.907	17554
908.023	17657
908.139	17691
908.256	17687
908.372	17558
908.488	17474
908.604	17353
908.72	17315
908.836	17433
908.952	17391
909.068	17414
909.184	17391
909.3	17459
909.415	17345
909.531	17444
909.647	17056
909.762	17083
909.878	17109
909.993	17090
910.108	17052
910.224	16976
910.339	17041
910.454	17064
910.57	16892
910.685	16862
910.8	17132
910.915	17083
911.03	16889
911.145	16801
911.259	16672
911.374	16706
911.489	16641
911.604	16474
911.718	16493
911.833	16413
911.947	16272
912.062	16226
912.176	16413
912.291	16356
912.405	16428
912.519	16531
912.633	16519
912.748	16375
912.862	16360
912.976	16242
913.09	16139
913.204	16261
913.318	16162
913.431	16325
913.545	16215
913.659	16249
913.772	16147
913.886	16105
914	16021
914.113	16093
914.226	16086
914.34	16059
914.453	15827
914.566	15972
914.68	15888
914.793	15876
914.906	15736
915.019	15603
915.132	15492
915.245	15545
915.358	15553
915.47	15679
915.583	15610
915.696	15603
915.809	15652
915.921	15675
916.034	15538
916.146	15523
916.259	15485
916.371	15526
916.483	15557
916.595	15412
916.708	15359
916.82	15310
916.932	15401
917.044	15351
917.156	15393
917.268	15180
917.38	15192
917.491	15256
917.603	15222
917.715	15340
917.826	15332
917.938	15150
918.049	15055
918.161	15135
918.272	15226
918.384	15348
918.495	15203
918.606	15036
918.717	14960
918.828	14963
918.939	15001
919.05	14853
919.161	14956
919.272	14804
919.383	14800
919.494	14982
919.604	15127
919.715	14975
919.826	14792
919.936	14918
920.047	14998
920.157	14906
920.267	15119
920.378	14971
920.488	14876
920.598	15081
920.708	15211
920.818	15001
920.928	15047
921.038	15203
921.148	15157
921.258	14891
921.368	14743
921.477	14708
921.587	14568
921.697	14545
921.806	14640
921.916	14545
922.025	14427
922.134	14286
922.244	14183
922.353	14248
922.462	14248
922.571	14187
922.68	13967
922.789	13940
922.898	13940
923.007	13959
923.116	13989
923.224	13898
923.333	13871
923.442	13822
923.55	13833
923.659	13723
923.767	13818
923.876	13822
923.984	13807
924.092	13601
924.201	13753
924.309	13658
924.417	13712
924.525	13525
924.633	13628
924.741	14503
924.849	13438
924.956	13476
925.064	13312
925.172	13301
925.279	13274
925.387	13392
925.494	13339
925.602	13510
925.709	13392
925.816	13137
925.924	13297
926.031	13316
926.138	13221
926.245	13346
926.352	13160
926.459	13232
926.566	13274
926.673	13126
926.779	12996
926.886	13061
926.993	12928
927.099	12905
927.206	12867
927.312	12852
927.419	12958
927.525	12848
927.631	12875
927.737	12753
927.843	12810
927.95	12506
928.056	12578
928.162	12688
928.267	12760
928.373	13255
928.479	12757
928.585	12551
928.69	12711
928.796	12665
928.901	12582
929.007	12395
929.112	12578
929.218	12540
929.323	12399
929.428	12456
929.533	12464
929.638	12350
929.743	12330
929.848	12216
929.953	12311
930.058	12300
930.163	12114
930.267	12095
930.372	12216
930.477	12049
930.581	12262
930.685	12095
930.79	12057
930.894	12076
930.998	11950
931.103	12155
931.207	11718
931.311	11672
931.415	11630
931.519	11318
931.623	11349
