Data from test_V78500241_471.txt Node
Date: Fri Mar 25 15:13:08 CST 2022
User: usil
Spectrometer: V785-0024
Trigger mode: 0
Integration Time (sec): 4.000000E-1
Scans to average: 1
Nonlinearity correction enabled: false
Boxcar width: 0
Storing dark spectrum: false
XAxis mode: Wavelengths
Number of Pixels in Spectrum: 1024
>>>>>Begin Spectral Data<<<<<
801.071	27477
801.214	27291
801.356	27081
801.499	27081
801.641	27013
801.783	26971
801.926	27070
802.068	26944
802.211	26796
802.353	26883
802.496	26701
802.638	26606
802.78	26697
802.923	26556
803.065	26431
803.208	26427
803.35	26594
803.492	26629
803.635	26792
803.777	26701
803.919	26731
804.061	26956
804.204	26804
804.346	26708
804.488	26743
804.63	26750
804.773	26514
804.915	26842
805.057	26883
805.199	26891
805.341	26800
805.483	26811
805.626	26762
805.768	26724
805.91	26823
806.052	26872
806.194	26804
806.336	26956
806.478	26796
806.62	26754
806.762	27013
806.904	27207
807.046	27450
807.188	27211
807.33	27272
807.472	27348
807.614	27199
807.756	27287
807.898	27116
808.04	26986
808.182	27077
808.324	27131
808.465	27104
808.607	27279
808.749	27386
808.891	27595
809.033	27732
809.174	27606
809.316	27447
809.458	27530
809.6	27435
809.741	27511
809.883	27538
810.025	27641
810.166	27671
810.308	27819
810.45	27785
810.591	27694
810.733	27587
810.875	27507
811.016	27393
811.158	27279
811.299	27553
811.441	27629
811.582	27526
811.724	27496
811.865	27332
812.007	27481
812.148	27435
812.29	27469
812.431	27534
812.573	27850
812.714	27850
812.855	27960
812.997	28154
813.138	28181
813.279	28131
813.421	28025
813.562	27968
813.703	27823
813.845	27583
813.986	27344
814.127	27279
814.268	27089
814.41	27085
814.551	27055
814.692	27211
814.833	27058
814.974	26986
815.115	27154
815.256	26986
815.397	27024
815.539	26929
815.68	26883
815.821	26990
815.962	27005
816.103	26891
816.244	26834
816.385	26659
816.526	26674
816.666	26575
816.807	26355
816.948	26731
817.089	26484
817.23	26473
817.371	26526
817.512	26514
817.653	26393
817.793	26320
817.934	26457
818.075	26358
818.216	26438
818.356	26351
818.497	26225
818.638	26134
818.778	26237
818.919	26168
819.06	26252
819.2	26256
819.341	26438
819.481	26518
819.622	26636
819.762	26815
819.903	26484
820.043	26549
820.184	26609
820.324	26530
820.465	26754
820.605	26469
820.746	26415
820.886	26427
821.026	26549
821.167	26469
821.307	26507
821.447	26362
821.588	26248
821.728	26149
821.868	26084
822.008	25955
822.149	25849
822.289	25791
822.429	25712
822.569	25613
822.709	25616
822.849	25278
822.99	25422
823.13	25369
823.27	25453
823.41	25251
823.55	25103
823.69	25206
823.83	25179
823.97	25244
824.11	25027
824.25	24973
824.389	24943
824.529	25114
824.669	24989
824.809	25202
824.949	25099
825.089	25183
825.228	25053
825.368	24951
825.508	24890
825.648	24966
825.787	24970
825.927	25053
826.067	24821
826.206	24875
826.346	24992
826.485	24916
826.625	24905
826.765	24882
826.904	24897
827.044	24627
827.183	24608
827.323	24620
827.462	24585
827.601	24517
827.741	24578
827.88	24563
828.02	24532
828.159	24532
828.298	24688
828.437	24559
828.577	24585
828.716	24738
828.855	24433
828.994	24273
829.134	24258
829.273	24376
829.412	24182
829.551	24281
829.69	24315
829.829	24346
829.968	24289
830.107	24391
830.246	24232
830.385	24289
830.524	24171
830.663	24174
830.802	24186
830.941	23790
831.08	23767
831.219	24003
831.357	24045
831.496	24102
831.635	24011
831.774	23847
831.913	23699
832.051	23737
832.19	23691
832.329	23870
832.467	23665
832.606	23554
832.744	23516
832.883	23642
833.022	23566
833.16	23604
833.299	23680
833.437	23718
833.576	23726
833.714	23649
833.852	23756
833.991	23764
834.129	23775
834.267	23687
834.406	23699
834.544	23786
834.682	23642
834.821	23634
834.959	23790
835.097	23524
835.235	23615
835.373	23638
835.511	23714
835.65	23474
835.788	23448
835.926	23379
836.064	23315
836.202	23402
836.34	23543
836.478	23665
836.615	23478
836.753	23592
836.891	23391
837.029	23547
837.167	23421
837.305	23372
837.443	23368
837.58	23440
837.718	23448
837.856	23436
837.993	23303
838.131	23356
838.269	23178
838.406	23204
838.544	23136
838.681	23170
838.819	22987
838.956	22797
839.094	22793
839.231	22923
839.369	23090
839.506	23159
839.643	23079
839.781	22873
839.918	22786
840.055	22797
840.193	22778
840.33	22816
840.467	22717
840.604	22805
840.742	22949
840.879	22668
841.016	22683
841.153	22664
841.29	22942
841.427	22721
841.564	22767
841.701	22736
841.838	22656
841.975	22702
842.112	22660
842.249	22596
842.385	22489
842.522	22698
842.659	22443
842.796	22474
842.933	22474
843.069	22462
843.206	22538
843.343	22550
843.479	22599
843.616	22626
843.752	22344
843.889	22268
844.025	22440
844.162	22314
844.298	22466
844.435	22413
844.571	22280
844.708	22291
844.844	22554
844.98	22447
845.117	22470
845.253	22268
845.389	22067
845.525	22242
845.661	22105
845.798	21964
845.934	22051
846.07	21956
846.206	22078
846.342	22147
846.478	22048
846.614	21899
846.75	21743
846.886	21762
847.022	21804
847.158	21846
847.294	21876
847.429	21789
847.565	21804
847.701	21915
847.837	21534
847.972	21450
848.108	21599
848.244	21610
848.379	21428
848.515	21329
848.65	21382
848.786	21428
848.921	21408
849.057	21526
849.192	21374
849.328	21367
849.463	21492
849.598	21302
849.734	21268
849.869	21370
850.004	21169
850.14	21146
850.275	21363
850.41	21173
850.545	21154
850.68	21222
850.815	21252
850.95	21085
851.085	21325
851.22	21306
851.355	21161
851.49	21062
851.625	21211
851.76	21135
851.895	21017
852.03	21047
852.165	21245
852.299	21161
852.434	21165
852.569	21298
852.703	21077
852.838	21260
852.973	21367
853.107	21256
853.242	21207
853.376	21081
853.511	20868
853.645	20914
853.78	21119
853.914	20982
854.048	21020
854.183	20963
854.317	21013
854.451	21188
854.585	21119
854.72	21013
854.854	21070
854.988	20956
855.122	21020
855.256	20788
855.39	20906
855.524	20990
855.658	20979
855.792	21104
855.926	21070
856.06	21104
856.194	21176
856.327	20868
856.461	20994
856.595	20929
856.729	20971
856.862	20990
856.996	20971
857.13	21161
857.263	21142
857.397	21119
857.53	21032
857.664	21001
857.797	21074
857.931	21077
858.064	20971
858.197	21100
858.331	21020
858.464	20857
858.597	21013
858.731	21058
858.864	20960
858.997	20994
859.13	20975
859.263	20975
859.396	21089
859.529	20975
859.662	20933
859.795	21005
859.928	21009
860.061	21150
860.194	21230
860.327	21043
860.46	20868
860.592	21184
860.725	21055
860.858	21119
860.99	21028
861.123	20895
861.256	20944
861.388	20910
861.521	21671
861.653	20887
861.786	20876
861.918	20800
862.05	20921
862.183	20994
862.315	20910
862.447	20990
862.58	20982
862.712	20758
862.844	20754
862.976	20777
863.108	20724
863.24	21127
863.372	20648
863.504	20674
863.636	20625
863.768	20727
863.9	20880
864.032	20670
864.164	20629
864.296	20819
864.428	20895
864.559	20872
864.691	20796
864.823	20830
864.954	20739
865.086	20636
865.217	20621
865.349	20522
865.48	20571
865.612	20564
865.743	20727
865.875	20613
866.006	20454
866.137	20518
866.269	20571
866.4	20507
866.531	20602
866.662	20518
866.793	20541
866.924	20575
867.055	20495
867.186	20617
867.317	20556
867.448	20412
867.579	20598
867.71	20522
867.841	20518
867.972	20602
868.103	20533
868.233	20415
868.364	20549
868.495	20594
868.625	20705
868.756	20872
868.886	20727
869.017	20785
869.147	20906
869.278	20788
869.408	20773
869.539	20788
869.669	20823
869.799	20823
869.929	20956
870.06	20880
870.19	21081
870.32	21036
870.45	21173
870.58	21279
870.71	21188
870.84	21344
870.97	21157
871.1	21252
871.23	21306
871.36	21363
871.489	21302
871.619	21287
871.749	21344
871.879	21416
872.008	21469
872.138	21496
872.267	21336
872.397	21165
872.526	21180
872.656	21222
872.785	21233
872.915	21504
873.044	21553
873.173	21481
873.303	21431
873.432	21481
873.561	21576
873.69	21439
873.819	21424
873.948	21511
874.077	21458
874.206	21450
874.335	21477
874.464	21576
874.593	21766
874.722	21648
874.851	21671
874.979	21713
875.108	21755
875.237	21580
875.365	21481
875.494	21591
875.623	21599
875.751	21637
875.88	21663
876.008	21781
876.136	21846
876.265	21941
876.393	22200
876.521	22112
876.65	22120
876.778	21956
876.906	21964
877.034	21857
877.162	21865
877.29	21983
877.418	21960
877.546	21983
877.674	21968
877.802	22059
877.93	21998
878.058	22013
878.185	21937
878.313	22048
878.441	21968
878.568	21850
878.696	21899
878.824	21975
878.951	22090
879.079	22086
879.206	22265
879.333	22078
879.461	21953
879.588	22093
879.715	22025
879.842	22405
879.97	21945
880.097	21975
880.224	21759
880.351	21785
880.478	21884
880.605	21759
880.732	21876
880.859	22010
880.986	21827
881.112	21793
881.239	21641
881.366	21583
881.493	21473
881.619	21424
881.746	21542
881.872	21329
881.999	21378
882.125	21302
882.252	21485
882.378	21374
882.505	21477
882.631	21226
882.757	21146
882.883	21245
883.01	21093
883.136	21051
883.262	20937
883.388	20944
883.514	21268
883.64	21112
883.766	21039
883.892	20876
884.018	20975
884.143	21070
884.269	21161
884.395	20861
884.52	20731
884.646	20769
884.772	20731
884.897	20636
885.023	20735
885.148	20823
885.274	20830
885.399	20842
885.524	20708
885.65	20826
885.775	20785
885.9	20697
886.025	20739
886.15	20697
886.275	20758
886.4	20636
886.525	20754
886.65	20712
886.775	20632
886.9	20845
887.025	20883
887.149	20781
887.274	20651
887.399	20621
887.523	20522
887.648	20495
887.773	20377
887.897	20678
888.021	20480
888.146	20396
888.27	20644
888.395	20621
888.519	20469
888.643	20511
888.767	20568
888.891	20442
889.015	20393
889.139	20434
889.263	20286
889.387	20400
889.511	20537
889.635	20412
889.759	20244
889.883	20366
890.006	20339
890.13	20351
890.254	20290
890.377	20161
890.501	20161
890.624	20161
890.748	20084
890.871	20050
890.995	19788
891.118	19868
891.241	19875
891.364	19906
891.488	19967
891.611	19970
891.734	19894
891.857	19906
891.98	19875
892.103	19864
892.226	19803
892.349	19830
892.471	19704
892.594	19849
892.717	19715
892.839	19750
892.962	19845
893.085	19791
893.207	19799
893.33	19757
893.452	19723
893.575	19894
893.697	19803
893.819	19963
893.941	20039
894.064	19887
894.186	19738
894.308	19830
894.43	19799
894.552	19989
894.674	19921
894.796	19830
894.918	19700
895.04	19811
895.161	19871
895.283	19830
895.405	19795
895.526	19780
895.648	19738
895.769	19830
895.891	19738
896.012	19830
896.134	19887
896.255	19845
896.376	19799
896.498	19776
896.619	19807
896.74	19845
896.861	19909
896.982	20210
897.103	20244
897.224	20039
897.345	19967
897.466	19967
897.587	19986
897.708	20172
897.828	20031
897.949	19898
898.07	19830
898.19	19917
898.311	20069
898.431	19837
898.552	20069
898.672	20005
898.792	20107
898.913	20069
899.033	19883
899.153	19727
899.273	19723
899.393	19818
899.513	19746
899.633	19666
899.753	19765
899.873	19613
899.993	19818
900.113	19643
900.232	19761
900.352	19639
900.472	19635
900.591	19552
900.711	19464
900.83	19556
900.95	19674
901.069	19704
901.189	19426
901.308	19225
901.427	19103
901.546	19042
901.665	19122
901.784	19118
901.904	19000
902.023	18985
902.141	18760
902.26	18635
902.379	18696
902.498	18585
902.617	18566
902.735	18669
902.854	18608
902.973	18506
903.091	18323
903.21	18357
903.328	18308
903.446	18197
903.565	18201
903.683	18178
903.801	18129
903.919	18079
904.038	18190
904.156	17977
904.274	17946
904.392	17893
904.51	17961
904.627	17843
904.745	17992
904.863	17965
904.981	17824
905.098	17471
905.216	17577
905.334	17585
905.451	17623
905.569	17573
905.686	17627
905.803	17535
905.921	17337
906.038	17421
906.155	17372
906.272	17261
906.389	17429
906.506	17113
906.623	17223
906.74	17052
906.857	16999
906.974	17056
907.091	17174
907.208	17299
907.324	17193
907.441	17067
907.557	16820
907.674	16949
907.79	16854
907.907	16824
908.023	16828
908.139	16854
908.256	16866
908.372	16763
908.488	16668
908.604	16622
908.72	16615
908.836	16664
908.952	16527
909.068	16523
909.184	16668
909.3	16508
909.415	16721
909.531	16668
909.647	16284
909.762	16287
909.878	16211
909.993	16402
910.108	16242
910.224	16226
910.339	16230
910.454	16063
910.57	16135
910.685	16017
910.8	16215
910.915	16249
911.03	16120
911.145	15930
911.259	15789
911.374	15854
911.489	15812
911.604	15785
911.718	15629
911.833	15694
911.947	15515
912.062	15500
912.176	15507
912.291	15606
912.405	15530
912.519	15755
912.633	15781
912.748	15648
912.862	15561
912.976	15416
913.09	15340
913.204	15393
913.318	15507
913.431	15595
913.545	15431
913.659	15553
913.772	15538
913.886	15374
914	15245
914.113	15359
914.226	15321
914.34	15287
914.453	15100
914.566	15146
914.68	15123
914.793	15077
914.906	15024
915.019	14883
915.132	14788
915.245	14887
915.358	14853
915.47	14891
915.583	14876
915.696	14891
915.809	14918
915.921	14944
916.034	14823
916.146	14712
916.259	14708
916.371	14853
916.483	14724
916.595	14686
916.708	14724
916.82	14689
916.932	14648
917.044	14735
917.156	14636
917.268	14457
917.38	14617
917.491	14511
917.603	14560
917.715	14667
917.826	14587
917.938	14499
918.049	14427
918.161	14613
918.272	14667
918.384	14693
918.495	14457
918.606	14351
918.717	14240
918.828	14282
918.939	14301
919.05	14278
919.161	14294
919.272	13993
919.383	14142
919.494	14377
919.604	14522
919.715	14282
919.826	14256
919.936	14271
920.047	14317
920.157	14237
920.267	14560
920.378	14275
920.488	14267
920.598	14446
920.708	14610
920.818	14381
920.928	14446
921.038	14648
921.148	14469
921.258	14244
921.368	14107
921.477	13978
921.587	13925
921.697	13902
921.806	14016
921.916	13909
922.025	13788
922.134	13636
922.244	13601
922.353	13620
922.462	13586
922.571	13480
922.68	13324
922.789	13335
922.898	13297
923.007	13171
923.116	13350
923.224	13270
923.333	13270
923.442	13156
923.55	13126
923.659	13126
923.767	13133
923.876	13069
923.984	13190
924.092	13050
924.201	13061
924.309	13156
924.417	13027
924.525	13023
924.633	13000
924.741	13868
924.849	12783
924.956	13008
925.064	12787
925.172	12726
925.279	12776
925.387	12749
925.494	12783
925.602	12886
925.709	12825
925.816	12726
925.924	12696
926.031	12768
926.138	12627
926.245	12798
926.352	12582
926.459	12791
926.566	12730
926.673	12585
926.779	12460
926.886	12525
926.993	12334
927.099	12376
927.206	12315
927.312	12319
927.419	12330
927.525	12323
927.631	12296
927.737	12289
927.843	12171
927.95	12064
928.056	12114
928.162	12129
928.267	12186
928.373	12840
928.479	12292
928.585	12114
928.69	12091
928.796	12068
928.901	11984
929.007	11923
929.112	11973
929.218	11961
929.323	11874
929.428	11821
929.533	11920
929.638	11821
929.743	11805
929.848	11920
929.953	11889
930.058	11798
930.163	11596
930.267	11653
930.372	11764
930.477	11566
930.581	11775
930.685	11710
930.79	11398
930.894	11493
930.998	11417
931.103	11562
931.207	11242
931.311	11162
931.415	11022
931.519	10889
931.623	10820
