Data from test_V78500241_1196.txt Node
Date: Fri Mar 25 15:18:11 CST 2022
User: usil
Spectrometer: V785-0024
Trigger mode: 0
Integration Time (sec): 4.000000E-1
Scans to average: 1
Nonlinearity correction enabled: false
Boxcar width: 0
Storing dark spectrum: false
XAxis mode: Wavelengths
Number of Pixels in Spectrum: 1024
>>>>>Begin Spectral Data<<<<<
801.071	28074
801.214	28131
801.356	27808
801.499	27774
801.641	27591
801.783	27629
801.926	27644
802.068	27720
802.211	27500
802.353	27557
802.496	27344
802.638	27192
802.78	27370
802.923	27325
803.065	27214
803.208	27211
803.35	27386
803.492	27378
803.635	27538
803.777	27355
803.919	27492
804.061	27861
804.204	27496
804.346	27549
804.488	27378
804.63	27408
804.773	27420
804.915	27492
805.057	27572
805.199	27424
805.341	27614
805.483	27587
805.626	27778
805.768	27427
805.91	27648
806.052	27637
806.194	27496
806.336	27751
806.478	27770
806.62	27694
806.762	27656
806.904	27827
807.046	28067
807.188	28093
807.33	28048
807.472	28029
807.614	27865
807.756	28116
807.898	27953
808.04	27823
808.182	27930
808.324	27979
808.465	27922
808.607	28196
808.749	28234
808.891	28310
809.033	28455
809.174	28478
809.316	28470
809.458	28291
809.6	28303
809.741	28360
809.883	28390
810.025	28485
810.166	28538
810.308	28618
810.45	28584
810.591	28497
810.733	28375
810.875	28253
811.016	28025
811.158	28272
811.299	28413
811.441	28379
811.582	28371
811.724	28280
811.865	28192
812.007	28333
812.148	28268
812.29	28306
812.431	28470
812.573	28679
812.714	28637
812.855	28805
812.997	28839
813.138	29056
813.279	28831
813.421	28911
813.562	28866
813.703	28664
813.845	28523
813.986	28299
814.127	28162
814.268	28048
814.41	28074
814.551	28017
814.692	28188
814.833	28029
814.974	28029
815.115	27991
815.256	27911
815.397	27823
815.539	27793
815.68	27846
815.821	27759
815.962	27865
816.103	27819
816.244	27698
816.385	27633
816.526	27679
816.666	27386
816.807	27275
816.948	27317
817.089	27298
817.23	27329
817.371	27241
817.512	27378
817.653	27180
817.793	27283
817.934	27329
818.075	27283
818.216	27382
818.356	27252
818.497	27245
818.638	26929
818.778	27028
818.919	27017
819.06	27188
819.2	27287
819.341	27374
819.481	27405
819.622	27363
819.762	27492
819.903	27424
820.043	27599
820.184	27351
820.324	27374
820.465	27534
820.605	27302
820.746	27378
820.886	27180
821.026	27355
821.167	27416
821.307	27298
821.447	27306
821.588	27142
821.728	27165
821.868	26937
822.008	26887
822.149	26838
822.289	26750
822.429	26648
822.569	26431
822.709	26556
822.849	26355
822.99	26263
823.13	26275
823.27	26229
823.41	26001
823.55	25959
823.69	26298
823.83	26145
823.97	26092
824.11	25917
824.25	25906
824.389	25974
824.529	25963
824.669	26012
824.809	26020
824.949	26157
825.089	26058
825.228	26084
825.368	25833
825.508	25868
825.648	25811
825.787	25849
825.927	25898
826.067	25772
826.206	25784
826.346	25868
826.485	25811
826.625	25803
826.765	25894
826.904	25856
827.044	25643
827.183	25449
827.323	25537
827.462	25674
827.601	25533
827.741	25548
827.88	25620
828.02	25472
828.159	25518
828.298	25582
828.437	25392
828.577	25495
828.716	25586
828.855	25438
828.994	25148
829.134	25289
829.273	25297
829.412	25114
829.551	25301
829.69	25263
829.829	25274
829.968	25316
830.107	25476
830.246	25137
830.385	25122
830.524	25076
830.663	25175
830.802	25072
830.941	24837
831.08	24783
831.219	24981
831.357	24985
831.496	25061
831.635	24878
831.774	24726
831.913	24802
832.051	24665
832.19	24654
832.329	24665
832.467	24703
832.606	24502
832.744	24494
832.883	24418
833.022	24445
833.16	24498
833.299	24635
833.437	24654
833.576	24559
833.714	24673
833.852	24593
833.991	24517
834.129	24665
834.267	24639
834.406	24711
834.544	24745
834.682	24677
834.821	24654
834.959	24692
835.097	24456
835.235	24661
835.373	24574
835.511	24597
835.65	24467
835.788	24479
835.926	24517
836.064	24357
836.202	24209
836.34	24418
836.478	24494
836.615	24540
836.753	24445
836.891	24460
837.029	24536
837.167	24285
837.305	24292
837.443	24338
837.58	24194
837.718	24296
837.856	24334
837.993	24254
838.131	24350
838.269	24159
838.406	24197
838.544	24209
838.681	23889
838.819	23916
838.956	23779
839.094	23691
839.231	23874
839.369	23878
839.506	24201
839.643	24022
839.781	23794
839.918	23718
840.055	23764
840.193	23733
840.33	23630
840.467	23722
840.604	23684
840.742	23920
840.879	23528
841.016	23570
841.153	23554
841.29	23691
841.427	23570
841.564	23718
841.701	23638
841.838	23589
841.975	23558
842.112	23585
842.249	23482
842.385	23372
842.522	23600
842.659	23646
842.796	23452
842.933	23414
843.069	23353
843.206	23440
843.343	23509
843.479	23452
843.616	23334
843.752	23235
843.889	23200
844.025	23505
844.162	23136
844.298	23463
844.435	23235
844.571	23235
844.708	23128
844.844	23398
844.98	23284
845.117	23280
845.253	23178
845.389	23033
845.525	23098
845.661	23102
845.798	22934
845.934	23010
846.07	22839
846.206	22942
846.342	22999
846.478	22801
846.614	22744
846.75	22641
846.886	22615
847.022	22710
847.158	22820
847.294	22702
847.429	22694
847.565	22683
847.701	22995
847.837	22310
847.972	22367
848.108	22497
848.244	22459
848.379	22382
848.515	22211
848.65	22280
848.786	22360
848.921	22219
849.057	22318
849.192	22246
849.328	22379
849.463	22249
849.598	22200
849.734	22135
849.869	22093
850.004	21972
850.14	22067
850.275	22006
850.41	22032
850.545	22029
850.68	21975
850.815	22036
850.95	21953
851.085	22112
851.22	22124
851.355	22036
851.49	21991
851.625	21972
851.76	22078
851.895	21907
852.03	21888
852.165	21949
852.299	22105
852.434	22093
852.569	22040
852.703	22074
852.838	21991
852.973	22196
853.107	22150
853.242	21998
853.376	21861
853.511	21804
853.645	21804
853.78	22017
853.914	21892
854.048	21865
854.183	21808
854.317	21918
854.451	22090
854.585	21876
854.72	21869
854.854	21873
854.988	21610
855.122	21873
855.256	21739
855.39	21797
855.524	21861
855.658	21991
855.792	21861
855.926	21880
856.06	21960
856.194	21854
856.327	21751
856.461	21762
856.595	21743
856.729	21785
856.862	22017
856.996	21907
857.13	21911
857.263	21937
857.397	21899
857.53	21915
857.664	21842
857.797	21918
857.931	21937
858.064	21835
858.197	21941
858.331	21762
858.464	21762
858.597	21679
858.731	21770
858.864	21698
858.997	21766
859.13	21774
859.263	21797
859.396	21941
859.529	21823
859.662	21857
859.795	21827
859.928	21907
860.061	21922
860.194	22166
860.327	21854
860.46	21911
860.592	21918
860.725	21895
860.858	21930
860.99	21876
861.123	21755
861.256	21911
861.388	21918
861.521	22668
861.653	21648
861.786	21743
861.918	21686
862.05	21755
862.183	21667
862.315	21808
862.447	21926
862.58	21762
862.712	21686
862.844	21507
862.976	21656
863.108	21728
863.24	21994
863.372	21481
863.504	21534
863.636	21485
863.768	21583
863.9	21447
864.032	21431
864.164	21416
864.296	21515
864.428	21713
864.559	21496
864.691	21656
864.823	21587
864.954	21618
865.086	21416
865.217	21542
865.349	21233
865.48	21340
865.612	21450
865.743	21606
865.875	21454
866.006	21408
866.137	21485
866.269	21344
866.4	21393
866.531	21374
866.662	21412
866.793	21340
866.924	21351
867.055	21287
867.186	21412
867.317	21416
867.448	21260
867.579	21367
867.71	21298
867.841	21268
867.972	21454
868.103	21367
868.233	21382
868.364	21447
868.495	21515
868.625	21534
868.756	21759
868.886	21549
869.017	21629
869.147	21751
869.278	21675
869.408	21698
869.539	21663
869.669	21545
869.799	21618
869.929	21755
870.06	21694
870.19	21774
870.32	21865
870.45	21949
870.58	22040
870.71	22128
870.84	22181
870.97	21998
871.1	21934
871.23	22055
871.36	22257
871.489	22063
871.619	22116
871.749	22188
871.879	22230
872.008	22150
872.138	22211
872.267	22246
872.397	22101
872.526	22120
872.656	22185
872.785	22067
872.915	22272
873.044	22265
873.173	22223
873.303	22246
873.432	22322
873.561	22265
873.69	22265
873.819	22173
873.948	22398
874.077	22253
874.206	22166
874.335	22280
874.464	22306
874.593	22421
874.722	22546
874.851	22466
874.979	22470
875.108	22584
875.237	22348
875.365	22402
875.494	22493
875.623	22466
875.751	22462
875.88	22481
876.008	22546
876.136	22687
876.265	22889
876.393	22911
876.521	22854
876.65	22949
876.778	22881
876.906	22843
877.034	22729
877.162	22713
877.29	22744
877.418	22778
877.546	22797
877.674	22721
877.802	22885
877.93	22809
878.058	22824
878.185	22637
878.313	22809
878.441	22790
878.568	22565
878.696	22748
878.824	22763
878.951	22835
879.079	23067
879.206	23037
879.333	22915
879.461	22713
879.588	22839
879.715	22972
879.842	23159
879.97	22847
880.097	22546
880.224	22535
880.351	22538
880.478	22577
880.605	22398
880.732	22607
880.859	22889
880.986	22611
881.112	22599
881.239	22470
881.366	22238
881.493	22337
881.619	22196
881.746	22192
881.872	22280
881.999	22158
882.125	22013
882.252	22272
882.378	22135
882.505	22226
882.631	22055
882.757	21846
882.883	21964
883.01	21907
883.136	21705
883.262	21850
883.388	21698
883.514	21899
883.64	21827
883.766	21759
883.892	21690
884.018	21625
884.143	21823
884.269	21903
884.395	21701
884.52	21488
884.646	21500
884.772	21401
884.897	21389
885.023	21462
885.148	21618
885.274	21603
885.399	21587
885.524	21572
885.65	21511
885.775	21485
885.9	21492
886.025	21542
886.15	21576
886.275	21424
886.4	21386
886.525	21496
886.65	21511
886.775	21416
886.9	21447
887.025	21663
887.149	21462
887.274	21207
887.399	21317
887.523	21272
887.648	21313
887.773	21256
887.897	21329
888.021	21230
888.146	21154
888.27	21367
888.395	21340
888.519	21317
888.643	21313
888.767	21249
888.891	21188
889.015	21055
889.139	21150
889.263	21077
889.387	21203
889.511	21363
889.635	21165
889.759	21127
889.883	21135
890.006	20990
890.13	21127
890.254	21085
890.377	20887
890.501	20918
890.624	20796
890.748	20872
890.871	20754
890.995	20621
891.118	20549
891.241	20701
891.364	20621
891.488	20731
891.611	20686
891.734	20644
891.857	20758
891.98	20670
892.103	20674
892.226	20552
892.349	20598
892.471	20419
892.594	20537
892.717	20549
892.839	20438
892.962	20609
893.085	20579
893.207	20473
893.33	20301
893.452	20434
893.575	20640
893.697	20408
893.819	20575
893.941	20792
894.064	20674
894.186	20389
894.308	20339
894.43	20495
894.552	20667
894.674	20511
894.796	20518
894.918	20450
895.04	20469
895.161	20552
895.283	20533
895.405	20385
895.526	20457
895.648	20381
895.769	20560
895.891	20442
896.012	20457
896.134	20488
896.255	20621
896.376	20549
896.498	20469
896.619	20590
896.74	20476
896.861	20560
896.982	20701
897.103	21009
897.224	20754
897.345	20629
897.466	20655
897.587	20682
897.708	20777
897.828	20746
897.949	20640
898.07	20396
898.19	20686
898.311	20739
898.431	20648
898.552	20670
898.672	20655
898.792	20834
898.913	20598
899.033	20659
899.153	20450
899.273	20541
899.393	20602
899.513	20313
899.633	20446
899.753	20549
899.873	20446
899.993	20480
900.113	20252
900.232	20412
900.352	20377
900.472	20206
900.591	20290
900.711	20301
900.83	20218
900.95	20313
901.069	20313
901.189	20138
901.308	19837
901.427	19799
901.546	19864
901.665	19746
901.784	19890
901.904	19788
902.023	19605
902.141	19369
902.26	19350
902.379	19381
902.498	19422
902.617	19240
902.735	19324
902.854	19213
902.973	19114
903.091	18989
903.21	18985
903.328	18856
903.446	18806
903.565	18795
903.683	18738
903.801	18559
903.919	18711
904.038	18669
904.156	18570
904.274	18521
904.392	18608
904.51	18525
904.627	18467
904.745	18509
904.863	18620
904.981	18353
905.098	18232
905.216	18133
905.334	18380
905.451	18224
905.569	18182
905.686	18205
905.803	18190
905.921	17942
906.038	18194
906.155	17984
906.272	17859
906.389	17901
906.506	17832
906.623	17756
906.74	17714
906.857	17733
906.974	17649
907.091	17817
907.208	17878
907.324	17718
907.441	17573
907.557	17535
907.674	17474
907.79	17318
907.907	17512
908.023	17471
908.139	17535
908.256	17440
908.372	17421
908.488	17337
908.604	17113
908.72	17200
908.836	17193
908.952	17147
909.068	17220
909.184	17239
909.3	17261
909.415	17178
909.531	17250
909.647	16938
909.762	17006
909.878	16881
909.993	16824
910.108	16877
910.224	16843
910.339	16869
910.454	16809
910.57	16672
910.685	16691
910.8	16790
910.915	16816
911.03	16721
911.145	16462
911.259	16455
911.374	16478
911.489	16443
911.604	16295
911.718	16162
911.833	16143
911.947	16101
912.062	16006
912.176	16147
912.291	16181
912.405	16093
912.519	16306
912.633	16325
912.748	16238
912.862	16196
912.976	16013
913.09	15930
913.204	15964
913.318	16002
913.431	16200
913.545	16116
913.659	16219
913.772	15941
913.886	15915
914	15812
914.113	15842
914.226	15903
914.34	15964
914.453	15633
914.566	15808
914.68	15610
914.793	15633
914.906	15568
915.019	15507
915.132	15348
915.245	15412
915.358	15450
915.47	15386
915.583	15386
915.696	15401
915.809	15561
915.921	15545
916.034	15317
916.146	15169
916.259	15272
916.371	15370
916.483	15424
916.595	15260
916.708	15272
916.82	15203
916.932	15230
917.044	15207
917.156	15100
917.268	14982
917.38	15093
917.491	14990
917.603	15020
917.715	15077
917.826	15127
917.938	15001
918.049	15005
918.161	14952
918.272	15070
918.384	15089
918.495	14937
918.606	14708
918.717	14758
918.828	14861
918.939	14853
919.05	14708
919.161	14739
919.272	14621
919.383	14705
919.494	14853
919.604	14918
919.715	14788
919.826	14705
919.936	14701
920.047	14834
920.157	14765
920.267	14906
920.378	14781
920.488	14697
920.598	14933
920.708	15005
920.818	14826
920.928	14891
921.038	15104
921.148	14994
921.258	14735
921.368	14617
921.477	14438
921.587	14408
921.697	14385
921.806	14537
921.916	14355
922.025	14176
922.134	14012
922.244	14119
922.353	14168
922.462	13959
922.571	13921
922.68	13788
922.789	13715
922.898	13791
923.007	13742
923.116	13765
923.224	13803
923.333	13765
923.442	13499
923.55	13590
923.659	13689
923.767	13655
923.876	13476
923.984	13590
924.092	13403
924.201	13502
924.309	13415
924.417	13422
924.525	13426
924.633	13441
924.741	14233
924.849	13190
924.956	13403
925.064	13122
925.172	13088
925.279	13145
925.387	13179
925.494	13137
925.602	13297
925.709	13179
925.816	13076
925.924	13145
926.031	13293
926.138	13164
926.245	13171
926.352	13000
926.459	13236
926.566	13156
926.673	12954
926.779	12871
926.886	12909
926.993	12730
927.099	12798
927.206	12711
927.312	12719
927.419	12741
927.525	12776
927.631	12760
927.737	12570
927.843	12570
927.95	12437
928.056	12494
928.162	12506
928.267	12566
928.373	13152
928.479	12635
928.585	12376
928.69	12460
928.796	12528
928.901	12388
929.007	12338
929.112	12369
929.218	12418
929.323	12289
929.428	12251
929.533	12376
929.638	12213
929.743	12216
929.848	12243
929.953	12273
930.058	12041
930.163	11954
930.267	11961
930.372	12057
930.477	11874
930.581	12178
930.685	12011
930.79	11767
930.894	11939
930.998	11817
931.103	11874
931.207	11596
931.311	11467
931.415	11315
931.519	11254
931.623	11280
