Data from test_V78500241_2880.txt Node
Date: Fri Mar 25 15:29:54 CST 2022
User: usil
Spectrometer: V785-0024
Trigger mode: 0
Integration Time (sec): 4.000000E-1
Scans to average: 1
Nonlinearity correction enabled: false
Boxcar width: 0
Storing dark spectrum: false
XAxis mode: Wavelengths
Number of Pixels in Spectrum: 1024
>>>>>Begin Spectral Data<<<<<
801.071	27249
801.214	27291
801.356	27055
801.499	26952
801.641	26834
801.783	26826
801.926	26960
802.068	26800
802.211	26910
802.353	26644
802.496	26492
802.638	26518
802.78	26564
802.923	26438
803.065	26256
803.208	26370
803.35	26427
803.492	26579
803.635	26587
803.777	26636
803.919	26670
804.061	26979
804.204	26743
804.346	26579
804.488	26434
804.63	26511
804.773	26609
804.915	26686
805.057	26670
805.199	26552
805.341	26693
805.483	26773
805.626	26716
805.768	26625
805.91	26773
806.052	26842
806.194	26632
806.336	26902
806.478	26693
806.62	26522
806.762	26956
806.904	27009
807.046	27313
807.188	27230
807.33	27195
807.472	27294
807.614	27051
807.756	27108
807.898	26960
808.04	26883
808.182	26956
808.324	26933
808.465	27062
808.607	27199
808.749	27397
808.891	27443
809.033	27469
809.174	27389
809.316	27336
809.458	27310
809.6	27252
809.741	27519
809.883	27610
810.025	27652
810.166	27599
810.308	27580
810.45	27660
810.591	27542
810.733	27336
810.875	27363
811.016	27211
811.158	27294
811.299	27477
811.441	27530
811.582	27534
811.724	27378
811.865	27317
812.007	27321
812.148	27363
812.29	27439
812.431	27469
812.573	27686
812.714	27599
812.855	27857
812.997	27797
813.138	28078
813.279	27888
813.421	27800
813.562	27846
813.703	27637
813.845	27454
813.986	27207
814.127	27169
814.268	26998
814.41	26979
814.551	26921
814.692	26975
814.833	26899
814.974	26883
815.115	27070
815.256	26948
815.397	26838
815.539	26849
815.68	26785
815.821	26826
815.962	26880
816.103	26762
816.244	26651
816.385	26541
816.526	26495
816.666	26423
816.807	26408
816.948	26256
817.089	26298
817.23	26271
817.371	26172
817.512	26195
817.653	26267
817.793	26153
817.934	26138
818.075	26298
818.216	26263
818.356	26202
818.497	26138
818.638	25887
818.778	25966
818.919	26138
819.06	26084
819.2	26039
819.341	26145
819.481	26267
819.622	26427
819.762	26541
819.903	26571
820.043	26579
820.184	26305
820.324	26301
820.465	26423
820.605	26313
820.746	26305
820.886	26176
821.026	26233
821.167	26328
821.307	26271
821.447	26298
821.588	26096
821.728	25982
821.868	25776
822.008	25719
822.149	25655
822.289	25582
822.429	25396
822.569	25339
822.709	25472
822.849	25061
822.99	25266
823.13	25053
823.27	25076
823.41	25000
823.55	24840
823.69	24973
823.83	24932
823.97	24924
824.11	24909
824.25	24852
824.389	24806
824.529	24829
824.669	24768
824.809	24848
824.949	24795
825.089	24928
825.228	24901
825.368	24707
825.508	24738
825.648	24669
825.787	24734
825.927	24890
826.067	24798
826.206	24684
826.346	24707
826.485	24745
826.625	24734
826.765	24856
826.904	24726
827.044	24544
827.183	24452
827.323	24361
827.462	24486
827.601	24395
827.741	24414
827.88	24342
828.02	24315
828.159	24350
828.298	24418
828.437	24410
828.577	24407
828.716	24441
828.855	24235
828.994	23984
829.134	24197
829.273	24091
829.412	24015
829.551	23999
829.69	24110
829.829	24026
829.968	24098
830.107	24129
830.246	24159
830.385	24018
830.524	24018
830.663	23942
830.802	23904
830.941	23775
831.08	23630
831.219	23729
831.357	23707
831.496	23897
831.635	23703
831.774	23539
831.913	23581
832.051	23414
832.19	23299
832.329	23581
832.467	23391
832.606	23421
832.744	23368
832.883	23402
833.022	23311
833.16	23307
833.299	23341
833.437	23421
833.576	23391
833.714	23448
833.852	23512
833.991	23486
834.129	23474
834.267	23440
834.406	23482
834.544	23471
834.682	23505
834.821	23501
834.959	23627
835.097	23353
835.235	23364
835.373	23478
835.511	23497
835.65	23433
835.788	23258
835.926	23159
836.064	23113
836.202	23052
836.34	23265
836.478	23273
836.615	23231
836.753	23227
836.891	23315
837.029	23307
837.167	23071
837.305	23189
837.443	23006
837.58	23067
837.718	23200
837.856	23254
837.993	22980
838.131	23086
838.269	23033
838.406	23025
838.544	22858
838.681	22725
838.819	22755
838.956	22611
839.094	22531
839.231	22634
839.369	22759
839.506	23006
839.643	22831
839.781	22641
839.918	22546
840.055	22603
840.193	22500
840.33	22382
840.467	22500
840.604	22630
840.742	22645
840.879	22341
841.016	22371
841.153	22348
841.29	22664
841.427	22398
841.564	22489
841.701	22329
841.838	22417
841.975	22394
842.112	22470
842.249	22413
842.385	22409
842.522	22443
842.659	22276
842.796	22329
842.933	22379
843.069	22211
843.206	22303
843.343	22394
843.479	22268
843.616	22158
843.752	22032
843.889	22090
844.025	22185
844.162	22059
844.298	22025
844.435	22059
844.571	22021
844.708	22116
844.844	22109
844.98	22185
845.117	22162
845.253	21892
845.389	21949
845.525	21797
845.661	21926
845.798	21736
845.934	21888
846.07	21751
846.206	21816
846.342	21926
846.478	21747
846.614	21682
846.75	21572
846.886	21511
847.022	21591
847.158	21469
847.294	21488
847.429	21572
847.565	21538
847.701	21739
847.837	21302
847.972	21150
848.108	21291
848.244	21359
848.379	21138
848.515	21184
848.65	21024
848.786	21241
848.921	21131
849.057	21230
849.192	21096
849.328	21127
849.463	21165
849.598	21032
849.734	21020
849.869	21058
850.004	20925
850.14	20914
850.275	20853
850.41	20781
850.545	20830
850.68	20868
850.815	20960
850.95	20891
851.085	21017
851.22	21020
851.355	20788
851.49	20769
851.625	20842
851.76	20792
851.895	20781
852.03	20842
852.165	20807
852.299	20891
852.434	20994
852.569	21024
852.703	20876
852.838	20861
852.973	21070
853.107	20929
853.242	20826
853.376	20701
853.511	20495
853.645	20651
853.78	20849
853.914	20708
854.048	20659
854.183	20705
854.317	20686
854.451	20849
854.585	20720
854.72	20724
854.854	20815
854.988	20564
855.122	20716
855.256	20636
855.39	20724
855.524	20800
855.658	20754
855.792	20720
855.926	20682
856.06	20697
856.194	20826
856.327	20632
856.461	20583
856.595	20663
856.729	20708
856.862	20762
856.996	20880
857.13	20781
857.263	20834
857.397	20746
857.53	20632
857.664	20754
857.797	20823
857.931	20838
858.064	20720
858.197	20819
858.331	20697
858.464	20598
858.597	20667
858.731	20697
858.864	20807
858.997	20746
859.13	20678
859.263	20777
859.396	20651
859.529	20659
859.662	20739
859.795	20701
859.928	20670
860.061	20815
860.194	20887
860.327	20819
860.46	20811
860.592	20823
860.725	20857
860.858	20872
860.99	20686
861.123	20602
861.256	20560
861.388	20834
861.521	21378
861.653	20606
861.786	20514
861.918	20492
862.05	20564
862.183	20659
862.315	20674
862.447	20716
862.58	20568
862.712	20408
862.844	20454
862.976	20484
863.108	20590
863.24	20941
863.372	20377
863.504	20511
863.636	20495
863.768	20514
863.9	20408
864.032	20393
864.164	20454
864.296	20324
864.428	20457
864.559	20442
864.691	20522
864.823	20526
864.954	20427
865.086	20408
865.217	20412
865.349	20301
865.48	20355
865.612	20385
865.743	20423
865.875	20244
866.006	20358
866.137	20423
866.269	20271
866.4	20377
866.531	20415
866.662	20187
866.793	20271
866.924	20278
867.055	20400
867.186	20214
867.317	20149
867.448	20088
867.579	20256
867.71	20199
867.841	20145
867.972	20332
868.103	20153
868.233	20320
868.364	20298
868.495	20339
868.625	20541
868.756	20621
868.886	20503
869.017	20571
869.147	20636
869.278	20537
869.408	20476
869.539	20549
869.669	20602
869.799	20484
869.929	20678
870.06	20590
870.19	20857
870.32	20678
870.45	20891
870.58	20823
870.71	20982
870.84	21096
870.97	20952
871.1	20933
871.23	21043
871.36	21055
871.489	21043
871.619	21203
871.749	21146
871.879	21218
872.008	21241
872.138	21028
872.267	21123
872.397	20944
872.526	20956
872.656	20910
872.785	20948
872.915	21127
873.044	21154
873.173	21211
873.303	21127
873.432	21188
873.561	21256
873.69	21165
873.819	21119
873.948	21005
874.077	21135
874.206	21036
874.335	21169
874.464	21237
874.593	21355
874.722	21321
874.851	21283
874.979	21367
875.108	21428
875.237	21241
875.365	21275
875.494	21374
875.623	21401
875.751	21401
875.88	21450
876.008	21549
876.136	21530
876.265	21720
876.393	21937
876.521	21850
876.65	21774
876.778	21808
876.906	21785
877.034	21671
877.162	21774
877.29	21610
877.418	21778
877.546	21743
877.674	21705
877.802	21568
877.93	21736
878.058	21713
878.185	21633
878.313	21739
878.441	21698
878.568	21523
878.696	21606
878.824	21705
878.951	21915
879.079	21850
879.206	21945
879.333	21861
879.461	21686
879.588	21838
879.715	21945
879.842	21991
879.97	21816
880.097	21469
880.224	21523
880.351	21519
880.478	21507
880.605	21488
880.732	21557
880.859	21785
880.986	21477
881.112	21686
881.239	21405
881.366	21207
881.493	21150
881.619	21138
881.746	21214
881.872	21165
881.999	21241
882.125	20998
882.252	21100
882.378	21112
882.505	21252
882.631	21024
882.757	20823
882.883	20941
883.01	20853
883.136	20864
883.262	20800
883.388	20708
883.514	20819
883.64	20872
883.766	20796
883.892	20632
884.018	20708
884.143	20838
884.269	20914
884.395	20549
884.52	20507
884.646	20587
884.772	20518
884.897	20355
885.023	20488
885.148	20552
885.274	20522
885.399	20571
885.524	20476
885.65	20480
885.775	20537
885.9	20431
886.025	20522
886.15	20526
886.275	20324
886.4	20374
886.525	20488
886.65	20480
886.775	20366
886.9	20621
887.025	20648
887.149	20336
887.274	20278
887.399	20225
887.523	20275
887.648	20195
887.773	20229
887.897	20400
888.021	20218
888.146	20172
888.27	20320
888.395	20278
888.519	20278
888.643	20301
888.767	20320
888.891	20065
889.015	20126
889.139	20115
889.263	20172
889.387	20168
889.511	20286
889.635	20145
889.759	20031
889.883	20024
890.006	19902
890.13	20100
890.254	19955
890.377	19955
890.501	19814
890.624	19803
890.748	19715
890.871	19674
890.995	19655
891.118	19548
891.241	19582
891.364	19689
891.488	19788
891.611	19616
891.734	19670
891.857	19655
891.98	19776
892.103	19712
892.226	19662
892.349	19533
892.471	19460
892.594	19540
892.717	19658
892.839	19548
892.962	19582
893.085	19609
893.207	19552
893.33	19563
893.452	19430
893.575	19609
893.697	19506
893.819	19670
893.941	19772
894.064	19719
894.186	19533
894.308	19499
894.43	19731
894.552	19635
894.674	19628
894.796	19434
894.918	19544
895.04	19624
895.161	19575
895.283	19472
895.405	19495
895.526	19548
895.648	19605
895.769	19571
895.891	19548
896.012	19693
896.134	19544
896.255	19544
896.376	19559
896.498	19468
896.619	19655
896.74	19685
896.861	19704
896.982	19784
897.103	20046
897.224	19841
897.345	19738
897.466	19769
897.587	19776
897.708	19967
897.828	19837
897.949	19708
898.07	19635
898.19	19662
898.311	19814
898.431	19784
898.552	19833
898.672	19925
898.792	19986
898.913	19814
899.033	19677
899.153	19715
899.273	19567
899.393	19476
899.513	19601
899.633	19548
899.753	19605
899.873	19460
899.993	19533
900.113	19514
900.232	19548
900.352	19445
900.472	19483
900.591	19247
900.711	19339
900.83	19251
900.95	19430
901.069	19327
901.189	19179
901.308	19137
901.427	18825
901.546	18989
901.665	18859
901.784	18920
901.904	18776
902.023	18627
902.141	18536
902.26	18620
902.379	18616
902.498	18422
902.617	18399
902.735	18513
902.854	18502
902.973	18357
903.091	18178
903.21	18091
903.328	18133
903.446	18079
903.565	17901
903.683	18011
903.801	17802
903.919	17916
904.038	17821
904.156	17703
904.274	17809
904.392	17661
904.51	17684
904.627	17714
904.745	17756
904.863	17764
904.981	17520
905.098	17398
905.216	17337
905.334	17433
905.451	17459
905.569	17368
905.686	17398
905.803	17250
905.921	17162
906.038	17261
906.155	17261
906.272	17048
906.389	16991
906.506	16881
906.623	16976
906.74	16881
906.857	16744
906.974	16782
907.091	16965
907.208	16965
907.324	16911
907.441	16809
907.557	16710
907.674	16771
907.79	16584
907.907	16599
908.023	16675
908.139	16592
908.256	16641
908.372	16630
908.488	16569
908.604	16413
908.72	16348
908.836	16314
908.952	16314
909.068	16402
909.184	16485
909.3	16333
909.415	16341
909.531	16344
909.647	16093
909.762	16063
909.878	16051
909.993	15975
910.108	16013
910.224	16029
910.339	16207
910.454	15907
910.57	15915
910.685	15819
910.8	16025
910.915	16120
911.03	15987
911.145	15781
911.259	15671
911.374	15675
911.489	15568
911.604	15561
911.718	15397
911.833	15469
911.947	15393
912.062	15382
912.176	15454
912.291	15439
912.405	15462
912.519	15686
912.633	15584
912.748	15370
912.862	15435
912.976	15252
913.09	15195
913.204	15169
913.318	15272
913.431	15348
913.545	15351
913.659	15283
913.772	15146
913.886	15104
914	15058
914.113	15112
914.226	15161
914.34	15165
914.453	14956
914.566	15157
914.68	14990
914.793	14804
914.906	14788
915.019	14689
915.132	14590
915.245	14731
915.358	14727
915.47	14655
915.583	14632
915.696	14610
915.809	14781
915.921	14826
916.034	14667
916.146	14606
916.259	14575
916.371	14655
916.483	14613
916.595	14507
916.708	14514
916.82	14560
916.932	14419
917.044	14434
917.156	14404
917.268	14355
917.38	14233
917.491	14278
917.603	14320
917.715	14393
917.826	14431
917.938	14275
918.049	14286
918.161	14301
918.272	14385
918.384	14389
918.495	14244
918.606	14134
918.717	14130
918.828	14195
918.939	14225
919.05	14058
919.161	14096
919.272	13868
919.383	13917
919.494	14176
919.604	14313
919.715	14073
919.826	13978
919.936	13982
920.047	14138
920.157	14084
920.267	14252
920.378	14111
920.488	14020
920.598	14298
920.708	14366
920.818	14187
920.928	14210
921.038	14393
921.148	14339
921.258	14062
921.368	13925
921.477	13852
921.587	13822
921.697	13624
921.806	13879
921.916	13616
922.025	13674
922.134	13514
922.244	13495
922.353	13521
922.462	13419
922.571	13346
922.68	13080
922.789	13137
922.898	13118
923.007	12928
923.116	13247
923.224	13057
923.333	13015
923.442	12920
923.55	12905
923.659	12962
923.767	13118
923.876	12920
923.984	13046
924.092	12890
924.201	12924
924.309	12840
924.417	12863
924.525	12859
924.633	12848
924.741	13704
924.849	12658
924.956	12810
925.064	12585
925.172	12574
925.279	12544
925.387	12555
925.494	12525
925.602	12696
925.709	12669
925.816	12460
925.924	12532
926.031	12593
926.138	12513
926.245	12574
926.352	12433
926.459	12563
926.566	12608
926.673	12361
926.779	12292
926.886	12346
926.993	12182
927.099	12167
927.206	12117
927.312	12072
927.419	12239
927.525	12110
927.631	12186
927.737	12015
927.843	11988
927.95	11866
928.056	11946
928.162	11946
928.267	12015
928.373	12597
928.479	12083
928.585	11802
928.69	11977
928.796	11950
928.901	11802
929.007	11703
929.112	11840
929.218	11805
929.323	11718
929.428	11741
929.533	11798
929.638	11581
929.743	11627
929.848	11661
929.953	11672
930.058	11520
930.163	11337
930.267	11414
930.372	11577
930.477	11341
930.581	11581
930.685	11410
930.79	11261
930.894	11337
930.998	11364
931.103	11406
931.207	11102
931.311	10923
931.415	10927
931.519	10774
931.623	10675
