Data from test_V78500241_3450.txt Node
Date: Fri Mar 25 15:33:53 CST 2022
User: usil
Spectrometer: V785-0024
Trigger mode: 0
Integration Time (sec): 4.000000E-1
Scans to average: 1
Nonlinearity correction enabled: false
Boxcar width: 0
Storing dark spectrum: false
XAxis mode: Wavelengths
Number of Pixels in Spectrum: 1024
>>>>>Begin Spectral Data<<<<<
801.071	27298
801.214	27275
801.356	27001
801.499	26921
801.641	26735
801.783	26876
801.926	26819
802.068	26921
802.211	26792
802.353	26735
802.496	26625
802.638	26400
802.78	26461
802.923	26324
803.065	26328
803.208	26313
803.35	26613
803.492	26480
803.635	26640
803.777	26560
803.919	26689
804.061	26982
804.204	26777
804.346	26682
804.488	26617
804.63	26606
804.773	26522
804.915	26613
805.057	26712
805.199	26434
805.341	26609
805.483	26857
805.626	26724
805.768	26773
805.91	26697
806.052	26857
806.194	26697
806.336	26960
806.478	26648
806.62	26667
806.762	26918
806.904	27005
807.046	27188
807.188	27112
807.33	27127
807.472	27135
807.614	27123
807.756	26998
807.898	26940
808.04	26937
808.182	26990
808.324	27032
808.465	27032
808.607	27272
808.749	27321
808.891	27553
809.033	27553
809.174	27386
809.316	27332
809.458	27264
809.6	27256
809.741	27329
809.883	27564
810.025	27580
810.166	27545
810.308	27530
810.45	27534
810.591	27606
810.733	27382
810.875	27401
811.016	27363
811.158	27214
811.299	27481
811.441	27580
811.582	27325
811.724	27287
811.865	27279
812.007	27427
812.148	27469
812.29	27359
812.431	27374
812.573	27530
812.714	27770
812.855	27926
812.997	27907
813.138	27991
813.279	27956
813.421	27717
813.562	27800
813.703	27618
813.845	27507
813.986	27233
814.127	27062
814.268	26967
814.41	26975
814.551	26910
814.692	27074
814.833	26864
814.974	26861
815.115	27024
815.256	26876
815.397	26845
815.539	26807
815.68	26788
815.821	26659
815.962	26636
816.103	26689
816.244	26495
816.385	26522
816.526	26408
816.666	26320
816.807	26202
816.948	26221
817.089	26355
817.23	26278
817.371	26263
817.512	26195
817.653	26218
817.793	26115
817.934	26218
818.075	26317
818.216	26256
818.356	26130
818.497	26039
818.638	26043
818.778	26054
818.919	25856
819.06	26031
819.2	26191
819.341	26221
819.481	26195
819.622	26412
819.762	26587
819.903	26469
820.043	26438
820.184	26324
820.324	26301
820.465	26389
820.605	26183
820.746	26259
820.886	26210
821.026	26237
821.167	26202
821.307	26278
821.447	26176
821.588	26172
821.728	26161
821.868	25928
822.008	25639
822.149	25567
822.289	25696
822.429	25377
822.569	25297
822.709	25373
822.849	25187
822.99	25110
823.13	25187
823.27	25046
823.41	25076
823.55	24966
823.69	24970
823.83	24981
823.97	24871
824.11	24783
824.25	24871
824.389	24814
824.529	24989
824.669	24935
824.809	24951
824.949	24992
825.089	24810
825.228	24817
825.368	24608
825.508	24639
825.648	24673
825.787	24764
825.927	24825
826.067	24700
826.206	24677
826.346	24722
826.485	24715
826.625	24833
826.765	24779
826.904	24726
827.044	24521
827.183	24578
827.323	24426
827.462	24464
827.601	24635
827.741	24467
827.88	24437
828.02	24251
828.159	24380
828.298	24365
828.437	24604
828.577	24300
828.716	24623
828.855	24311
828.994	24224
829.134	24174
829.273	24254
829.412	24114
829.551	24106
829.69	24098
829.829	24167
829.968	24285
830.107	24174
830.246	24125
830.385	24197
830.524	23950
830.663	23980
830.802	23942
830.941	23714
831.08	23699
831.219	23840
831.357	23843
831.496	24034
831.635	23790
831.774	23623
831.913	23646
832.051	23493
832.19	23547
832.329	23520
832.467	23410
832.606	23421
832.744	23414
832.883	23383
833.022	23341
833.16	23478
833.299	23516
833.437	23604
833.576	23512
833.714	23406
833.852	23474
833.991	23524
834.129	23585
834.267	23592
834.406	23600
834.544	23608
834.682	23558
834.821	23429
834.959	23619
835.097	23448
835.235	23448
835.373	23505
835.511	23649
835.65	23307
835.788	23562
835.926	23258
836.064	23071
836.202	23155
836.34	23379
836.478	23585
836.615	23322
836.753	23383
836.891	23368
837.029	23455
837.167	23296
837.305	23379
837.443	23231
837.58	23246
837.718	23341
837.856	23376
837.993	23223
838.131	23181
838.269	23029
838.406	23170
838.544	23083
838.681	22919
838.819	22869
838.956	22740
839.094	22653
839.231	22729
839.369	22942
839.506	23033
839.643	22835
839.781	22805
839.918	22569
840.055	22664
840.193	22588
840.33	22656
840.467	22645
840.604	22645
840.742	22786
840.879	22436
841.016	22428
841.153	22459
841.29	22664
841.427	22611
841.564	22634
841.701	22687
841.838	22649
841.975	22557
842.112	22588
842.249	22440
842.385	22360
842.522	22489
842.659	22459
842.796	22318
842.933	22459
843.069	22382
843.206	22352
843.343	22504
843.479	22485
843.616	22367
843.752	22242
843.889	22200
844.025	22242
844.162	22147
844.298	22276
844.435	22192
844.571	22074
844.708	22284
844.844	22337
844.98	22284
845.117	22268
845.253	22059
845.389	21964
845.525	22067
845.661	22105
845.798	21854
845.934	21926
846.07	21717
846.206	21994
846.342	22067
846.478	21888
846.614	21831
846.75	21633
846.886	21694
847.022	21705
847.158	21679
847.294	21591
847.429	21694
847.565	21709
847.701	21888
847.837	21355
847.972	21302
848.108	21549
848.244	21462
848.379	21188
848.515	21188
848.65	21264
848.786	21279
848.921	21252
849.057	21332
849.192	21256
849.328	21291
849.463	21169
849.598	21222
849.734	21051
849.869	21093
850.004	21066
850.14	20986
850.275	20990
850.41	20849
850.545	20895
850.68	21074
850.815	21100
850.95	20975
851.085	21116
851.22	21081
851.355	21074
851.49	20918
851.625	20910
851.76	20937
851.895	21005
852.03	20975
852.165	20902
852.299	21093
852.434	21047
852.569	21066
852.703	20967
852.838	21135
852.973	21138
853.107	21028
853.242	21013
853.376	20815
853.511	20792
853.645	20644
853.78	21036
853.914	20899
854.048	20861
854.183	20899
854.317	20864
854.451	20895
854.585	20887
854.72	20864
854.854	20887
854.988	20838
855.122	20823
855.256	20674
855.39	20743
855.524	20891
855.658	20887
855.792	20857
855.926	20807
856.06	20765
856.194	20838
856.327	20800
856.461	20834
856.595	20746
856.729	20765
856.862	20891
856.996	20914
857.13	20804
857.263	20864
857.397	20906
857.53	20792
857.664	20823
857.797	20982
857.931	20895
858.064	20925
858.197	20910
858.331	20720
858.464	20762
858.597	20674
858.731	20842
858.864	20800
858.997	20773
859.13	20925
859.263	20864
859.396	20830
859.529	20777
859.662	20807
859.795	20819
859.928	20807
860.061	21043
860.194	20910
860.327	20864
860.46	20777
860.592	20918
860.725	20914
860.858	20937
860.99	20804
861.123	20815
861.256	20792
861.388	20746
861.521	21458
861.653	20746
861.786	20560
861.918	20686
862.05	20765
862.183	20826
862.315	20621
862.447	20830
862.58	20804
862.712	20689
862.844	20552
862.976	20537
863.108	20564
863.24	20998
863.372	20533
863.504	20514
863.636	20393
863.768	20629
863.9	20590
864.032	20476
864.164	20415
864.296	20587
864.428	20613
864.559	20598
864.691	20571
864.823	20530
864.954	20541
865.086	20465
865.217	20442
865.349	20336
865.48	20351
865.612	20385
865.743	20473
865.875	20377
866.006	20438
866.137	20419
866.269	20488
866.4	20484
866.531	20423
866.662	20415
866.793	20415
866.924	20427
867.055	20457
867.186	20476
867.317	20495
867.448	20305
867.579	20366
867.71	20336
867.841	20218
867.972	20415
868.103	20370
868.233	20313
868.364	20415
868.495	20473
868.625	20640
868.756	20796
868.886	20613
869.017	20670
869.147	20716
869.278	20731
869.408	20697
869.539	20552
869.669	20648
869.799	20682
869.929	20682
870.06	20701
870.19	21081
870.32	20838
870.45	20910
870.58	20975
870.71	21119
870.84	21211
870.97	21017
871.1	20990
871.23	21222
871.36	21233
871.489	21077
871.619	21176
871.749	21173
871.879	21214
872.008	21386
872.138	21321
872.267	21302
872.397	21070
872.526	21017
872.656	21039
872.785	21123
872.915	21203
873.044	21230
873.173	21112
873.303	21272
873.432	21291
873.561	21336
873.69	21245
873.819	21226
873.948	21256
874.077	21291
874.206	21214
874.335	21184
874.464	21310
874.593	21367
874.722	21332
874.851	21530
874.979	21545
875.108	21382
875.237	21542
875.365	21348
875.494	21405
875.623	21545
875.751	21542
875.88	21538
876.008	21648
876.136	21701
876.265	21857
876.393	21846
876.521	21941
876.65	22048
876.778	21846
876.906	21903
877.034	21895
877.162	21873
877.29	21850
877.418	21869
877.546	21915
877.674	21934
877.802	21816
877.93	21739
878.058	21812
878.185	21717
878.313	21812
878.441	21812
878.568	21751
878.696	21762
878.824	21926
878.951	21987
879.079	21953
879.206	22185
879.333	22006
879.461	21835
879.588	21949
879.715	22063
879.842	22090
879.97	21774
880.097	21770
880.224	21606
880.351	21736
880.478	21667
880.605	21599
880.732	21694
880.859	21816
880.986	21660
881.112	21618
881.239	21378
881.366	21397
881.493	21321
881.619	21245
881.746	21370
881.872	21310
881.999	21154
882.125	21176
882.252	21245
882.378	21256
882.505	21241
882.631	21169
882.757	20967
882.883	20971
883.01	20944
883.136	20826
883.262	20826
883.388	20716
883.514	20914
883.64	20918
883.766	20819
883.892	20735
884.018	20864
884.143	20956
884.269	20979
884.395	20651
884.52	20530
884.646	20507
884.772	20480
884.897	20541
885.023	20697
885.148	20640
885.274	20750
885.399	20731
885.524	20701
885.65	20606
885.775	20568
885.9	20579
886.025	20754
886.15	20621
886.275	20522
886.4	20514
886.525	20518
886.65	20484
886.775	20583
886.9	20708
887.025	20689
887.149	20583
887.274	20461
887.399	20434
887.523	20385
887.648	20195
887.773	20286
887.897	20427
888.021	20469
888.146	20332
888.27	20568
888.395	20564
888.519	20400
888.643	20503
888.767	20305
888.891	20286
889.015	20142
889.139	20176
889.263	20145
889.387	20237
889.511	20454
889.635	20305
889.759	20252
889.883	20062
890.006	20202
890.13	20122
890.254	20046
890.377	20088
890.501	19799
890.624	19814
890.748	20031
890.871	19818
890.995	19883
891.118	19639
891.241	19738
891.364	19852
891.488	19864
891.611	19791
891.734	19795
891.857	19807
891.98	19693
892.103	19845
892.226	19655
892.349	19635
892.471	19582
892.594	19693
892.717	19620
892.839	19734
892.962	19643
893.085	19807
893.207	19765
893.33	19662
893.452	19525
893.575	19750
893.697	19597
893.819	19864
893.941	19803
894.064	19772
894.186	19537
894.308	19628
894.43	19727
894.552	19814
894.674	19681
894.796	19552
894.918	19590
895.04	19658
895.161	19860
895.283	19757
895.405	19537
895.526	19795
895.648	19616
895.769	19719
895.891	19769
896.012	19693
896.134	19696
896.255	19807
896.376	19746
896.498	19757
896.619	19704
896.74	19616
896.861	19830
896.982	20043
897.103	20240
897.224	19970
897.345	19822
897.466	19750
897.587	19940
897.708	19959
897.828	19913
897.949	19795
898.07	19791
898.19	19852
898.311	19978
898.431	19989
898.552	19947
898.672	19974
898.792	19864
898.913	19909
899.033	19860
899.153	19822
899.273	19616
899.393	19689
899.513	19761
899.633	19670
899.753	19639
899.873	19655
899.993	19757
900.113	19582
900.232	19628
900.352	19620
900.472	19487
900.591	19434
900.711	19449
900.83	19407
900.95	19540
901.069	19552
901.189	19426
901.308	19122
901.427	19129
901.546	19095
901.665	19148
901.784	19099
901.904	18977
902.023	18749
902.141	18612
902.26	18654
902.379	18661
902.498	18509
902.617	18502
902.735	18540
902.854	18570
902.973	18483
903.091	18327
903.21	18346
903.328	18251
903.446	18163
903.565	18140
903.683	18102
903.801	17935
903.919	18045
904.038	18026
904.156	17783
904.274	17965
904.392	17866
904.51	17832
904.627	17840
904.745	17874
904.863	17885
904.981	17703
905.098	17589
905.216	17516
905.334	17604
905.451	17486
905.569	17649
905.686	17509
905.803	17440
905.921	17307
906.038	17478
906.155	17280
906.272	17216
906.389	17280
906.506	17124
906.623	17029
906.74	16908
906.857	16999
906.974	16961
907.091	17056
907.208	17117
907.324	17052
907.441	16972
907.557	16793
907.674	16866
907.79	16752
907.907	16850
908.023	16828
908.139	16820
908.256	16607
908.372	16615
908.488	16626
908.604	16561
908.72	16462
908.836	16538
908.952	16459
909.068	16588
909.184	16603
909.3	16367
909.415	16516
909.531	16474
909.647	16223
909.762	16128
909.878	16265
909.993	16257
910.108	16116
910.224	16196
910.339	16139
910.454	16059
910.57	16067
910.685	15975
910.8	16139
910.915	16093
911.03	16010
911.145	15876
911.259	15701
911.374	15876
911.489	15770
911.604	15641
911.718	15622
911.833	15644
911.947	15363
912.062	15466
912.176	15564
912.291	15568
912.405	15576
912.519	15709
912.633	15663
912.748	15576
912.862	15542
912.976	15485
913.09	15195
913.204	15294
913.318	15439
913.431	15530
913.545	15367
913.659	15454
913.772	15317
913.886	15230
914	15108
914.113	15256
914.226	15279
914.34	15306
914.453	15150
914.566	15195
914.68	15116
914.793	15112
914.906	14849
915.019	14823
915.132	14739
915.245	14834
915.358	14845
915.47	14838
915.583	14872
915.696	14914
915.809	14773
915.921	14891
916.034	14686
916.146	14731
916.259	14686
916.371	14724
916.483	14758
916.595	14598
916.708	14610
916.82	14610
916.932	14674
917.044	14613
917.156	14648
917.268	14552
917.38	14514
917.491	14431
917.603	14469
917.715	14522
917.826	14549
917.938	14347
918.049	14381
918.161	14351
918.272	14530
918.384	14587
918.495	14396
918.606	14259
918.717	14058
918.828	14202
918.939	14313
919.05	14168
919.161	14164
919.272	13978
919.383	14088
919.494	14256
919.604	14446
919.715	14278
919.826	14206
919.936	14172
920.047	14271
920.157	14221
920.267	14362
920.378	14210
920.488	14183
920.598	14366
920.708	14545
920.818	14374
920.928	14320
921.038	14438
921.148	14484
921.258	14180
921.368	14058
921.477	13955
921.587	13928
921.697	13784
921.806	13947
921.916	13788
922.025	13571
922.134	13616
922.244	13590
922.353	13605
922.462	13480
922.571	13430
922.68	13358
922.789	13145
922.898	13232
923.007	13168
923.116	13206
923.224	13190
923.333	13255
923.442	13042
923.55	13034
923.659	13149
923.767	13202
923.876	12951
923.984	13065
924.092	13004
924.201	13057
924.309	12996
924.417	13053
924.525	12909
924.633	12928
924.741	13799
924.849	12772
924.956	12856
925.064	12715
925.172	12574
925.279	12578
925.387	12669
925.494	12631
925.602	12760
925.709	12681
925.816	12574
925.924	12669
926.031	12722
926.138	12642
926.245	12681
926.352	12631
926.459	12719
926.566	12662
926.673	12525
926.779	12464
926.886	12452
926.993	12300
927.099	12281
927.206	12228
927.312	12190
927.419	12213
927.525	12300
927.631	12201
927.737	12102
927.843	12045
927.95	11980
928.056	12049
928.162	12117
928.267	12049
928.373	12623
928.479	12129
928.585	11931
928.69	12030
928.796	12125
928.901	11992
929.007	11767
929.112	11931
929.218	11802
929.323	11878
929.428	11794
929.533	11946
929.638	11695
929.743	11779
929.848	11783
929.953	11764
930.058	11653
930.163	11478
930.267	11589
930.372	11581
930.477	11463
930.581	11661
930.685	11493
930.79	11395
930.894	11417
930.998	11368
931.103	11444
931.207	11056
931.311	11079
931.415	10927
931.519	10816
931.623	10736
