Data from test_V78500241_998.txt Node
Date: Fri Mar 25 15:16:48 CST 2022
User: usil
Spectrometer: V785-0024
Trigger mode: 0
Integration Time (sec): 4.000000E-1
Scans to average: 1
Nonlinearity correction enabled: false
Boxcar width: 0
Storing dark spectrum: false
XAxis mode: Wavelengths
Number of Pixels in Spectrum: 1024
>>>>>Begin Spectral Data<<<<<
801.071	28329
801.214	28215
801.356	28128
801.499	28143
801.641	27884
801.783	27873
801.926	28192
802.068	28055
802.211	27876
802.353	27945
802.496	27618
802.638	27625
802.78	27625
802.923	27625
803.065	27629
803.208	27500
803.35	27515
803.492	27633
803.635	27690
803.777	27644
803.919	27720
804.061	28116
804.204	28002
804.346	27759
804.488	27743
804.63	27869
804.773	27800
804.915	27804
805.057	27953
805.199	27876
805.341	27842
805.483	28055
805.626	27800
805.768	28002
805.91	27922
806.052	27903
806.194	27907
806.336	28204
806.478	28086
806.62	28036
806.762	28143
806.904	28200
807.046	28527
807.188	28440
807.33	28424
807.472	28333
807.614	28310
807.756	28329
807.898	28337
808.04	28306
808.182	28272
808.324	28303
808.465	28363
808.607	28421
808.749	28580
808.891	28618
809.033	28816
809.174	28767
809.316	28755
809.458	28710
809.6	28675
809.741	28721
809.883	28759
810.025	28839
810.166	28946
810.308	28816
810.45	28869
810.591	28900
810.733	28835
810.875	28653
811.016	28679
811.158	28592
811.299	28778
811.441	28847
811.582	28717
811.724	28592
811.865	28561
812.007	28653
812.148	28656
812.29	28774
812.431	28850
812.573	28976
812.714	29090
812.855	29227
812.997	29242
813.138	29326
813.279	29280
813.421	29212
813.562	29254
813.703	28991
813.845	28927
813.986	28721
814.127	28481
814.268	28417
814.41	28447
814.551	28257
814.692	28550
814.833	28284
814.974	28265
815.115	28474
815.256	28318
815.397	28280
815.539	28226
815.68	28287
815.821	28112
815.962	28287
816.103	28314
816.244	28166
816.385	27987
816.526	27873
816.666	27812
816.807	27732
816.948	27785
817.089	27854
817.23	27804
817.371	27690
817.512	27819
817.653	27774
817.793	27713
817.934	27762
818.075	27759
818.216	27690
818.356	27679
818.497	27557
818.638	27363
818.778	27519
818.919	27431
819.06	27511
819.2	27485
819.341	27709
819.481	27819
819.622	27854
819.762	28017
819.903	27983
820.043	27797
820.184	27835
820.324	27846
820.465	27846
820.605	27854
820.746	27705
820.886	27751
821.026	27793
821.167	27918
821.307	27865
821.447	27705
821.588	27568
821.728	27466
821.868	27249
822.008	27188
822.149	27199
822.289	27161
822.429	27005
822.569	26830
822.709	26952
822.849	26788
822.99	26777
823.13	26735
823.27	26636
823.41	26488
823.55	26419
823.69	26564
823.83	26453
823.97	26511
824.11	26404
824.25	26256
824.389	26377
824.529	26507
824.669	26343
824.809	26484
824.949	26461
825.089	26408
825.228	26313
825.368	26206
825.508	26256
825.648	26328
825.787	26206
825.927	26336
826.067	26332
826.206	26233
826.346	26271
826.485	26305
826.625	26275
826.765	26370
826.904	26199
827.044	26077
827.183	26084
827.323	25947
827.462	25982
827.601	25932
827.741	25830
827.88	25989
828.02	25845
828.159	26001
828.298	26008
828.437	26096
828.577	26035
828.716	26138
828.855	25982
828.994	25639
829.134	25658
829.273	25655
829.412	25525
829.551	25624
829.69	25750
829.829	25628
829.968	25757
830.107	25807
830.246	25548
830.385	25647
830.524	25582
830.663	25514
830.802	25381
830.941	25240
831.08	25282
831.219	25289
831.357	25422
831.496	25411
831.635	25240
831.774	25202
831.913	25027
832.051	25107
832.19	25148
832.329	25221
832.467	24966
832.606	24905
832.744	24871
832.883	24928
833.022	25004
833.16	25023
833.299	25088
833.437	24920
833.576	25107
833.714	25114
833.852	25156
833.991	25282
834.129	25110
834.267	25137
834.406	24981
834.544	25171
834.682	25095
834.821	24996
834.959	25175
835.097	24989
835.235	25065
835.373	25069
835.511	25042
835.65	24913
835.788	24757
835.926	24719
836.064	24741
836.202	24734
836.34	24882
836.478	24897
836.615	24833
836.753	24878
836.891	24992
837.029	24856
837.167	24871
837.305	24821
837.443	24810
837.58	24707
837.718	24677
837.856	24707
837.993	24734
838.131	24696
838.269	24639
838.406	24528
838.544	24467
838.681	24388
838.819	24323
838.956	24174
839.094	24163
839.231	24277
839.369	24304
839.506	24563
839.643	24395
839.781	24178
839.918	24106
840.055	24167
840.193	24034
840.33	23977
840.467	24136
840.604	24216
840.742	24334
840.879	23996
841.016	23927
841.153	23950
841.29	24247
841.427	24083
841.564	24159
841.701	24068
841.838	24155
841.975	23946
842.112	23908
842.249	23893
842.385	23920
842.522	24076
842.659	23904
842.796	23802
842.933	23836
843.069	23729
843.206	23756
843.343	23885
843.479	23786
843.616	23760
843.752	23687
843.889	23741
844.025	23775
844.162	23611
844.298	23813
844.435	23699
844.571	23436
844.708	23687
844.844	23684
844.98	23760
845.117	23649
845.253	23543
845.389	23341
845.525	23421
845.661	23402
845.798	23303
845.934	23318
846.07	23296
846.206	23402
846.342	23395
846.478	23349
846.614	23128
846.75	23029
846.886	23071
847.022	23159
847.158	23067
847.294	23098
847.429	23128
847.565	23105
847.701	23246
847.837	22668
847.972	22790
848.108	22828
848.244	22953
848.379	22679
848.515	22603
848.65	22538
848.786	22622
848.921	22752
849.057	22691
849.192	22763
849.328	22668
849.463	22637
849.598	22634
849.734	22599
849.869	22500
850.004	22428
850.14	22379
850.275	22421
850.41	22341
850.545	22291
850.68	22443
850.815	22390
850.95	22341
851.085	22618
851.22	22584
851.355	22481
851.49	22447
851.625	22363
851.76	22413
851.895	22341
852.03	22265
852.165	22432
852.299	22405
852.434	22421
852.569	22284
852.703	22455
852.838	22527
852.973	22531
853.107	22622
853.242	22409
853.376	22303
853.511	22124
853.645	22238
853.78	22291
853.914	22322
854.048	22173
854.183	22257
854.317	22261
854.451	22474
854.585	22265
854.72	22287
854.854	22211
854.988	22169
855.122	22272
855.256	22112
855.39	22215
855.524	22348
855.658	22348
855.792	22154
855.926	22284
856.06	22276
856.194	22325
856.327	22295
856.461	22169
856.595	22192
856.729	22154
856.862	22333
856.996	22337
857.13	22234
857.263	22462
857.397	22303
857.53	22230
857.664	22299
857.797	22200
857.931	22287
858.064	22284
858.197	22265
858.331	22242
858.464	22169
858.597	22185
858.731	22207
858.864	22135
858.997	22200
859.13	22249
859.263	22246
859.396	22451
859.529	22185
859.662	22238
859.795	22211
859.928	22280
860.061	22417
860.194	22356
860.327	22325
860.46	22238
860.592	22329
860.725	22413
860.858	22436
860.99	22192
861.123	22116
861.256	22128
861.388	22207
861.521	22961
861.653	22090
861.786	21998
861.918	22036
862.05	22097
862.183	22143
862.315	22143
862.447	22287
862.58	22154
862.712	21937
862.844	21930
862.976	22067
863.108	22143
863.24	22398
863.372	21846
863.504	21922
863.636	21964
863.768	21934
863.9	21953
864.032	21842
864.164	21907
864.296	22029
864.428	22006
864.559	22044
864.691	21998
864.823	21903
864.954	21831
865.086	21880
865.217	21762
865.349	21819
865.48	21953
865.612	21800
865.743	21895
865.875	21793
866.006	21831
866.137	21785
866.269	21823
866.4	21804
866.531	21755
866.662	21663
866.793	21698
866.924	21705
867.055	21831
867.186	21850
867.317	21720
867.448	21675
867.579	21644
867.71	21667
867.841	21690
867.972	21724
868.103	21831
868.233	21778
868.364	21800
868.495	21880
868.625	21975
868.756	22032
868.886	21831
869.017	21998
869.147	22169
869.278	21949
869.408	21945
869.539	21998
869.669	22059
869.799	22010
869.929	22139
870.06	22150
870.19	22306
870.32	22249
870.45	22341
870.58	22390
870.71	22489
870.84	22409
870.97	22253
871.1	22348
871.23	22630
871.36	22656
871.489	22542
871.619	22596
871.749	22500
871.879	22516
872.008	22664
872.138	22634
872.267	22649
872.397	22447
872.526	22382
872.656	22375
872.785	22257
872.915	22535
873.044	22725
873.173	22512
873.303	22649
873.432	22607
873.561	22805
873.69	22679
873.819	22516
873.948	22622
874.077	22538
874.206	22523
874.335	22664
874.464	22706
874.593	22801
874.722	22713
874.851	22858
874.979	22847
875.108	22911
875.237	22755
875.365	22744
875.494	22679
875.623	22915
875.751	22843
875.88	22797
876.008	22984
876.136	23044
876.265	23151
876.393	23330
876.521	23261
876.65	23193
876.778	23197
876.906	23060
877.034	23048
877.162	23212
877.29	22984
877.418	23204
877.546	23128
877.674	23124
877.802	23166
877.93	23208
878.058	23022
878.185	23037
878.313	22885
878.441	23044
878.568	23033
878.696	23261
878.824	23105
878.951	23220
879.079	23200
879.206	23376
879.333	23341
879.461	23147
879.588	23284
879.715	23277
879.842	23288
879.97	23239
880.097	22927
880.224	22946
880.351	22923
880.478	22900
880.605	22968
880.732	22976
880.859	23330
880.986	22942
881.112	22839
881.239	22698
881.366	22759
881.493	22580
881.619	22577
881.746	22569
881.872	22630
881.999	22424
882.125	22421
882.252	22493
882.378	22516
882.505	22512
882.631	22382
882.757	22211
882.883	22249
883.01	22280
883.136	22143
883.262	22169
883.388	21941
883.514	22143
883.64	22223
883.766	22051
883.892	21953
884.018	22002
884.143	22147
884.269	22265
884.395	21892
884.52	21747
884.646	21770
884.772	21675
884.897	21717
885.023	21964
885.148	21835
885.274	22105
885.399	21827
885.524	21922
885.65	21949
885.775	21808
885.9	21770
886.025	21915
886.15	21979
886.275	21869
886.4	21660
886.525	21895
886.65	21644
886.775	21823
886.9	21934
887.025	22002
887.149	21747
887.274	21629
887.399	21603
887.523	21587
887.648	21641
887.773	21447
887.897	21686
888.021	21701
888.146	21561
888.27	21679
888.395	21800
888.519	21587
888.643	21603
888.767	21705
888.891	21428
889.015	21401
889.139	21431
889.263	21397
889.387	21504
889.511	21564
889.635	21534
889.759	21329
889.883	21370
890.006	21302
890.13	21492
890.254	21310
890.377	21367
890.501	21184
890.624	21116
890.748	21096
890.871	21085
890.995	20956
891.118	20944
891.241	21051
891.364	20956
891.488	21043
891.611	20948
891.734	20918
891.857	21032
891.98	20937
892.103	21005
892.226	20952
892.349	20944
892.471	20758
892.594	20883
892.717	20857
892.839	20842
892.962	20819
893.085	20815
893.207	20834
893.33	20617
893.452	20724
893.575	20914
893.697	20781
893.819	20967
893.941	21058
894.064	20933
894.186	20807
894.308	20845
894.43	20842
894.552	21032
894.674	20944
894.796	20746
894.918	20754
895.04	20777
895.161	20777
895.283	20921
895.405	20678
895.526	20807
895.648	20815
895.769	20823
895.891	20868
896.012	20819
896.134	20899
896.255	20823
896.376	20819
896.498	20876
896.619	20921
896.74	20834
896.861	20929
896.982	21192
897.103	21176
897.224	21116
897.345	21051
897.466	20948
897.587	21066
897.708	21131
897.828	21055
897.949	20952
898.07	20765
898.19	21055
898.311	21142
898.431	20845
898.552	20979
898.672	21074
898.792	21077
898.913	20986
899.033	20830
899.153	20815
899.273	20746
899.393	20678
899.513	20701
899.633	20765
899.753	20796
899.873	20708
899.993	20857
900.113	20613
900.232	20674
900.352	20609
900.472	20617
900.591	20602
900.711	20564
900.83	20404
900.95	20644
901.069	20594
901.189	20343
901.308	20122
901.427	20058
901.546	20122
901.665	20237
901.784	20081
901.904	20020
902.023	19868
902.141	19712
902.26	19624
902.379	19681
902.498	19674
902.617	19537
902.735	19605
902.854	19601
902.973	19521
903.091	19324
903.21	19293
903.328	19354
903.446	19221
903.565	19038
903.683	19019
903.801	18954
903.919	19084
904.038	19015
904.156	18935
904.274	18890
904.392	18757
904.51	18745
904.627	18886
904.745	18924
904.863	18856
904.981	18669
905.098	18502
905.216	18365
905.334	18528
905.451	18528
905.569	18475
905.686	18604
905.803	18441
905.921	18262
906.038	18327
906.155	18330
906.272	18243
906.389	18194
906.506	18152
906.623	18003
906.74	18007
906.857	17775
906.974	17942
907.091	18072
907.208	18144
907.324	17996
907.441	17954
907.557	17729
907.674	17752
907.79	17722
907.907	17745
908.023	17775
908.139	17752
908.256	17615
908.372	17551
908.488	17532
908.604	17532
908.72	17326
908.836	17528
908.952	17383
909.068	17512
909.184	17566
909.3	17497
909.415	17482
909.531	17478
909.647	17292
909.762	17178
909.878	17204
909.993	17204
910.108	17098
910.224	17033
910.339	17193
910.454	16999
910.57	16957
910.685	16911
910.8	17151
910.915	17098
911.03	16995
911.145	16828
911.259	16763
911.374	16809
911.489	16645
911.604	16535
911.718	16478
911.833	16531
911.947	16428
912.062	16325
912.176	16413
912.291	16386
912.405	16459
912.519	16615
912.633	16554
912.748	16535
912.862	16493
912.976	16318
913.09	16181
913.204	16226
913.318	16379
913.431	16337
913.545	16382
913.659	16344
913.772	16280
913.886	16166
914	16063
914.113	16154
914.226	16112
914.34	16150
914.453	16032
914.566	16135
914.68	15918
914.793	15987
914.906	15694
915.019	15667
915.132	15656
915.245	15778
915.358	15736
915.47	15759
915.583	15717
915.696	15648
915.809	15808
915.921	15808
916.034	15572
916.146	15538
916.259	15580
916.371	15648
916.483	15564
916.595	15526
916.708	15538
916.82	15447
916.932	15424
917.044	15504
917.156	15435
917.268	15382
917.38	15310
917.491	15192
917.603	15332
917.715	15397
917.826	15363
917.938	15222
918.049	15237
918.161	15279
918.272	15393
918.384	15435
918.495	15230
918.606	14990
918.717	15032
918.828	15085
918.939	15051
919.05	14960
919.161	15081
919.272	14830
919.383	14929
919.494	15100
919.604	15279
919.715	14891
919.826	14895
919.936	14925
920.047	15089
920.157	15051
920.267	15157
920.378	15017
920.488	14921
920.598	15100
920.708	15211
920.818	15188
920.928	15119
921.038	15287
921.148	15264
921.258	14960
921.368	14864
921.477	14705
921.587	14693
921.697	14533
921.806	14731
921.916	14537
922.025	14415
922.134	14408
922.244	14244
922.353	14408
922.462	14225
922.571	14176
922.68	13997
922.789	13993
922.898	14043
923.007	13932
923.116	13940
923.224	13989
923.333	13974
923.442	13864
923.55	13875
923.659	13780
923.767	13791
923.876	13841
923.984	13803
924.092	13700
924.201	13715
924.309	13784
924.417	13559
924.525	13597
924.633	13643
924.741	14602
924.849	13377
924.956	13616
925.064	13441
925.172	13335
925.279	13282
925.387	13468
925.494	13377
925.602	13563
925.709	13495
925.816	13266
925.924	13247
926.031	13464
926.138	13350
926.245	13449
926.352	13285
926.459	13297
926.566	13426
926.673	13228
926.779	13160
926.886	13107
926.993	12897
927.099	12977
927.206	12863
927.312	12905
927.419	13004
927.525	12829
927.631	13031
927.737	12833
927.843	12852
927.95	12623
928.056	12753
928.162	12787
928.267	12700
928.373	13365
928.479	12890
928.585	12544
928.69	12715
928.796	12726
928.901	12570
929.007	12544
929.112	12623
929.218	12585
929.323	12536
929.428	12388
929.533	12566
929.638	12433
929.743	12410
929.848	12479
929.953	12327
930.058	12285
930.163	12277
930.267	12144
930.372	12319
930.477	12201
930.581	12361
930.685	12129
930.79	12091
930.894	12140
930.998	12022
931.103	12030
931.207	11695
931.311	11627
931.415	11585
931.519	11353
931.623	11379
