Data from test_V78500241_2121.txt Node
Date: Fri Mar 25 15:24:37 CST 2022
User: usil
Spectrometer: V785-0024
Trigger mode: 0
Integration Time (sec): 4.000000E-1
Scans to average: 1
Nonlinearity correction enabled: false
Boxcar width: 0
Storing dark spectrum: false
XAxis mode: Wavelengths
Number of Pixels in Spectrum: 1024
>>>>>Begin Spectral Data<<<<<
801.071	27603
801.214	27717
801.356	27401
801.499	27275
801.641	27051
801.783	27154
801.926	27214
802.068	27211
802.211	27146
802.353	26971
802.496	26880
802.638	26849
802.78	26788
802.923	26769
803.065	26758
803.208	26773
803.35	26861
803.492	27058
803.635	26914
803.777	26887
803.919	26967
804.061	27374
804.204	27131
804.346	27077
804.488	26864
804.63	27157
804.773	26937
804.915	27176
805.057	27169
805.199	26956
805.341	27058
805.483	27184
805.626	27218
805.768	27070
805.91	27108
806.052	27138
806.194	27203
806.336	27233
806.478	27233
806.62	27070
806.762	27157
806.904	27427
807.046	27511
807.188	27648
807.33	27576
807.472	27572
807.614	27500
807.756	27485
807.898	27511
808.04	27332
808.182	27348
808.324	27473
808.465	27435
808.607	27713
808.749	27686
808.891	27835
809.033	27911
809.174	27865
809.316	27705
809.458	27724
809.6	27842
809.741	27880
809.883	27865
810.025	27941
810.166	28055
810.308	28021
810.45	28029
810.591	27869
810.733	27869
810.875	27603
811.016	27629
811.158	27587
811.299	27724
811.441	27960
811.582	27914
811.724	27660
811.865	27686
812.007	27675
812.148	27732
812.29	27751
812.431	27918
812.573	28105
812.714	28154
812.855	28291
812.997	28314
813.138	28447
813.279	28432
813.421	28249
813.562	28204
813.703	27937
813.845	27949
813.986	27580
814.127	27595
814.268	27427
814.41	27427
814.551	27450
814.692	27389
814.833	27302
814.974	27435
815.115	27427
815.256	27249
815.397	27332
815.539	27298
815.68	27325
815.821	27222
815.962	27211
816.103	27100
816.244	27123
816.385	26963
816.526	26902
816.666	26929
816.807	26689
816.948	26788
817.089	26765
817.23	26849
817.371	26735
817.512	26705
817.653	26689
817.793	26575
817.934	26602
818.075	26667
818.216	26712
818.356	26667
818.497	26625
818.638	26434
818.778	26400
818.919	26446
819.06	26400
819.2	26644
819.341	26872
819.481	26503
819.622	26629
819.762	27055
819.903	26994
820.043	26720
820.184	26906
820.324	26800
820.465	26792
820.605	26811
820.746	26746
820.886	26765
821.026	26708
821.167	26762
821.307	26712
821.447	26796
821.588	26579
821.728	26476
821.868	26233
822.008	26126
822.149	26225
822.289	26172
822.429	25890
822.569	25788
822.709	25902
822.849	25643
822.99	25620
823.13	25525
823.27	25479
823.41	25411
823.55	25434
823.69	25537
823.83	25460
823.97	25343
824.11	25285
824.25	25293
824.389	25206
824.529	25369
824.669	25331
824.809	25388
824.949	25384
825.089	25457
825.228	25339
825.368	25145
825.508	25118
825.648	25213
825.787	25297
825.927	25209
826.067	25202
826.206	25110
826.346	25308
826.485	25236
826.625	25076
826.765	25339
826.904	25202
827.044	24943
827.183	24924
827.323	24806
827.462	24985
827.601	24791
827.741	24753
827.88	24958
828.02	24776
828.159	24848
828.298	25008
828.437	24886
828.577	24787
828.716	24840
828.855	24814
828.994	24544
829.134	24661
829.273	24498
829.412	24597
829.551	24467
829.69	24559
829.829	24585
829.968	24525
830.107	24593
830.246	24612
830.385	24578
830.524	24357
830.663	24452
830.802	24213
830.941	24209
831.08	24224
831.219	24300
831.357	24243
831.496	24460
831.635	24201
831.774	24060
831.913	24098
832.051	23901
832.19	23961
832.329	23939
832.467	23866
832.606	23752
832.744	23733
832.883	23767
833.022	23882
833.16	23920
833.299	23901
833.437	23813
833.576	23939
833.714	23855
833.852	23866
833.991	23912
834.129	23977
834.267	23980
834.406	23916
834.544	24098
834.682	23950
834.821	23882
834.959	24125
835.097	23794
835.235	23988
835.373	23954
835.511	23855
835.65	23901
835.788	23821
835.926	23661
836.064	23646
836.202	23528
836.34	23737
836.478	23843
836.615	23668
836.753	23760
836.891	23805
837.029	23859
837.167	23611
837.305	23535
837.443	23668
837.58	23703
837.718	23676
837.856	23600
837.993	23516
838.131	23577
838.269	23436
838.406	23417
838.544	23414
838.681	23117
838.819	23121
838.956	23090
839.094	23090
839.231	23178
839.369	23193
839.506	23471
839.643	23356
839.781	22987
839.918	23041
840.055	23098
840.193	23086
840.33	23033
840.467	22972
840.604	23052
840.742	23235
840.879	22923
841.016	22911
841.153	22904
841.29	23075
841.427	22942
841.564	22930
841.701	22892
841.838	22949
841.975	22843
842.112	22812
842.249	22812
842.385	22740
842.522	22976
842.659	22653
842.796	22675
842.933	22698
843.069	22698
843.206	22577
843.343	22793
843.479	22725
843.616	22717
843.752	22474
843.889	22455
844.025	22645
844.162	22577
844.298	22554
844.435	22470
844.571	22436
844.708	22592
844.844	22824
844.98	22611
845.117	22493
845.253	22424
845.389	22356
845.525	22348
845.661	22352
845.798	22207
845.934	22303
846.07	22234
846.206	22314
846.342	22234
846.478	22226
846.614	22029
846.75	22025
846.886	22010
847.022	22074
847.158	22093
847.294	22010
847.429	22036
847.565	21945
847.701	22192
847.837	21816
847.972	21568
848.108	21873
848.244	21823
848.379	21523
848.515	21534
848.65	21564
848.786	21762
848.921	21523
849.057	21679
849.192	21732
849.328	21637
849.463	21629
849.598	21504
849.734	21389
849.869	21340
850.004	21230
850.14	21317
850.275	21370
850.41	21336
850.545	21321
850.68	21203
850.815	21450
850.95	21310
851.085	21393
851.22	21424
851.355	21363
851.49	21340
851.625	21329
851.76	21348
851.895	21298
852.03	21256
852.165	21306
852.299	21336
852.434	21325
852.569	21233
852.703	21291
852.838	21344
852.973	21428
853.107	21477
853.242	21325
853.376	21146
853.511	20998
853.645	21161
853.78	21211
853.914	21169
854.048	21157
854.183	21116
854.317	21192
854.451	21355
854.585	21096
854.72	21047
854.854	21226
854.988	21203
855.122	21119
855.256	21066
855.39	21150
855.524	21154
855.658	21157
855.792	21142
855.926	21241
856.06	21157
856.194	21226
856.327	21119
856.461	21112
856.595	21066
856.729	21066
856.862	21302
856.996	21268
857.13	21199
857.263	21329
857.397	21188
857.53	21233
857.664	21085
857.797	21169
857.931	21214
858.064	21233
858.197	21283
858.331	21096
858.464	21207
858.597	20880
858.731	21062
858.864	21089
858.997	21108
859.13	21085
859.263	21005
859.396	21252
859.529	21131
859.662	21294
859.795	21051
859.928	21108
860.061	21241
860.194	21401
860.327	21165
860.46	21051
860.592	21211
860.725	21310
860.858	21321
860.99	21207
861.123	20971
861.256	21131
861.388	21104
861.521	21793
861.653	21017
861.786	20819
861.918	20975
862.05	20883
862.183	21024
862.315	21135
862.447	21195
862.58	21096
862.712	20750
862.844	20906
862.976	20986
863.108	20891
863.24	21214
863.372	20819
863.504	20815
863.636	20830
863.768	20910
863.9	20887
864.032	20868
864.164	20796
864.296	20834
864.428	20921
864.559	20918
864.691	20944
864.823	20899
864.954	20785
865.086	20895
865.217	20807
865.349	20693
865.48	20724
865.612	20693
865.743	20895
865.875	20754
866.006	20560
866.137	20769
866.269	20800
866.4	20667
866.531	20648
866.662	20632
866.793	20587
866.924	20686
867.055	20674
867.186	20583
867.317	20629
867.448	20613
867.579	20727
867.71	20724
867.841	20632
867.972	20598
868.103	20716
868.233	20750
868.364	20883
868.495	20762
868.625	20880
868.756	21047
868.886	20773
869.017	20925
869.147	20998
869.278	21089
869.408	20963
869.539	20819
869.669	20880
869.799	20971
869.929	20929
870.06	20994
870.19	21211
870.32	21275
870.45	21382
870.58	21321
870.71	21351
870.84	21485
870.97	21279
871.1	21260
871.23	21538
871.36	21500
871.489	21428
871.619	21523
871.749	21496
871.879	21557
872.008	21553
872.138	21523
872.267	21458
872.397	21245
872.526	21382
872.656	21294
872.785	21222
872.915	21534
873.044	21564
873.173	21481
873.303	21641
873.432	21557
873.561	21679
873.69	21443
873.819	21412
873.948	21747
874.077	21526
874.206	21523
874.335	21530
874.464	21641
874.593	21751
874.722	21671
874.851	21686
874.979	21766
875.108	21751
875.237	21774
875.365	21568
875.494	21690
875.623	21774
875.751	21766
875.88	21850
876.008	21949
876.136	21911
876.265	22219
876.393	22356
876.521	22257
876.65	22337
876.778	22207
876.906	22131
877.034	22086
877.162	22147
877.29	22147
877.418	22124
877.546	22169
877.674	22162
877.802	22105
877.93	22200
878.058	22105
878.185	22040
878.313	22021
878.441	22044
878.568	21918
878.696	22025
878.824	22177
878.951	22196
879.079	22154
879.206	22382
879.333	22249
879.461	22097
879.588	22268
879.715	22291
879.842	22333
879.97	22166
880.097	21991
880.224	22006
880.351	22086
880.478	21911
880.605	21991
880.732	21945
880.859	22147
880.986	21937
881.112	22010
881.239	21705
881.366	21682
881.493	21610
881.619	21526
881.746	21610
881.872	21504
881.999	21515
882.125	21382
882.252	21637
882.378	21428
882.505	21561
882.631	21272
882.757	21245
882.883	21393
883.01	21184
883.136	21169
883.262	21207
883.388	20979
883.514	21218
883.64	21195
883.766	21188
883.892	20918
884.018	20982
884.143	21119
884.269	21142
884.395	20956
884.52	20826
884.646	20872
884.772	20796
884.897	20765
885.023	20887
885.148	20891
885.274	20975
885.399	20937
885.524	20880
885.65	20963
885.775	20902
885.9	20708
886.025	21005
886.15	20906
886.275	20807
886.4	20743
886.525	20796
886.65	20845
886.775	20785
886.9	20876
887.025	20952
887.149	20743
887.274	20727
887.399	20522
887.523	20731
887.648	20655
887.773	20617
887.897	20708
888.021	20667
888.146	20476
888.27	20629
888.395	20708
888.519	20621
888.643	20697
888.767	20678
888.891	20492
889.015	20431
889.139	20484
889.263	20275
889.387	20594
889.511	20545
889.635	20556
889.759	20370
889.883	20389
890.006	20419
890.13	20396
890.254	20347
890.377	20355
890.501	20244
890.624	20161
890.748	20259
890.871	19993
890.995	19944
891.118	19902
891.241	20107
891.364	20031
891.488	20138
891.611	19993
891.734	19898
891.857	20054
891.98	20024
892.103	20001
892.226	19959
892.349	20008
892.471	19814
892.594	19864
892.717	20005
892.839	20001
892.962	19898
893.085	19909
893.207	19830
893.33	19837
893.452	19780
893.575	19868
893.697	19925
893.819	19970
893.941	20134
894.064	20024
894.186	19944
894.308	19906
894.43	20031
894.552	20008
894.674	19978
894.796	19837
894.918	19940
895.04	19925
895.161	19993
895.283	19947
895.405	19788
895.526	19940
895.648	19947
895.769	19902
895.891	19970
896.012	19963
896.134	19982
896.255	19791
896.376	19986
896.498	19814
896.619	19940
896.74	19849
896.861	19902
896.982	20259
897.103	20389
897.224	20138
897.345	20107
897.466	20027
897.587	20202
897.708	20240
897.828	20199
897.949	20107
898.07	20077
898.19	20096
898.311	20180
898.431	20138
898.552	20187
898.672	20278
898.792	20309
898.913	20199
899.033	19993
899.153	20027
899.273	19780
899.393	19997
899.513	19814
899.633	19963
899.753	19947
899.873	19849
899.993	20050
900.113	19837
900.232	19906
900.352	19761
900.472	19761
900.591	19700
900.711	19799
900.83	19757
900.95	19784
901.069	19776
901.189	19651
901.308	19381
901.427	19221
901.546	19152
901.665	19362
901.784	19236
901.904	19148
902.023	19148
902.141	18905
902.26	18825
902.379	18943
902.498	18707
902.617	18806
902.735	18764
902.854	18703
902.973	18722
903.091	18540
903.21	18467
903.328	18559
903.446	18422
903.565	18330
903.683	18273
903.801	18144
903.919	18395
904.038	18235
904.156	18019
904.274	18186
904.392	17950
904.51	18003
904.627	18041
904.745	18034
904.863	18155
904.981	17946
905.098	17741
905.216	17676
905.334	17779
905.451	17748
905.569	17646
905.686	17745
905.803	17783
905.921	17528
906.038	17661
906.155	17543
906.272	17368
906.389	17414
906.506	17280
906.623	17223
906.74	17421
906.857	17071
906.974	17280
907.091	17269
907.208	17330
907.324	17265
907.441	17166
907.557	16999
907.674	17010
907.79	16980
907.907	16904
908.023	17079
908.139	16927
908.256	16873
908.372	16816
908.488	16930
908.604	16691
908.72	16664
908.836	16679
908.952	16615
909.068	16660
909.184	16721
909.3	16744
909.415	16771
909.531	16672
909.647	16360
909.762	16382
909.878	16371
909.993	16421
910.108	16318
910.224	16303
910.339	16382
910.454	16158
910.57	16265
910.685	16177
910.8	16443
910.915	16303
911.03	16200
911.145	15960
911.259	16021
911.374	15979
911.489	15899
911.604	15911
911.718	15648
911.833	15789
911.947	15610
912.062	15485
912.176	15720
912.291	15823
912.405	15656
912.519	15774
912.633	15903
912.748	15682
912.862	15705
912.976	15606
913.09	15572
913.204	15530
913.318	15595
913.431	15644
913.545	15667
913.659	15614
913.772	15538
913.886	15416
914	15378
914.113	15473
914.226	15481
914.34	15507
914.453	15306
914.566	15386
914.68	15226
914.793	15218
914.906	15047
915.019	14960
915.132	14906
915.245	14952
915.358	14986
915.47	14918
915.583	14864
915.696	14982
915.809	15036
915.921	15032
916.034	14925
916.146	14880
916.259	14887
916.371	14952
916.483	14929
916.595	14804
916.708	14781
916.82	14777
916.932	14743
917.044	14762
917.156	14716
917.268	14625
917.38	14621
917.491	14651
917.603	14686
917.715	14648
917.826	14762
917.938	14621
918.049	14473
918.161	14556
918.272	14659
918.384	14663
918.495	14610
918.606	14385
918.717	14370
918.828	14480
918.939	14423
919.05	14328
919.161	14393
919.272	14145
919.383	14244
919.494	14389
919.604	14610
919.715	14385
919.826	14343
919.936	14324
920.047	14495
920.157	14355
920.267	14446
920.378	14336
920.488	14415
920.598	14522
920.708	14708
920.818	14400
920.928	14457
921.038	14648
921.148	14564
921.258	14282
921.368	14286
921.477	14172
921.587	14039
921.697	13955
921.806	13997
921.916	13959
922.025	13811
922.134	13769
922.244	13715
922.353	13814
922.462	13639
922.571	13601
922.68	13312
922.789	13381
922.898	13438
923.007	13388
923.116	13365
923.224	13396
923.333	13426
923.442	13240
923.55	13343
923.659	13282
923.767	13228
923.876	13152
923.984	13297
924.092	13152
924.201	13084
924.309	13187
924.417	13198
924.525	13061
924.633	13057
924.741	13849
924.849	12894
924.956	13023
925.064	12905
925.172	12817
925.279	12738
925.387	12814
925.494	12776
925.602	12913
925.709	12821
925.816	12711
925.924	12779
926.031	12875
926.138	12730
926.245	12806
926.352	12783
926.459	12829
926.566	12894
926.673	12814
926.779	12589
926.886	12593
926.993	12464
927.099	12388
927.206	12388
927.312	12304
927.419	12426
927.525	12372
927.631	12471
927.737	12251
927.843	12182
927.95	12133
928.056	12224
928.162	12182
928.267	12262
928.373	12897
928.479	12304
928.585	12114
928.69	12125
928.796	12178
928.901	12106
929.007	11920
929.112	12038
929.218	12068
929.323	12007
929.428	11863
929.533	12022
929.638	11882
929.743	11901
929.848	11893
929.953	11863
930.058	11794
930.163	11554
930.267	11619
930.372	11817
930.477	11585
930.581	11851
930.685	11703
930.79	11512
930.894	11528
930.998	11558
931.103	11619
931.207	11258
931.311	11246
931.415	11033
931.519	10980
931.623	10896
