Data from test_V78500241_1224.txt Node
Date: Fri Mar 25 15:18:22 CST 2022
User: usil
Spectrometer: V785-0024
Trigger mode: 0
Integration Time (sec): 4.000000E-1
Scans to average: 1
Nonlinearity correction enabled: false
Boxcar width: 0
Storing dark spectrum: false
XAxis mode: Wavelengths
Number of Pixels in Spectrum: 1024
>>>>>Begin Spectral Data<<<<<
801.071	28219
801.214	28082
801.356	27808
801.499	27747
801.641	27759
801.783	27728
801.926	27816
802.068	27770
802.211	27545
802.353	27603
802.496	27351
802.638	27447
802.78	27363
802.923	27230
803.065	27340
803.208	27321
803.35	27431
803.492	27469
803.635	27637
803.777	27401
803.919	27488
804.061	27816
804.204	27610
804.346	27526
804.488	27397
804.63	27492
804.773	27553
804.915	27599
805.057	27747
805.199	27641
805.341	27743
805.483	27736
805.626	27656
805.768	27599
805.91	27656
806.052	27694
806.194	27591
806.336	27812
806.478	27671
806.62	27732
806.762	27907
806.904	27876
807.046	28257
807.188	28093
807.33	28055
807.472	28181
807.614	28173
807.756	28116
807.898	27926
808.04	27888
808.182	27922
808.324	27975
808.465	28025
808.607	28177
808.749	28150
808.891	28512
809.033	28455
809.174	28352
809.316	28299
809.458	28314
809.6	28322
809.741	28478
809.883	28535
810.025	28668
810.166	28736
810.308	28679
810.45	28588
810.591	28459
810.733	28314
810.875	28344
811.016	28226
811.158	28253
811.299	28421
811.441	28561
811.582	28550
811.724	28459
811.865	28360
812.007	28379
812.148	28500
812.29	28325
812.431	28512
812.573	28660
812.714	28915
812.855	28911
812.997	28881
813.138	29029
813.279	29048
813.421	28927
813.562	28839
813.703	28656
813.845	28687
813.986	28291
814.127	28017
814.268	28124
814.41	28120
814.551	28116
814.692	28010
814.833	28063
814.974	27964
815.115	28120
815.256	28017
815.397	27892
815.539	27907
815.68	27804
815.821	27789
815.962	27876
816.103	27838
816.244	27770
816.385	27648
816.526	27641
816.666	27462
816.807	27336
816.948	27504
817.089	27488
817.23	27534
817.371	27389
817.512	27447
817.653	27317
817.793	27340
817.934	27424
818.075	27420
818.216	27408
818.356	27317
818.497	27389
818.638	27036
818.778	27081
818.919	27135
819.06	27218
819.2	27302
819.341	27367
819.481	27370
819.622	27416
819.762	27739
819.903	27679
820.043	27644
820.184	27526
820.324	27443
820.465	27694
820.605	27583
820.746	27386
820.886	27393
821.026	27511
821.167	27564
821.307	27542
821.447	27466
821.588	27306
821.728	27161
821.868	27005
822.008	27017
822.149	26876
822.289	26830
822.429	26625
822.569	26522
822.709	26522
822.849	26351
822.99	26355
823.13	26206
823.27	26336
823.41	26256
823.55	26317
823.69	26282
823.83	26229
823.97	26111
824.11	26012
824.25	25978
824.389	26100
824.529	26126
824.669	25909
824.809	26134
824.949	26088
825.089	26100
825.228	25982
825.368	25906
825.508	25966
825.648	25902
825.787	25917
825.927	25951
826.067	25860
826.206	25906
826.346	25887
826.485	25887
826.625	25879
826.765	26062
826.904	25925
827.044	25662
827.183	25639
827.323	25594
827.462	25548
827.601	25578
827.741	25628
827.88	25632
828.02	25510
828.159	25613
828.298	25658
828.437	25666
828.577	25544
828.716	25757
828.855	25571
828.994	25297
829.134	25270
829.273	25331
829.412	25335
829.551	25308
829.69	25434
829.829	25259
829.968	25533
830.107	25449
830.246	25339
830.385	25259
830.524	25240
830.663	25198
830.802	25088
830.941	24970
831.08	24958
831.219	25095
831.357	25088
831.496	25206
831.635	25012
831.774	24867
831.913	24825
832.051	24791
832.19	24768
832.329	24726
832.467	24612
832.606	24525
832.744	24658
832.883	24673
833.022	24627
833.16	24502
833.299	24776
833.437	24688
833.576	24681
833.714	24646
833.852	24673
833.991	24745
834.129	24734
834.267	24783
834.406	24696
834.544	24639
834.682	24646
834.821	24623
834.959	24829
835.097	24715
835.235	24825
835.373	24654
835.511	24650
835.65	24505
835.788	24483
835.926	24365
836.064	24372
836.202	24410
836.34	24547
836.478	24677
836.615	24475
836.753	24486
836.891	24639
837.029	24612
837.167	24479
837.305	24467
837.443	24372
837.58	24338
837.718	24445
837.856	24475
837.993	24311
838.131	24308
838.269	24235
838.406	24273
838.544	24209
838.681	23961
838.819	24076
838.956	23916
839.094	23847
839.231	23885
839.369	23916
839.506	24174
839.643	24003
839.781	23969
839.918	23809
840.055	23764
840.193	23748
840.33	23794
840.467	23794
840.604	23676
840.742	23904
840.879	23596
841.016	23608
841.153	23634
841.29	23783
841.427	23809
841.564	23703
841.701	23756
841.838	23718
841.975	23589
842.112	23611
842.249	23486
842.385	23585
842.522	23718
842.659	23604
842.796	23459
842.933	23554
843.069	23486
843.206	23387
843.343	23524
843.479	23406
843.616	23531
843.752	23417
843.889	23341
844.025	23497
844.162	23258
844.298	23170
844.435	23212
844.571	23227
844.708	23417
844.844	23345
844.98	23398
845.117	23318
845.253	23223
845.389	23090
845.525	23284
845.661	23162
845.798	22953
845.934	23090
846.07	22873
846.206	22946
846.342	23041
846.478	23018
846.614	22812
846.75	22618
846.886	22786
847.022	22763
847.158	22869
847.294	22771
847.429	22778
847.565	22805
847.701	22858
847.837	22542
847.972	22440
848.108	22421
848.244	22611
848.379	22337
848.515	22443
848.65	22295
848.786	22405
848.921	22287
849.057	22352
849.192	22379
849.328	22409
849.463	22367
849.598	22303
849.734	22044
849.869	22143
850.004	22196
850.14	22162
850.275	22150
850.41	22006
850.545	22074
850.68	22036
850.815	22051
850.95	22116
851.085	22299
851.22	22242
851.355	22044
851.49	22055
851.625	22109
851.76	22101
851.895	21892
852.03	22109
852.165	22169
852.299	22097
852.434	22280
852.569	22082
852.703	22234
852.838	22211
852.973	22219
853.107	22230
853.242	22131
853.376	21884
853.511	21766
853.645	21899
853.78	22078
853.914	22025
854.048	21930
854.183	21899
854.317	21869
854.451	21979
854.585	21888
854.72	21873
854.854	22010
854.988	21781
855.122	21876
855.256	21842
855.39	21930
855.524	21987
855.658	21884
855.792	21926
855.926	21998
856.06	21987
856.194	21972
856.327	21880
856.461	21698
856.595	21823
856.729	21991
856.862	21956
856.996	21998
857.13	22002
857.263	22021
857.397	21949
857.53	21869
857.664	22006
857.797	21949
857.931	21994
858.064	22063
858.197	22006
858.331	21972
858.464	21846
858.597	21956
858.731	21876
858.864	21812
858.997	21903
859.13	21930
859.263	21888
859.396	21972
859.529	21861
859.662	21873
859.795	21789
859.928	21876
860.061	22013
860.194	22120
860.327	21994
860.46	21975
860.592	22055
860.725	22070
860.858	22025
860.99	21975
861.123	21888
861.256	21880
861.388	21899
861.521	22592
861.653	21778
861.786	21838
861.918	21717
862.05	21720
862.183	21895
862.315	21846
862.447	21983
862.58	21804
862.712	21682
862.844	21511
862.976	21709
863.108	21762
863.24	21987
863.372	21572
863.504	21622
863.636	21686
863.768	21724
863.9	21701
864.032	21610
864.164	21603
864.296	21549
864.428	21686
864.559	21701
864.691	21713
864.823	21633
864.954	21614
865.086	21595
865.217	21466
865.349	21488
865.48	21572
865.612	21485
865.743	21576
865.875	21504
866.006	21542
866.137	21481
866.269	21397
866.4	21496
866.531	21504
866.662	21420
866.793	21367
866.924	21511
867.055	21469
867.186	21405
867.317	21378
867.448	21348
867.579	21378
867.71	21329
867.841	21412
867.972	21485
868.103	21408
868.233	21408
868.364	21412
868.495	21481
868.625	21690
868.756	21922
868.886	21618
869.017	21622
869.147	21880
869.278	21751
869.408	21789
869.539	21583
869.669	21789
869.799	21812
869.929	21701
870.06	21766
870.19	22086
870.32	22036
870.45	22090
870.58	22025
870.71	22139
870.84	22120
870.97	22147
871.1	22109
871.23	22242
871.36	22253
871.489	22204
871.619	22276
871.749	22246
871.879	22261
872.008	22280
872.138	22211
872.267	22166
872.397	22177
872.526	22097
872.656	22078
872.785	22116
872.915	22303
873.044	22314
873.173	22211
873.303	22363
873.432	22337
873.561	22272
873.69	22238
873.819	22246
873.948	22405
874.077	22329
874.206	22363
874.335	22325
874.464	22371
874.593	22523
874.722	22497
874.851	22516
874.979	22527
875.108	22508
875.237	22421
875.365	22474
875.494	22478
875.623	22516
875.751	22432
875.88	22497
876.008	22588
876.136	22694
876.265	22881
876.393	22873
876.521	22866
876.65	22892
876.778	22889
876.906	22831
877.034	22816
877.162	22805
877.29	22824
877.418	22816
877.546	22801
877.674	22881
877.802	22812
877.93	22820
878.058	22809
878.185	22694
878.313	22759
878.441	22717
878.568	22611
878.696	22927
878.824	22831
878.951	23022
879.079	23128
879.206	23079
879.333	22934
879.461	22755
879.588	22934
879.715	22995
879.842	23132
879.97	22957
880.097	22675
880.224	22641
880.351	22733
880.478	22748
880.605	22672
880.732	22649
880.859	22892
880.986	22698
881.112	22839
881.239	22607
881.366	22413
881.493	22310
881.619	22287
881.746	22276
881.872	22154
881.999	22070
882.125	22188
882.252	22204
882.378	22249
882.505	22310
882.631	22162
882.757	21953
882.883	22082
883.01	21895
883.136	21918
883.262	21728
883.388	21819
883.514	21892
883.64	21953
883.766	21759
883.892	21770
884.018	21690
884.143	21842
884.269	21926
884.395	21747
884.52	21618
884.646	21473
884.772	21530
884.897	21450
885.023	21523
885.148	21648
885.274	21671
885.399	21663
885.524	21488
885.65	21515
885.775	21641
885.9	21469
886.025	21690
886.15	21641
886.275	21526
886.4	21538
886.525	21496
886.65	21447
886.775	21496
886.9	21603
887.025	21709
887.149	21542
887.274	21435
887.399	21321
887.523	21310
887.648	21245
887.773	21184
887.897	21317
888.021	21367
888.146	21154
888.27	21340
888.395	21355
888.519	21344
888.643	21378
888.767	21389
888.891	21245
889.015	21077
889.139	21146
889.263	21116
889.387	21154
889.511	21268
889.635	21222
889.759	21001
889.883	21127
890.006	21142
890.13	21131
890.254	21043
890.377	21184
890.501	20948
890.624	20781
890.748	20861
890.871	20773
890.995	20598
891.118	20659
891.241	20598
891.364	20712
891.488	20861
891.611	20674
891.734	20705
891.857	20674
891.98	20697
892.103	20659
892.226	20720
892.349	20609
892.471	20454
892.594	20659
892.717	20488
892.839	20598
892.962	20571
893.085	20613
893.207	20613
893.33	20412
893.452	20530
893.575	20693
893.697	20568
893.819	20644
893.941	20743
894.064	20602
894.186	20412
894.308	20492
894.43	20705
894.552	20594
894.674	20594
894.796	20492
894.918	20503
895.04	20609
895.161	20659
895.283	20575
895.405	20469
895.526	20606
895.648	20434
895.769	20575
895.891	20511
896.012	20663
896.134	20686
896.255	20648
896.376	20454
896.498	20533
896.619	20613
896.74	20552
896.861	20716
896.982	20815
897.103	21047
897.224	20925
897.345	20720
897.466	20648
897.587	20880
897.708	20921
897.828	20777
897.949	20697
898.07	20609
898.19	20727
898.311	20800
898.431	20587
898.552	20735
898.672	20872
898.792	20762
898.913	20746
899.033	20549
899.153	20461
899.273	20442
899.393	20541
899.513	20556
899.633	20438
899.753	20450
899.873	20412
899.993	20526
900.113	20450
900.232	20336
900.352	20305
900.472	20252
900.591	20290
900.711	20362
900.83	20305
900.95	20400
901.069	20427
901.189	20073
901.308	19944
901.427	19811
901.546	19830
901.665	19879
901.784	19791
901.904	19734
902.023	19696
902.141	19434
902.26	19350
902.379	19441
902.498	19358
902.617	19426
902.735	19396
902.854	19400
902.973	19247
903.091	19072
903.21	19072
903.328	19008
903.446	18973
903.565	18715
903.683	18886
903.801	18749
903.919	18749
904.038	18833
904.156	18589
904.274	18646
904.392	18509
904.51	18566
904.627	18502
904.745	18684
904.863	18547
904.981	18426
905.098	18353
905.216	18247
905.334	18304
905.451	18319
905.569	18220
905.686	18338
905.803	18194
905.921	18041
906.038	18110
906.155	18068
906.272	17965
906.389	17939
906.506	17840
906.623	17866
906.74	17870
906.857	17623
906.974	17668
907.091	17798
907.208	17927
907.324	17813
907.441	17783
907.557	17589
907.674	17535
907.79	17577
907.907	17383
908.023	17490
908.139	17585
908.256	17509
908.372	17299
908.488	17452
908.604	17261
908.72	17204
908.836	17235
908.952	17239
909.068	17159
909.184	17231
909.3	17181
909.415	17132
909.531	17132
909.647	17037
909.762	17003
909.878	17003
909.993	16877
910.108	16927
910.224	16854
910.339	16904
910.454	16767
910.57	16748
910.685	16649
910.8	16968
910.915	16733
911.03	16660
911.145	16554
911.259	16531
911.374	16508
911.489	16462
911.604	16295
911.718	16158
911.833	16287
911.947	16177
912.062	16090
912.176	16303
912.291	16318
912.405	16234
912.519	16405
912.633	16443
912.748	16306
912.862	16173
912.976	16120
913.09	15987
913.204	16040
913.318	16109
913.431	16211
913.545	16086
913.659	16177
913.772	16059
913.886	15953
914	15880
914.113	15903
914.226	16017
914.34	15964
914.453	15724
914.566	15797
914.68	15781
914.793	15686
914.906	15534
915.019	15329
915.132	15374
915.245	15481
915.358	15454
915.47	15351
915.583	15435
915.696	15389
915.809	15606
915.921	15591
916.034	15401
916.146	15344
916.259	15287
916.371	15344
916.483	15424
916.595	15252
916.708	15291
916.82	15199
916.932	15321
917.044	15249
917.156	15104
917.268	15085
917.38	15207
917.491	15036
917.603	15066
917.715	15188
917.826	15112
917.938	15043
918.049	14967
918.161	15013
918.272	15032
918.384	15184
918.495	15009
918.606	14952
918.717	14758
918.828	14872
918.939	14910
919.05	14800
919.161	14861
919.272	14617
919.383	14682
919.494	14921
919.604	14979
919.715	14857
919.826	14720
919.936	14819
920.047	14758
920.157	14811
920.267	14994
920.378	14804
920.488	14678
920.598	15024
920.708	15005
920.818	14952
920.928	14868
921.038	15135
921.148	15024
921.258	14788
921.368	14693
921.477	14518
921.587	14571
921.697	14370
921.806	14511
921.916	14355
922.025	14252
922.134	14180
922.244	14161
922.353	14077
922.462	13955
922.571	13959
922.68	13734
922.789	13868
922.898	13906
923.007	13677
923.116	13765
923.224	13746
923.333	13731
923.442	13681
923.55	13609
923.659	13666
923.767	13647
923.876	13415
923.984	13609
924.092	13445
924.201	13590
924.309	13476
924.417	13559
924.525	13365
924.633	13506
924.741	14195
924.849	13293
924.956	13419
925.064	13312
925.172	13209
925.279	13137
925.387	13285
925.494	13187
925.602	13346
925.709	13320
925.816	13171
925.924	13247
926.031	13168
926.138	13137
926.245	13251
926.352	13076
926.459	13114
926.566	13168
926.673	13088
926.779	12928
926.886	12973
926.993	12760
927.099	12783
927.206	12726
927.312	12703
927.419	12802
927.525	12806
927.631	12798
927.737	12711
927.843	12582
927.95	12471
928.056	12563
928.162	12620
928.267	12620
928.373	13072
928.479	12570
928.585	12380
928.69	12525
928.796	12513
928.901	12353
929.007	12277
929.112	12578
929.218	12357
929.323	12357
929.428	12327
929.533	12384
929.638	12228
929.743	12300
929.848	12216
929.953	12247
930.058	12171
930.163	11908
930.267	12087
930.372	12038
930.477	11946
930.581	12197
930.685	12083
930.79	11843
930.894	11813
930.998	11813
931.103	11946
931.207	11558
931.311	11471
931.415	11448
931.519	11216
931.623	11250
