Data from test_V78500241_1629.txt Node
Date: Fri Mar 25 15:21:11 CST 2022
User: usil
Spectrometer: V785-0024
Trigger mode: 0
Integration Time (sec): 4.000000E-1
Scans to average: 1
Nonlinearity correction enabled: false
Boxcar width: 0
Storing dark spectrum: false
XAxis mode: Wavelengths
Number of Pixels in Spectrum: 1024
>>>>>Begin Spectral Data<<<<<
801.071	27880
801.214	27873
801.356	27583
801.499	27439
801.641	27504
801.783	27435
801.926	27496
802.068	27367
802.211	27294
802.353	27294
802.496	27127
802.638	27173
802.78	27100
802.923	27051
803.065	27039
803.208	27146
803.35	27077
803.492	27222
803.635	27245
803.777	27272
803.919	27374
804.061	27523
804.204	27321
804.346	27112
804.488	27302
804.63	27443
804.773	27214
804.915	27272
805.057	27367
805.199	27226
805.341	27348
805.483	27386
805.626	27405
805.768	27272
805.91	27538
806.052	27310
806.194	27424
806.336	27709
806.478	27500
806.62	27526
806.762	27568
806.904	27545
807.046	28086
807.188	27682
807.33	27846
807.472	27953
807.614	27812
807.756	27895
807.898	27789
808.04	27557
808.182	27667
808.324	27774
808.465	27789
808.607	27861
808.749	28044
808.891	28044
809.033	28059
809.174	28044
809.316	28029
809.458	28036
809.6	28032
809.741	28120
809.883	28139
810.025	28337
810.166	28276
810.308	28344
810.45	28280
810.591	28219
810.733	28036
810.875	28044
811.016	27960
811.158	27888
811.299	28051
811.441	28158
811.582	28177
811.724	28010
811.865	27956
812.007	27945
812.148	28025
812.29	28055
812.431	28253
812.573	28401
812.714	28622
812.855	28485
812.997	28641
813.138	28835
813.279	28767
813.421	28672
813.562	28542
813.703	28299
813.845	28276
813.986	27953
814.127	27819
814.268	27762
814.41	27671
814.551	27656
814.692	27854
814.833	27797
814.974	27660
815.115	27793
815.256	27507
815.397	27545
815.539	27739
815.68	27606
815.821	27424
815.962	27504
816.103	27462
816.244	27374
816.385	27386
816.526	27268
816.666	27066
816.807	27096
816.948	27036
817.089	27283
817.23	26948
817.371	26998
817.512	26990
817.653	27001
817.793	26899
817.934	26971
818.075	26998
818.216	27112
818.356	27066
818.497	26868
818.638	26629
818.778	26861
818.919	26735
819.06	26762
819.2	26948
819.341	26990
819.481	26982
819.622	27203
819.762	27283
819.903	27237
820.043	27294
820.184	27211
820.324	27108
820.465	27203
820.605	27173
820.746	27146
820.886	27036
821.026	27001
821.167	27058
821.307	27233
821.447	26883
821.588	26914
821.728	26906
821.868	26750
822.008	26503
822.149	26511
822.289	26575
822.429	26229
822.569	26256
822.709	26275
822.849	26035
822.99	25986
823.13	25951
823.27	25936
823.41	25753
823.55	25761
823.69	25936
823.83	25784
823.97	25902
824.11	25578
824.25	25556
824.389	25761
824.529	25696
824.669	25586
824.809	25731
824.949	25799
825.089	25879
825.228	25666
825.368	25696
825.508	25350
825.648	25514
825.787	25571
825.927	25567
826.067	25468
826.206	25525
826.346	25499
826.485	25635
826.625	25613
826.765	25761
826.904	25533
827.044	25213
827.183	25392
827.323	25266
827.462	25263
827.601	25213
827.741	25255
827.88	25232
828.02	25198
828.159	25289
828.298	25236
828.437	25343
828.577	25209
828.716	25324
828.855	25038
828.994	25004
829.134	24992
829.273	24890
829.412	24951
829.551	24848
829.69	24897
829.829	25000
829.968	25042
830.107	25042
830.246	24970
830.385	24943
830.524	24913
830.663	24802
830.802	24585
830.941	24612
831.08	24490
831.219	24585
831.357	24658
831.496	24833
831.635	24639
831.774	24498
831.913	24388
832.051	24292
832.19	24350
832.329	24323
832.467	24372
832.606	24281
832.744	24060
832.883	24235
833.022	24205
833.16	24251
833.299	24369
833.437	24311
833.576	24338
833.714	24353
833.852	24346
833.991	24346
834.129	24380
834.267	24445
834.406	24251
834.544	24391
834.682	24304
834.821	24357
834.959	24555
835.097	24148
835.235	24334
835.373	24239
835.511	24342
835.65	24163
835.788	24163
835.926	24053
836.064	23950
836.202	24022
836.34	24018
836.478	24205
836.615	24049
836.753	24121
836.891	24038
837.029	24106
837.167	24136
837.305	23977
837.443	24022
837.58	23840
837.718	24091
837.856	24011
837.993	24022
838.131	23882
838.269	23840
838.406	23889
838.544	23821
838.681	23687
838.819	23524
838.956	23349
839.094	23383
839.231	23463
839.369	23577
839.506	23786
839.643	23710
839.781	23398
839.918	23326
840.055	23501
840.193	23379
840.33	23337
840.467	23345
840.604	23493
840.742	23699
840.879	23208
841.016	23315
841.153	23231
841.29	23463
841.427	23303
841.564	23410
841.701	23322
841.838	23296
841.975	23246
842.112	23356
842.249	23235
842.385	23090
842.522	23242
842.659	23166
842.796	23181
842.933	22987
843.069	23079
843.206	22999
843.343	23064
843.479	23235
843.616	23155
843.752	22904
843.889	22923
844.025	23109
844.162	22816
844.298	22942
844.435	22904
844.571	22866
844.708	22843
844.844	23121
844.98	23048
845.117	22904
845.253	22698
845.389	22717
845.525	22774
845.661	22786
845.798	22550
845.934	22740
846.07	22516
846.206	22733
846.342	22805
846.478	22531
846.614	22363
846.75	22382
846.886	22333
847.022	22276
847.158	22299
847.294	22451
847.429	22356
847.565	22402
847.701	22607
847.837	22086
847.972	22002
848.108	22234
848.244	22204
848.379	22048
848.515	22017
848.65	21964
848.786	21915
848.921	21888
849.057	21979
849.192	22036
849.328	21903
849.463	21930
849.598	21960
849.734	21827
849.869	21770
850.004	21770
850.14	21679
850.275	21720
850.41	21603
850.545	21625
850.68	21747
850.815	21663
850.95	21808
851.085	22002
851.22	21762
851.355	21713
851.49	21660
851.625	21652
851.76	21572
851.895	21701
852.03	21671
852.165	21625
852.299	21595
852.434	21728
852.569	21804
852.703	21694
852.838	21781
852.973	21861
853.107	21755
853.242	21614
853.376	21492
853.511	21336
853.645	21329
853.78	21595
853.914	21481
854.048	21454
854.183	21473
854.317	21553
854.451	21739
854.585	21504
854.72	21534
854.854	21660
854.988	21500
855.122	21580
855.256	21496
855.39	21519
855.524	21511
855.658	21447
855.792	21572
855.926	21420
856.06	21515
856.194	21504
856.327	21485
856.461	21507
856.595	21523
856.729	21435
856.862	21641
856.996	21504
857.13	21507
857.263	21469
857.397	21641
857.53	21526
857.664	21481
857.797	21504
857.931	21625
858.064	21519
858.197	21755
858.331	21477
858.464	21424
858.597	21370
858.731	21405
858.864	21458
858.997	21507
859.13	21564
859.263	21420
859.396	21652
859.529	21431
859.662	21469
859.795	21458
859.928	21549
860.061	21637
860.194	21770
860.327	21580
860.46	21466
860.592	21606
860.725	21793
860.858	21587
860.99	21469
861.123	21370
861.256	21359
861.388	21515
861.521	22226
861.653	21336
861.786	21264
861.918	21359
862.05	21340
862.183	21553
862.315	21405
862.447	21500
862.58	21306
862.712	21249
862.844	21291
862.976	21344
863.108	21252
863.24	21690
863.372	21192
863.504	21340
863.636	21207
863.768	21211
863.9	21237
864.032	21176
864.164	21256
864.296	21241
864.428	21389
864.559	21275
864.691	21386
864.823	21241
864.954	21173
865.086	21214
865.217	21138
865.349	21085
865.48	21062
865.612	21043
865.743	21256
865.875	21135
866.006	21028
866.137	21070
866.269	21138
866.4	21100
866.531	21127
866.662	21043
866.793	21013
866.924	21089
867.055	21165
867.186	21089
867.317	21138
867.448	20887
867.579	20990
867.71	21005
867.841	20933
867.972	21043
868.103	20982
868.233	21074
868.364	20952
868.495	21214
868.625	21230
868.756	21462
868.886	21264
869.017	21283
869.147	21431
869.278	21435
869.408	21279
869.539	21264
869.669	21363
869.799	21420
869.929	21298
870.06	21302
870.19	21542
870.32	21591
870.45	21553
870.58	21625
870.71	21797
870.84	21759
870.97	21652
871.1	21663
871.23	21876
871.36	21884
871.489	21736
871.619	21819
871.749	21812
871.879	21907
872.008	22109
872.138	21937
872.267	21930
872.397	21671
872.526	21713
872.656	21705
872.785	21663
872.915	21987
873.044	22044
873.173	21899
873.303	21926
873.432	21930
873.561	21998
873.69	21953
873.819	21903
873.948	21888
874.077	21895
874.206	21892
874.335	21934
874.464	22074
874.593	22185
874.722	21991
874.851	22040
874.979	22097
875.108	22124
875.237	22013
875.365	22074
875.494	22086
875.623	22207
875.751	22166
875.88	22162
876.008	22166
876.136	22185
876.265	22508
876.393	22641
876.521	22527
876.65	22508
876.778	22462
876.906	22531
877.034	22447
877.162	22611
877.29	22291
877.418	22493
877.546	22421
877.674	22432
877.802	22440
877.93	22421
878.058	22379
878.185	22367
878.313	22375
878.441	22481
878.568	22284
878.696	22382
878.824	22481
878.951	22398
879.079	22672
879.206	22713
879.333	22630
879.461	22497
879.588	22588
879.715	22546
879.842	22725
879.97	22512
880.097	22272
880.224	22337
880.351	22341
880.478	22382
880.605	22367
880.732	22257
880.859	22440
880.986	22310
881.112	22417
881.239	22135
881.366	21987
881.493	21949
881.619	21975
881.746	21789
881.872	21975
881.999	21808
882.125	21804
882.252	21823
882.378	21835
882.505	21762
882.631	21648
882.757	21580
882.883	21549
883.01	21682
883.136	21500
883.262	21439
883.388	21291
883.514	21591
883.64	21576
883.766	21420
883.892	21291
884.018	21329
884.143	21511
884.269	21500
884.395	21302
884.52	21104
884.646	21146
884.772	21199
884.897	21154
885.023	21169
885.148	21302
885.274	21336
885.399	21264
885.524	21108
885.65	21222
885.775	21233
885.9	21192
886.025	21283
886.15	21279
886.275	21131
886.4	21157
886.525	21146
886.65	21051
886.775	21116
886.9	21291
887.025	21458
887.149	21237
887.274	21001
887.399	20941
887.523	20906
887.648	20960
887.773	20876
887.897	20956
888.021	20937
888.146	20902
888.27	21066
888.395	20971
888.519	20979
888.643	21047
888.767	21043
888.891	20864
889.015	20743
889.139	20701
889.263	20655
889.387	20811
889.511	20887
889.635	20819
889.759	20800
889.883	20815
890.006	20727
890.13	20902
890.254	20724
890.377	20746
890.501	20537
890.624	20476
890.748	20663
890.871	20427
890.995	20218
891.118	20309
891.241	20339
891.364	20355
891.488	20480
891.611	20263
891.734	20252
891.857	20339
891.98	20317
892.103	20347
892.226	20351
892.349	20240
892.471	20077
892.594	20233
892.717	20248
892.839	20145
892.962	20206
893.085	20347
893.207	20218
893.33	20145
893.452	20092
893.575	20214
893.697	20096
893.819	20332
893.941	20385
894.064	20339
894.186	20187
894.308	20138
894.43	20233
894.552	20431
894.674	20275
894.796	20168
894.918	20218
895.04	20351
895.161	20305
895.283	20134
895.405	20214
895.526	20267
895.648	20096
895.769	20161
895.891	20271
896.012	20267
896.134	20164
896.255	20161
896.376	20278
896.498	20218
896.619	20153
896.74	20180
896.861	20286
896.982	20533
897.103	20724
897.224	20484
897.345	20362
897.466	20355
897.587	20465
897.708	20499
897.828	20507
897.949	20404
898.07	20157
898.19	20324
898.311	20434
898.431	20347
898.552	20473
898.672	20473
898.792	20339
898.913	20457
899.033	20324
899.153	20320
899.273	20130
899.393	20115
899.513	20290
899.633	20244
899.753	20301
899.873	20107
899.993	20214
900.113	20031
900.232	20153
900.352	20145
900.472	20008
900.591	19940
900.711	20081
900.83	19879
900.95	19997
901.069	20035
901.189	19913
901.308	19514
901.427	19537
901.546	19544
901.665	19548
901.784	19495
901.904	19483
902.023	19266
902.141	19171
902.26	19008
902.379	19171
902.498	19088
902.617	19088
902.735	19107
902.854	18977
902.973	18875
903.091	18681
903.21	18757
903.328	18745
903.446	18639
903.565	18570
903.683	18517
903.801	18410
903.919	18467
904.038	18433
904.156	18289
904.274	18311
904.392	18258
904.51	18266
904.627	18190
904.745	18380
904.863	18338
904.981	18026
905.098	17954
905.216	17908
905.334	18041
905.451	17977
905.569	17828
905.686	17996
905.803	17855
905.921	17855
906.038	17916
906.155	17821
906.272	17718
906.389	17589
906.506	17493
906.623	17486
906.74	17448
906.857	17322
906.974	17444
907.091	17611
907.208	17619
907.324	17459
907.441	17459
907.557	17204
907.674	17151
907.79	17105
907.907	17079
908.023	17288
908.139	17311
908.256	17143
908.372	17083
908.488	17109
908.604	16938
908.72	16923
908.836	16961
908.952	16915
909.068	16927
909.184	17018
909.3	16987
909.415	16923
909.531	16843
909.647	16713
909.762	16656
909.878	16622
909.993	16462
910.108	16603
910.224	16573
910.339	16577
910.454	16592
910.57	16478
910.685	16371
910.8	16550
910.915	16504
911.03	16451
911.145	16238
911.259	16135
911.374	16139
911.489	16002
911.604	16025
911.718	15972
911.833	16013
911.947	15903
912.062	15823
912.176	16010
912.291	15907
912.405	15873
912.519	16147
912.633	16150
912.748	15956
912.862	15915
912.976	15728
913.09	15709
913.204	15656
913.318	15819
913.431	15869
913.545	15941
913.659	15922
913.772	15739
913.886	15557
914	15637
914.113	15675
914.226	15800
914.34	15629
914.453	15382
914.566	15633
914.68	15397
914.793	15443
914.906	15161
915.019	15211
915.132	15173
915.245	15180
915.358	15089
915.47	15184
915.583	15237
915.696	15207
915.809	15211
915.921	15332
916.034	15074
916.146	15070
916.259	15081
916.371	15203
916.483	15138
916.595	15062
916.708	15104
916.82	15176
916.932	14956
917.044	14895
917.156	14857
917.268	14880
917.38	14842
917.491	14800
917.603	14944
917.715	14883
917.826	14914
917.938	14807
918.049	14792
918.161	14823
918.272	14868
918.384	14838
918.495	14636
918.606	14579
918.717	14598
918.828	14686
918.939	14632
919.05	14473
919.161	14621
919.272	14362
919.383	14465
919.494	14541
919.604	14842
919.715	14556
919.826	14507
919.936	14617
920.047	14716
920.157	14526
920.267	14682
920.378	14526
920.488	14575
920.598	14663
920.708	14880
920.818	14598
920.928	14689
921.038	14785
921.148	14792
921.258	14454
921.368	14473
921.477	14396
921.587	14202
921.697	14199
921.806	14351
921.916	14130
922.025	13967
922.134	13947
922.244	13917
922.353	13906
922.462	13742
922.571	13742
922.68	13502
922.789	13472
922.898	13613
923.007	13563
923.116	13502
923.224	13529
923.333	13460
923.442	13445
923.55	13335
923.659	13331
923.767	13472
923.876	13377
923.984	13407
924.092	13289
924.201	13373
924.309	13365
924.417	13320
924.525	13293
924.633	13213
924.741	14130
924.849	13095
924.956	13179
925.064	13053
925.172	13057
925.279	12939
925.387	13034
925.494	13008
925.602	13050
925.709	13019
925.816	12859
925.924	12878
926.031	13107
926.138	12924
926.245	12947
926.352	12821
926.459	13004
926.566	13027
926.673	12856
926.779	12734
926.886	12757
926.993	12544
927.099	12620
927.206	12559
927.312	12509
927.419	12578
927.525	12513
927.631	12593
927.737	12448
927.843	12403
927.95	12216
928.056	12395
928.162	12369
928.267	12479
928.373	12985
928.479	12418
928.585	12228
928.69	12243
928.796	12426
928.901	12262
929.007	12041
929.112	12235
929.218	12232
929.323	12152
929.428	11996
929.533	12262
929.638	12041
929.743	12026
929.848	12057
929.953	12003
930.058	11984
930.163	11855
930.267	11821
930.372	11904
930.477	11699
930.581	11969
930.685	11809
930.79	11714
930.894	11688
930.998	11695
931.103	11802
931.207	11459
931.311	11341
931.415	11235
931.519	10991
931.623	11010
