Data from test_V78500241_2397.txt Node
Date: Fri Mar 25 15:26:32 CST 2022
User: usil
Spectrometer: V785-0024
Trigger mode: 0
Integration Time (sec): 4.000000E-1
Scans to average: 1
Nonlinearity correction enabled: false
Boxcar width: 0
Storing dark spectrum: false
XAxis mode: Wavelengths
Number of Pixels in Spectrum: 1024
>>>>>Begin Spectral Data<<<<<
801.071	27203
801.214	27173
801.356	26804
801.499	26815
801.641	26602
801.783	26629
801.926	26735
802.068	26765
802.211	26602
802.353	26499
802.496	26400
802.638	26252
802.78	26343
802.923	26282
803.065	26157
803.208	26054
803.35	26263
803.492	26370
803.635	26507
803.777	26404
803.919	26488
804.061	26864
804.204	26693
804.346	26415
804.488	26294
804.63	26434
804.773	26393
804.915	26389
805.057	26438
805.199	26438
805.341	26552
805.483	26640
805.626	26518
805.768	26473
805.91	26400
806.052	26541
806.194	26495
806.336	26754
806.478	26659
806.62	26514
806.762	26667
806.904	26785
807.046	26895
807.188	27013
807.33	27032
807.472	26880
807.614	26807
807.756	26895
807.898	26819
808.04	26762
808.182	26857
808.324	26849
808.465	26944
808.607	26887
808.749	27104
808.891	27264
809.033	27469
809.174	27028
809.316	27074
809.458	27188
809.6	26956
809.741	27226
809.883	27249
810.025	27329
810.166	27332
810.308	27317
810.45	27272
810.591	27302
810.733	27169
810.875	27096
811.016	27032
811.158	27074
811.299	27104
811.441	27298
811.582	27169
811.724	27123
811.865	27112
812.007	27066
812.148	27104
812.29	27123
812.431	27211
812.573	27427
812.714	27694
812.855	27633
812.997	27671
813.138	27827
813.279	27747
813.421	27511
813.562	27553
813.703	27473
813.845	27306
813.986	27070
814.127	26948
814.268	26735
814.41	26792
814.551	26830
814.692	26948
814.833	26739
814.974	26693
815.115	26845
815.256	26609
815.397	26556
815.539	26594
815.68	26629
815.821	26514
815.962	26545
816.103	26446
816.244	26366
816.385	26351
816.526	26244
816.666	26195
816.807	26001
816.948	26180
817.089	26240
817.23	26054
817.371	26024
817.512	26016
817.653	25997
817.793	25913
817.934	25963
818.075	26103
818.216	26084
818.356	26065
818.497	25986
818.638	25689
818.778	25757
818.919	25788
819.06	25757
819.2	25887
819.341	26142
819.481	25902
819.622	26043
819.762	26355
819.903	26313
820.043	26191
820.184	26077
820.324	26008
820.465	26157
820.605	26176
820.746	25959
820.886	25909
821.026	26225
821.167	26088
821.307	26096
821.447	26081
821.588	25947
821.728	25940
821.868	25571
822.008	25563
822.149	25510
822.289	25552
822.429	25327
822.569	25145
822.709	25190
822.849	24962
822.99	24989
823.13	25031
823.27	24825
823.41	24844
823.55	24696
823.69	24821
823.83	24802
823.97	24764
824.11	24601
824.25	24521
824.389	24612
824.529	24768
824.669	24677
824.809	24757
824.949	24783
825.089	24772
825.228	24703
825.368	24559
825.508	24578
825.648	24426
825.787	24426
825.927	24631
826.067	24395
826.206	24433
826.346	24498
826.485	24441
826.625	24528
826.765	24604
826.904	24441
827.044	24327
827.183	24224
827.323	24201
827.462	24285
827.601	24254
827.741	24102
827.88	24300
828.02	24049
828.159	24140
828.298	24292
828.437	24220
828.577	24117
828.716	24251
828.855	23992
828.994	23916
829.134	23824
829.273	23927
829.412	23859
829.551	23771
829.69	23916
829.829	23973
829.968	24076
830.107	23923
830.246	23988
830.385	23855
830.524	23786
830.663	23920
830.802	23707
830.941	23531
831.08	23611
831.219	23619
831.357	23551
831.496	23680
831.635	23528
831.774	23349
831.913	23341
832.051	23353
832.19	23337
832.329	23311
832.467	23337
832.606	23269
832.744	23143
832.883	23189
833.022	23147
833.16	23277
833.299	23311
833.437	23269
833.576	23280
833.714	23273
833.852	23246
833.991	23334
834.129	23379
834.267	23189
834.406	23360
834.544	23227
834.682	23334
834.821	23162
834.959	23395
835.097	23280
835.235	23296
835.373	23254
835.511	23105
835.65	23105
835.788	23052
835.926	23003
836.064	22896
836.202	22942
836.34	23162
836.478	23261
836.615	23102
836.753	23037
836.891	23204
837.029	23083
837.167	22995
837.305	22999
837.443	22991
837.58	22908
837.718	22957
837.856	23044
837.993	22881
838.131	22835
838.269	22877
838.406	22790
838.544	22858
838.681	22660
838.819	22554
838.956	22371
839.094	22398
839.231	22459
839.369	22679
839.506	22847
839.643	22645
839.781	22421
839.918	22253
840.055	22421
840.193	22375
840.33	22398
840.467	22325
840.604	22356
840.742	22527
840.879	22280
841.016	22291
841.153	22284
841.29	22504
841.427	22413
841.564	22284
841.701	22268
841.838	22200
841.975	22268
842.112	22120
842.249	22162
842.385	22101
842.522	22223
842.659	22169
842.796	21979
842.933	22181
843.069	22105
843.206	21983
843.343	22196
843.479	22086
843.616	22105
843.752	21937
843.889	22063
844.025	22093
844.162	21934
844.298	22025
844.435	21797
844.571	21823
844.708	21968
844.844	22070
844.98	22040
845.117	21991
845.253	21774
845.389	21869
845.525	21819
845.661	21690
845.798	21705
845.934	21671
846.07	21614
846.206	21526
846.342	21793
846.478	21629
846.614	21507
846.75	21310
846.886	21412
847.022	21500
847.158	21405
847.294	21466
847.429	21458
847.565	21370
847.701	21542
847.837	21245
847.972	21055
848.108	21116
848.244	21142
848.379	21093
848.515	20933
848.65	21017
848.786	21070
848.921	20990
849.057	21001
849.192	20929
849.328	20944
849.463	20918
849.598	20921
849.734	20872
849.869	20811
850.004	20705
850.14	20762
850.275	20727
850.41	20804
850.545	20693
850.68	20701
850.815	20693
850.95	20667
851.085	20804
851.22	20853
851.355	20731
851.49	20617
851.625	20648
851.76	20655
851.895	20648
852.03	20560
852.165	20746
852.299	20705
852.434	20739
852.569	20800
852.703	20769
852.838	20758
852.973	20819
853.107	20796
853.242	20823
853.376	20530
853.511	20499
853.645	20469
853.78	20575
853.914	20518
854.048	20438
854.183	20503
854.317	20625
854.451	20724
854.585	20609
854.72	20530
854.854	20659
854.988	20438
855.122	20640
855.256	20484
855.39	20556
855.524	20571
855.658	20598
855.792	20522
855.926	20526
856.06	20530
856.194	20568
856.327	20602
856.461	20499
856.595	20564
856.729	20514
856.862	20625
856.996	20545
857.13	20575
857.263	20568
857.397	20530
857.53	20560
857.664	20583
857.797	20571
857.931	20845
858.064	20590
858.197	20621
858.331	20518
858.464	20393
858.597	20438
858.731	20522
858.864	20495
858.997	20575
859.13	20503
859.263	20484
859.396	20667
859.529	20583
859.662	20537
859.795	20579
859.928	20590
860.061	20697
860.194	20629
860.327	20743
860.46	20651
860.592	20571
860.725	20750
860.858	20674
860.99	20590
861.123	20427
861.256	20408
861.388	20621
861.521	21070
861.653	20351
861.786	20324
861.918	20385
862.05	20480
862.183	20499
862.315	20457
862.447	20507
862.58	20408
862.712	20309
862.844	20176
862.976	20366
863.108	20370
863.24	20796
863.372	20263
863.504	20199
863.636	20275
863.768	20275
863.9	20252
864.032	20134
864.164	20267
864.296	20351
864.428	20336
864.559	20362
864.691	20332
864.823	20172
864.954	20305
865.086	20259
865.217	20259
865.349	20157
865.48	20111
865.612	20221
865.743	20355
865.875	20157
866.006	20180
866.137	20153
866.269	20168
866.4	20039
866.531	20077
866.662	20195
866.793	20142
866.924	20138
867.055	20142
867.186	20107
867.317	20039
867.448	20031
867.579	20130
867.71	19982
867.841	20050
867.972	20103
868.103	20092
868.233	20096
868.364	20172
868.495	20252
868.625	20408
868.756	20488
868.886	20298
869.017	20328
869.147	20469
869.278	20514
869.408	20423
869.539	20347
869.669	20412
869.799	20438
869.929	20377
870.06	20442
870.19	20663
870.32	20568
870.45	20743
870.58	20800
870.71	20876
870.84	20773
870.97	20800
871.1	20689
871.23	20982
871.36	21009
871.489	20906
871.619	20937
871.749	20941
871.879	20998
872.008	21020
872.138	20971
872.267	21039
872.397	20830
872.526	20853
872.656	20727
872.785	20781
872.915	20925
873.044	20948
873.173	20994
873.303	21028
873.432	21089
873.561	21108
873.69	20990
873.819	20971
873.948	21123
874.077	21024
874.206	20979
874.335	21036
874.464	21100
874.593	21245
874.722	21138
874.851	21222
874.979	21203
875.108	21241
875.237	21195
875.365	21081
875.494	21207
875.623	21249
875.751	21199
875.88	21321
876.008	21252
876.136	21458
876.265	21625
876.393	21759
876.521	21732
876.65	21656
876.778	21641
876.906	21591
877.034	21587
877.162	21530
877.29	21477
877.418	21675
877.546	21610
877.674	21618
877.802	21572
877.93	21549
878.058	21515
878.185	21462
878.313	21591
878.441	21595
878.568	21462
878.696	21580
878.824	21606
878.951	21648
879.079	21739
879.206	21945
879.333	21797
879.461	21587
879.588	21694
879.715	21793
879.842	21808
879.97	21648
880.097	21306
880.224	21435
880.351	21428
880.478	21428
880.605	21462
880.732	21534
880.859	21587
880.986	21389
881.112	21382
881.239	21351
881.366	21096
881.493	21093
881.619	20960
881.746	21055
881.872	21009
881.999	21036
882.125	20834
882.252	20952
882.378	20975
882.505	21055
882.631	20838
882.757	20724
882.883	20796
883.01	20579
883.136	20629
883.262	20575
883.388	20590
883.514	20773
883.64	20663
883.766	20617
883.892	20446
884.018	20412
884.143	20667
884.269	20781
884.395	20339
884.52	20396
884.646	20476
884.772	20320
884.897	20313
885.023	20374
885.148	20522
885.274	20579
885.399	20434
885.524	20317
885.65	20244
885.775	20461
885.9	20309
886.025	20419
886.15	20358
886.275	20336
886.4	20225
886.525	20370
886.65	20130
886.775	20351
886.9	20503
887.025	20579
887.149	20294
887.274	20149
887.399	20115
887.523	20142
887.648	20100
887.773	19978
887.897	20161
888.021	20168
888.146	19967
888.27	20199
888.395	20237
888.519	20130
888.643	20100
888.767	20134
888.891	20092
889.015	19982
889.139	20065
889.263	19955
889.387	19993
889.511	20157
889.635	20016
889.759	19982
889.883	19986
890.006	19913
890.13	20058
890.254	19818
890.377	19833
890.501	19750
890.624	19491
890.748	19670
890.871	19548
890.995	19502
891.118	19453
891.241	19434
891.364	19567
891.488	19578
891.611	19552
891.734	19552
891.857	19590
891.98	19518
892.103	19510
892.226	19453
892.349	19449
892.471	19320
892.594	19354
892.717	19403
892.839	19377
892.962	19571
893.085	19426
893.207	19407
893.33	19407
893.452	19297
893.575	19556
893.697	19392
893.819	19658
893.941	19506
894.064	19495
894.186	19274
894.308	19449
894.43	19483
894.552	19499
894.674	19502
894.796	19407
894.918	19422
895.04	19495
895.161	19533
895.283	19400
895.405	19422
895.526	19407
895.648	19362
895.769	19339
895.891	19533
896.012	19438
896.134	19441
896.255	19525
896.376	19499
896.498	19331
896.619	19521
896.74	19457
896.861	19422
896.982	19852
897.103	19807
897.224	19780
897.345	19757
897.466	19681
897.587	19655
897.708	19795
897.828	19742
897.949	19597
898.07	19415
898.19	19693
898.311	19712
898.431	19521
898.552	19662
898.672	19818
898.792	19788
898.913	19731
899.033	19571
899.153	19491
899.273	19449
899.393	19445
899.513	19400
899.633	19552
899.753	19453
899.873	19400
899.993	19487
900.113	19266
900.232	19354
900.352	19289
900.472	19251
900.591	19240
900.711	19339
900.83	19232
900.95	19270
901.069	19354
901.189	19137
901.308	19015
901.427	18741
901.546	18798
901.665	18722
901.784	18897
901.904	18658
902.023	18601
902.141	18376
902.26	18365
902.379	18429
902.498	18308
902.617	18330
902.735	18380
902.854	18308
902.973	18163
903.091	18163
903.21	17931
903.328	18053
903.446	17935
903.565	17882
903.683	17927
903.801	17729
903.919	17790
904.038	17756
904.156	17585
904.274	17718
904.392	17471
904.51	17463
904.627	17615
904.745	17634
904.863	17585
904.981	17512
905.098	17151
905.216	17231
905.334	17307
905.451	17178
905.569	17311
905.686	17334
905.803	17269
905.921	17060
906.038	17014
906.155	17025
906.272	16923
906.389	16972
906.506	16850
906.623	16797
906.74	16866
906.857	16820
906.974	16618
907.091	16873
907.208	16877
907.324	16812
907.441	16577
907.557	16592
907.674	16554
907.79	16398
907.907	16497
908.023	16618
908.139	16588
908.256	16394
908.372	16367
908.488	16432
908.604	16344
908.72	16234
908.836	16238
908.952	16139
909.068	16268
909.184	16299
909.3	16090
909.415	16253
909.531	16261
909.647	15915
909.762	15968
909.878	15869
909.993	15941
910.108	15964
910.224	15930
910.339	15941
910.454	15766
910.57	15804
910.685	15663
910.8	15945
910.915	15911
911.03	15823
911.145	15561
911.259	15656
911.374	15549
911.489	15443
911.604	15439
911.718	15332
911.833	15344
911.947	15157
912.062	15108
912.176	15245
912.291	15233
912.405	15287
912.519	15561
912.633	15439
912.748	15336
912.862	15306
912.976	15180
913.09	14990
913.204	15150
913.318	15119
913.431	15245
913.545	15222
913.659	15169
913.772	15089
913.886	14956
914	15005
914.113	14998
914.226	15093
914.34	14948
914.453	14830
914.566	15005
914.68	14670
914.793	14804
914.906	14712
915.019	14629
915.132	14541
915.245	14503
915.358	14537
915.47	14537
915.583	14545
915.696	14632
915.809	14720
915.921	14716
916.034	14537
916.146	14495
916.259	14514
916.371	14617
916.483	14495
916.595	14427
916.708	14511
916.82	14358
916.932	14454
917.044	14374
917.156	14218
917.268	14252
917.38	14347
917.491	14199
917.603	14233
917.715	14317
917.826	14332
917.938	14191
918.049	14073
918.161	14237
918.272	14244
918.384	14271
918.495	14210
918.606	14119
918.717	14031
918.828	14065
918.939	14062
919.05	13906
919.161	14005
919.272	13719
919.383	13776
919.494	14005
919.604	14248
919.715	14103
919.826	13894
919.936	14005
920.047	14035
920.157	13951
920.267	14145
920.378	13959
920.488	14005
920.598	14229
920.708	14278
920.818	14134
920.928	14069
921.038	14267
921.148	14355
921.258	13997
921.368	13906
921.477	13727
921.587	13613
921.697	13613
921.806	13742
921.916	13548
922.025	13464
922.134	13339
922.244	13331
922.353	13392
922.462	13308
922.571	13232
922.68	13046
922.789	13034
922.898	13099
923.007	12996
923.116	13080
923.224	13069
923.333	12951
923.442	12833
923.55	12924
923.659	12920
923.767	12909
923.876	12840
923.984	12768
924.092	12779
924.201	12783
924.309	12871
924.417	12757
924.525	12719
924.633	12764
924.741	13677
924.849	12486
924.956	12658
925.064	12521
925.172	12509
925.279	12441
925.387	12540
925.494	12490
925.602	12578
925.709	12536
925.816	12376
925.924	12429
926.031	12555
926.138	12452
926.245	12456
926.352	12319
926.459	12445
926.566	12483
926.673	12452
926.779	12254
926.886	12194
926.993	12209
927.099	12022
927.206	11973
927.312	12007
927.419	12091
927.525	12091
927.631	12087
927.737	11954
927.843	12022
927.95	11813
928.056	11977
928.162	11912
928.267	11931
928.373	12582
928.479	11904
928.585	11786
928.69	11904
928.796	11939
928.901	11760
929.007	11570
929.112	11817
929.218	11703
929.323	11627
929.428	11604
929.533	11745
929.638	11532
929.743	11558
929.848	11615
929.953	11520
930.058	11448
930.163	11250
930.267	11345
930.372	11440
930.477	11311
930.581	11478
930.685	11455
930.79	11242
930.894	11280
930.998	11235
931.103	11322
931.207	11022
931.311	10866
931.415	10824
931.519	10630
931.623	10626
