Data from test_V78500241_1054.txt Node
Date: Fri Mar 25 15:17:11 CST 2022
User: usil
Spectrometer: V785-0024
Trigger mode: 0
Integration Time (sec): 4.000000E-1
Scans to average: 1
Nonlinearity correction enabled: false
Boxcar width: 0
Storing dark spectrum: false
XAxis mode: Wavelengths
Number of Pixels in Spectrum: 1024
>>>>>Begin Spectral Data<<<<<
801.071	28131
801.214	28093
801.356	27793
801.499	27774
801.641	27591
801.783	27618
801.926	27743
802.068	27629
802.211	27606
802.353	27469
802.496	27420
802.638	27355
802.78	27256
802.923	27264
803.065	27195
803.208	27279
803.35	27283
803.492	27310
803.635	27363
803.777	27454
803.919	27583
804.061	27846
804.204	27614
804.346	27504
804.488	27317
804.63	27439
804.773	27443
804.915	27534
805.057	27682
805.199	27431
805.341	27572
805.483	27728
805.626	27747
805.768	27526
805.91	27751
806.052	27781
806.194	27454
806.336	27759
806.478	27751
806.62	27755
806.762	27667
806.904	27949
807.046	28177
807.188	28013
807.33	28090
807.472	28067
807.614	28025
807.756	27972
807.898	28093
808.04	27846
808.182	27785
808.324	27930
808.465	27998
808.607	28067
808.749	28253
808.891	28318
809.033	28584
809.174	28280
809.316	28265
809.458	28242
809.6	28261
809.741	28428
809.883	28459
810.025	28565
810.166	28611
810.308	28561
810.45	28618
810.591	28497
810.733	28489
810.875	28234
811.016	28173
811.158	28093
811.299	28413
811.441	28394
811.582	28474
811.724	28375
811.865	28390
812.007	28238
812.148	28299
812.29	28306
812.431	28382
812.573	28577
812.714	28687
812.855	28824
812.997	28911
813.138	29109
813.279	28771
813.421	28797
813.562	28733
813.703	28569
813.845	28637
813.986	28169
814.127	28017
814.268	27880
814.41	28139
814.551	27857
814.692	28109
814.833	27945
814.974	28021
815.115	27926
815.256	27873
815.397	27793
815.539	27857
815.68	27899
815.821	27778
815.962	27724
816.103	27842
816.244	27739
816.385	27595
816.526	27500
816.666	27420
816.807	27427
816.948	27462
817.089	27500
817.23	27397
817.371	27348
817.512	27397
817.653	27298
817.793	27412
817.934	27264
818.075	27363
818.216	27310
818.356	27275
818.497	27176
818.638	27074
818.778	27077
818.919	27085
819.06	27131
819.2	27279
819.341	27370
819.481	27211
819.622	27515
819.762	27679
819.903	27564
820.043	27443
820.184	27469
820.324	27473
820.465	27633
820.605	27439
820.746	27420
820.886	27321
821.026	27477
821.167	27447
821.307	27549
821.447	27157
821.588	27226
821.728	26925
821.868	26963
822.008	26807
822.149	26716
822.289	26716
822.429	26530
822.569	26583
822.709	26465
822.849	26309
822.99	26317
823.13	26336
823.27	26339
823.41	26122
823.55	26043
823.69	26157
823.83	26164
823.97	26043
824.11	25890
824.25	25860
824.389	25936
824.529	25982
824.669	26103
824.809	26180
824.949	26168
825.089	25951
825.228	26039
825.368	25890
825.508	25791
825.648	25936
825.787	25807
825.927	25917
826.067	25761
826.206	25875
826.346	25978
826.485	25925
826.625	25734
826.765	25944
826.904	25947
827.044	25605
827.183	25624
827.323	25635
827.462	25814
827.601	25525
827.741	25567
827.88	25723
828.02	25556
828.159	25483
828.298	25582
828.437	25696
828.577	25453
828.716	25685
828.855	25571
828.994	25377
829.134	25274
829.273	25285
829.412	25118
829.551	25327
829.69	25304
829.829	25270
829.968	25422
830.107	25369
830.246	25301
830.385	25240
830.524	25228
830.663	25065
830.802	25015
830.941	24753
831.08	24787
831.219	25209
831.357	24958
831.496	25004
831.635	24829
831.774	24932
831.913	24886
832.051	24715
832.19	24601
832.329	24722
832.467	24517
832.606	24422
832.744	24612
832.883	24517
833.022	24513
833.16	24814
833.299	24585
833.437	24696
833.576	24559
833.714	24654
833.852	24642
833.991	24719
834.129	24726
834.267	24817
834.406	24639
834.544	24738
834.682	24639
834.821	24673
834.959	24722
835.097	24627
835.235	24650
835.373	24604
835.511	24631
835.65	24452
835.788	24471
835.926	24365
836.064	24194
836.202	24262
836.34	24532
836.478	24578
836.615	24380
836.753	24597
836.891	24456
837.029	24513
837.167	24475
837.305	24429
837.443	24353
837.58	24342
837.718	24399
837.856	24319
837.993	24232
838.131	24395
838.269	24209
838.406	24262
838.544	24049
838.681	24030
838.819	24106
838.956	23718
839.094	23809
839.231	23855
839.369	23984
839.506	24140
839.643	23885
839.781	23760
839.918	23687
840.055	23764
840.193	23802
840.33	23691
840.467	23729
840.604	23771
840.742	23920
840.879	23608
841.016	23608
841.153	23665
841.29	23775
841.427	23630
841.564	23802
841.701	23600
841.838	23619
841.975	23596
842.112	23516
842.249	23444
842.385	23402
842.522	23722
842.659	23615
842.796	23520
842.933	23440
843.069	23425
843.206	23516
843.343	23573
843.479	23547
843.616	23551
843.752	23254
843.889	23387
844.025	23372
844.162	23318
844.298	23318
844.435	23303
844.571	23220
844.708	23200
844.844	23391
844.98	23334
845.117	23239
845.253	23075
845.389	23098
845.525	23178
845.661	23083
845.798	22911
845.934	23121
846.07	22850
846.206	22957
846.342	23022
846.478	23022
846.614	22763
846.75	22679
846.886	22805
847.022	22710
847.158	22694
847.294	22748
847.429	22790
847.565	22611
847.701	23018
847.837	22485
847.972	22466
848.108	22493
848.244	22531
848.379	22371
848.515	22375
848.65	22272
848.786	22215
848.921	22192
849.057	22451
849.192	22394
849.328	22223
849.463	22265
849.598	22154
849.734	22162
849.869	22154
850.004	21991
850.14	22135
850.275	22116
850.41	21972
850.545	21953
850.68	22086
850.815	22097
850.95	22082
851.085	22314
851.22	22177
851.355	22105
851.49	22013
851.625	22188
851.76	22051
851.895	21819
852.03	22006
852.165	22074
852.299	22067
852.434	22272
852.569	21994
852.703	21998
852.838	22147
852.973	22097
853.107	22086
853.242	21975
853.376	21930
853.511	21804
853.645	21739
853.78	22006
853.914	21945
854.048	21804
854.183	21880
854.317	21850
854.451	22074
854.585	21743
854.72	21869
854.854	22059
854.988	21736
855.122	21865
855.256	21713
855.39	21778
855.524	21983
855.658	21937
855.792	22021
855.926	21865
856.06	21911
856.194	21960
856.327	21793
856.461	21838
856.595	21751
856.729	21838
856.862	22006
856.996	21854
857.13	22006
857.263	22051
857.397	21800
857.53	21861
857.664	22029
857.797	21949
857.931	21956
858.064	21850
858.197	22048
858.331	21797
858.464	21816
858.597	21751
858.731	21835
858.864	21774
858.997	21930
859.13	21892
859.263	21994
859.396	22044
859.529	21842
859.662	21823
859.795	21800
859.928	21861
860.061	22093
860.194	21991
860.327	21873
860.46	21880
860.592	21953
860.725	21991
860.858	21918
860.99	22010
861.123	21827
861.256	21743
861.388	21876
861.521	22577
861.653	21679
861.786	21686
861.918	21717
862.05	21876
862.183	21713
862.315	21827
862.447	21915
862.58	21732
862.712	21648
862.844	21481
862.976	21599
863.108	21686
863.24	22090
863.372	21557
863.504	21641
863.636	21625
863.768	21675
863.9	21637
864.032	21500
864.164	21523
864.296	21595
864.428	21732
864.559	21633
864.691	21660
864.823	21618
864.954	21671
865.086	21606
865.217	21485
865.349	21351
865.48	21454
865.612	21351
865.743	21587
865.875	21507
866.006	21344
866.137	21504
866.269	21458
866.4	21405
866.531	21447
866.662	21367
866.793	21382
866.924	21397
867.055	21515
867.186	21462
867.317	21355
867.448	21264
867.579	21439
867.71	21367
867.841	21310
867.972	21264
868.103	21412
868.233	21325
868.364	21428
868.495	21561
868.625	21504
868.756	21705
868.886	21519
869.017	21606
869.147	21663
869.278	21800
869.408	21587
869.539	21633
869.669	21679
869.799	21530
869.929	21797
870.06	21876
870.19	22010
870.32	21949
870.45	21972
870.58	22036
870.71	22074
870.84	22093
870.97	22025
871.1	22082
871.23	22215
871.36	22105
871.489	21998
871.619	22200
871.749	22207
871.879	22223
872.008	22329
872.138	22185
872.267	22238
872.397	22109
872.526	22059
872.656	21983
872.785	22246
872.915	22249
873.044	22306
873.173	22299
873.303	22352
873.432	22265
873.561	22333
873.69	22352
873.819	22272
873.948	22177
874.077	22333
874.206	22272
874.335	22143
874.464	22303
874.593	22561
874.722	22516
874.851	22523
874.979	22493
875.108	22516
875.237	22443
875.365	22356
875.494	22409
875.623	22592
875.751	22481
875.88	22481
876.008	22607
876.136	22592
876.265	22782
876.393	23079
876.521	22896
876.65	22831
876.778	22987
876.906	22797
877.034	22824
877.162	22862
877.29	22645
877.418	22820
877.546	22885
877.674	22763
877.802	22786
877.93	22816
878.058	22820
878.185	22717
878.313	22805
878.441	22717
878.568	22546
878.696	22729
878.824	22824
878.951	22927
879.079	22915
879.206	23071
879.333	22911
879.461	22767
879.588	22919
879.715	22866
879.842	23208
879.97	22740
880.097	22679
880.224	22607
880.351	22713
880.478	22645
880.605	22634
880.732	22546
880.859	22721
880.986	22618
881.112	22675
881.239	22580
881.366	22325
881.493	22166
881.619	22360
881.746	22246
881.872	22124
881.999	22109
882.125	22147
882.252	22223
882.378	22211
882.505	22211
882.631	22013
882.757	21884
882.883	21953
883.01	21823
883.136	21816
883.262	21709
883.388	21739
883.514	21975
883.64	21869
883.766	21831
883.892	21701
884.018	21682
884.143	21808
884.269	21884
884.395	21614
884.52	21416
884.646	21656
884.772	21416
884.897	21378
885.023	21485
885.148	21519
885.274	21698
885.399	21542
885.524	21412
885.65	21450
885.775	21382
885.9	21477
886.025	21447
886.15	21652
886.275	21416
886.4	21428
886.525	21530
886.65	21606
886.775	21408
886.9	21656
887.025	21701
887.149	21515
887.274	21367
887.399	21127
887.523	21211
887.648	21313
887.773	21127
887.897	21291
888.021	21272
888.146	21233
888.27	21351
888.395	21363
888.519	21291
888.643	21275
888.767	21230
888.891	21176
889.015	20994
889.139	21089
889.263	21028
889.387	21237
889.511	21317
889.635	21165
889.759	21108
889.883	20994
890.006	21081
890.13	21123
890.254	21135
890.377	20986
890.501	20864
890.624	20815
890.748	20891
890.871	20826
890.995	20670
891.118	20644
891.241	20743
891.364	20674
891.488	20754
891.611	20659
891.734	20594
891.857	20549
891.98	20587
892.103	20568
892.226	20590
892.349	20530
892.471	20336
892.594	20636
892.717	20511
892.839	20526
892.962	20629
893.085	20530
893.207	20583
893.33	20476
893.452	20465
893.575	20606
893.697	20480
893.819	20712
893.941	20686
894.064	20678
894.186	20484
894.308	20473
894.43	20571
894.552	20625
894.674	20632
894.796	20480
894.918	20442
895.04	20568
895.161	20495
895.283	20575
895.405	20480
895.526	20667
895.648	20606
895.769	20465
895.891	20617
896.012	20674
896.134	20514
896.255	20648
896.376	20434
896.498	20575
896.619	20495
896.74	20594
896.861	20541
896.982	20857
897.103	20975
897.224	20712
897.345	20807
897.466	20636
897.587	20781
897.708	20933
897.828	20716
897.949	20674
898.07	20564
898.19	20621
898.311	20777
898.431	20758
898.552	20697
898.672	20705
898.792	20861
898.913	20705
899.033	20602
899.153	20476
899.273	20454
899.393	20404
899.513	20625
899.633	20446
899.753	20579
899.873	20385
899.993	20476
900.113	20461
900.232	20511
900.352	20301
900.472	20343
900.591	20191
900.711	20278
900.83	20149
900.95	20290
901.069	20358
901.189	20126
901.308	19738
901.427	19803
901.546	19841
901.665	19674
901.784	19925
901.904	19696
902.023	19544
902.141	19297
902.26	19331
902.379	19369
902.498	19289
902.617	19331
902.735	19301
902.854	19308
902.973	19278
903.091	18947
903.21	18920
903.328	18947
903.446	18814
903.565	18825
903.683	18787
903.801	18646
903.919	18688
904.038	18707
904.156	18517
904.274	18642
904.392	18555
904.51	18563
904.627	18536
904.745	18536
904.863	18483
904.981	18273
905.098	18323
905.216	18270
905.334	18300
905.451	18213
905.569	18235
905.686	18292
905.803	18346
905.921	18022
906.038	18079
906.155	17950
906.272	17878
906.389	18030
906.506	17764
906.623	17901
906.74	17851
906.857	17604
906.974	17627
907.091	17866
907.208	17824
907.324	17798
907.441	17608
907.557	17486
907.674	17532
907.79	17379
907.907	17421
908.023	17543
908.139	17520
908.256	17406
908.372	17383
908.488	17315
908.604	17216
908.72	17280
908.836	17162
908.952	17204
909.068	17250
909.184	17326
909.3	17128
909.415	17353
909.531	17075
909.647	16972
909.762	16900
909.878	16873
909.993	16930
910.108	16900
910.224	16790
910.339	16873
910.454	16786
910.57	16660
910.685	16611
910.8	16915
910.915	16831
911.03	16687
911.145	16538
911.259	16512
911.374	16569
911.489	16447
911.604	16333
911.718	16223
911.833	16299
911.947	16196
912.062	16158
912.176	16268
912.291	16242
912.405	16177
912.519	16276
912.633	16440
912.748	16249
912.862	16226
912.976	16086
913.09	15968
913.204	16090
913.318	15991
913.431	16109
913.545	16147
913.659	16181
913.772	16032
913.886	15823
914	15812
914.113	15857
914.226	15953
914.34	15953
914.453	15728
914.566	15899
914.68	15823
914.793	15656
914.906	15485
915.019	15424
915.132	15351
915.245	15450
915.358	15424
915.47	15466
915.583	15321
915.696	15386
915.809	15553
915.921	15496
916.034	15367
916.146	15317
916.259	15287
916.371	15321
916.483	15249
916.595	15264
916.708	15264
916.82	15222
916.932	15184
917.044	15165
917.156	15180
917.268	15058
917.38	15116
917.491	15005
917.603	15135
917.715	15116
917.826	15093
917.938	15043
918.049	14921
918.161	14937
918.272	15085
918.384	15192
918.495	15017
918.606	14792
918.717	14724
918.828	14895
918.939	14883
919.05	14648
919.161	14838
919.272	14670
919.383	14621
919.494	14895
919.604	15001
919.715	14785
919.826	14682
919.936	14720
920.047	14902
920.157	14720
920.267	14971
920.378	14823
920.488	14762
920.598	14910
920.708	15123
920.818	14838
920.928	14906
921.038	15024
921.148	14956
921.258	14739
921.368	14636
921.477	14533
921.587	14541
921.697	14415
921.806	14434
921.916	14343
922.025	14130
922.134	14161
922.244	14081
922.353	14130
922.462	14020
922.571	13879
922.68	13723
922.789	13693
922.898	13753
923.007	13696
923.116	13750
923.224	13685
923.333	13803
923.442	13674
923.55	13712
923.659	13597
923.767	13677
923.876	13559
923.984	13685
924.092	13578
924.201	13609
924.309	13533
924.417	13476
924.525	13384
924.633	13476
924.741	14412
924.849	13244
924.956	13544
925.064	13236
925.172	13183
925.279	13190
925.387	13221
925.494	13164
925.602	13304
925.709	13126
925.816	13088
925.924	13122
926.031	13179
926.138	13099
926.245	13122
926.352	13008
926.459	13156
926.566	13183
926.673	13004
926.779	12928
926.886	12932
926.993	12844
927.099	12745
927.206	12745
927.312	12783
927.419	12806
927.525	12684
927.631	12757
927.737	12707
927.843	12673
927.95	12521
928.056	12650
928.162	12578
928.267	12707
928.373	13137
928.479	12650
928.585	12361
928.69	12429
928.796	12635
928.901	12456
929.007	12315
929.112	12407
929.218	12350
929.323	12308
929.428	12270
929.533	12365
929.638	12102
929.743	12251
929.848	12235
929.953	12224
930.058	12197
930.163	11931
930.267	11984
930.372	12114
930.477	12007
930.581	12133
930.685	12053
930.79	11863
930.894	11847
930.998	11836
931.103	12015
931.207	11653
931.311	11585
931.415	11425
931.519	11223
931.623	11254
