Data from test_V78500241_2765.txt Node
Date: Fri Mar 25 15:29:06 CST 2022
User: usil
Spectrometer: V785-0024
Trigger mode: 0
Integration Time (sec): 4.000000E-1
Scans to average: 1
Nonlinearity correction enabled: false
Boxcar width: 0
Storing dark spectrum: false
XAxis mode: Wavelengths
Number of Pixels in Spectrum: 1024
>>>>>Begin Spectral Data<<<<<
801.071	27146
801.214	27055
801.356	26845
801.499	26754
801.641	26701
801.783	26568
801.926	26617
802.068	26533
802.211	26575
802.353	26423
802.496	26275
802.638	26347
802.78	26157
802.923	26126
803.065	26180
803.208	26301
803.35	26180
803.492	26514
803.635	26453
803.777	26343
803.919	26453
804.061	26552
804.204	26560
804.346	26358
804.488	26431
804.63	26427
804.773	26453
804.915	26412
805.057	26507
805.199	26552
805.341	26381
805.483	26480
805.626	26503
805.768	26351
805.91	26651
806.052	26507
806.194	26522
806.336	26686
806.478	26484
806.62	26571
806.762	26598
806.904	26712
807.046	27154
807.188	26937
807.33	27013
807.472	27085
807.614	26804
807.756	26899
807.898	26705
808.04	26609
808.182	26826
808.324	26826
808.465	26754
808.607	26952
808.749	27249
808.891	27203
809.033	27302
809.174	27173
809.316	26998
809.458	27036
809.6	27051
809.741	27188
809.883	27184
810.025	27401
810.166	27416
810.308	27405
810.45	27378
810.591	27291
810.733	27165
810.875	27036
811.016	26963
811.158	27001
811.299	27116
811.441	27317
811.582	27397
811.724	27096
811.865	27058
812.007	27036
812.148	27096
812.29	27112
812.431	27165
812.573	27367
812.714	27583
812.855	27557
812.997	27637
813.138	27797
813.279	27705
813.421	27564
813.562	27545
813.703	27450
813.845	27214
813.986	26940
814.127	26849
814.268	26735
814.41	26864
814.551	26864
814.692	26792
814.833	26769
814.974	26621
815.115	26769
815.256	26564
815.397	26492
815.539	26530
815.68	26545
815.821	26473
815.962	26507
816.103	26434
816.244	26275
816.385	26370
816.526	26317
816.666	26081
816.807	25974
816.948	26161
817.089	26039
817.23	26039
817.371	26024
817.512	26062
817.653	26081
817.793	25871
817.934	26046
818.075	26039
818.216	26050
818.356	26046
818.497	25921
818.638	25811
818.778	25727
818.919	25864
819.06	25814
819.2	25894
819.341	25913
819.481	25966
819.622	26084
819.762	26237
819.903	26259
820.043	26161
820.184	26191
820.324	26111
820.465	26187
820.605	26122
820.746	26054
820.886	25928
821.026	26001
821.167	25966
821.307	26119
821.447	25936
821.588	25925
821.728	25708
821.868	25563
822.008	25533
822.149	25510
822.289	25403
822.429	25320
822.569	25168
822.709	25118
822.849	24996
822.99	24951
823.13	25065
823.27	24814
823.41	24947
823.55	24684
823.69	24920
823.83	24973
823.97	24688
824.11	24635
824.25	24544
824.389	24414
824.529	24555
824.669	24494
824.809	24810
824.949	24753
825.089	24642
825.228	24707
825.368	24475
825.508	24490
825.648	24281
825.787	24467
825.927	24654
826.067	24369
826.206	24384
826.346	24627
826.485	24585
826.625	24502
826.765	24559
826.904	24479
827.044	24171
827.183	24190
827.323	24060
827.462	24224
827.601	24091
827.741	24045
827.88	24235
828.02	23996
828.159	24136
828.298	24201
828.437	24182
828.577	24163
828.716	24273
828.855	23973
828.994	23840
829.134	23813
829.273	23908
829.412	23851
829.551	23790
829.69	23802
829.829	23847
829.968	23980
830.107	23741
830.246	23923
830.385	23642
830.524	23703
830.663	23646
830.802	23429
830.941	23345
831.08	23406
831.219	23543
831.357	23520
831.496	23695
831.635	23440
831.774	23524
831.913	23292
832.051	23254
832.19	23189
832.329	23239
832.467	23204
832.606	23147
832.744	23204
832.883	23052
833.022	23006
833.16	23170
833.299	23208
833.437	23128
833.576	23189
833.714	23143
833.852	23189
833.991	23132
834.129	23326
834.267	23292
834.406	23220
834.544	23208
834.682	23147
834.821	23162
834.959	23459
835.097	23151
835.235	23220
835.373	23185
835.511	23086
835.65	23109
835.788	23018
835.926	22866
836.064	22812
836.202	22725
836.34	23003
836.478	23060
836.615	22976
836.753	22984
836.891	23105
837.029	23044
837.167	23003
837.305	22896
837.443	22850
837.58	22850
837.718	23010
837.856	22957
837.993	22771
838.131	22847
838.269	22710
838.406	22801
838.544	22740
838.681	22474
838.819	22451
838.956	22421
839.094	22489
839.231	22348
839.369	22497
839.506	22797
839.643	22584
839.781	22443
839.918	22253
840.055	22287
840.193	22405
840.33	22314
840.467	22291
840.604	22375
840.742	22531
840.879	22234
841.016	22112
841.153	22215
841.29	22352
841.427	22253
841.564	22306
841.701	22413
841.838	22299
841.975	22150
842.112	22322
842.249	22192
842.385	22246
842.522	22341
842.659	22166
842.796	22025
842.933	22078
843.069	22021
843.206	22055
843.343	22063
843.479	22139
843.616	22097
843.752	21800
843.889	21819
844.025	21972
844.162	21808
844.298	21915
844.435	21854
844.571	21751
844.708	21934
844.844	22032
844.98	22021
845.117	22048
845.253	21713
845.389	21705
845.525	21785
845.661	21686
845.798	21587
845.934	21667
846.07	21564
846.206	21530
846.342	21553
846.478	21549
846.614	21310
846.75	21252
846.886	21359
847.022	21332
847.158	21336
847.294	21329
847.429	21321
847.565	21218
847.701	21564
847.837	21032
847.972	20994
848.108	21169
848.244	21211
848.379	20823
848.515	20899
848.65	20941
848.786	20902
848.921	20876
849.057	20979
849.192	20914
849.328	20944
849.463	20956
849.598	20902
849.734	20887
849.869	20727
850.004	20686
850.14	20701
850.275	20701
850.41	20682
850.545	20640
850.68	20693
850.815	20792
850.95	20659
851.085	20853
851.22	20754
851.355	20686
851.49	20724
851.625	20590
851.76	20682
851.895	20625
852.03	20575
852.165	20674
852.299	20686
852.434	20788
852.569	20686
852.703	20716
852.838	20796
852.973	20887
853.107	20754
853.242	20590
853.376	20552
853.511	20370
853.645	20503
853.78	20522
853.914	20492
854.048	20549
854.183	20461
854.317	20526
854.451	20644
854.585	20457
854.72	20537
854.854	20602
854.988	20488
855.122	20503
855.256	20320
855.39	20415
855.524	20617
855.658	20640
855.792	20556
855.926	20594
856.06	20602
856.194	20522
856.327	20514
856.461	20320
856.595	20495
856.729	20442
856.862	20617
856.996	20499
857.13	20541
857.263	20697
857.397	20514
857.53	20389
857.664	20594
857.797	20568
857.931	20606
858.064	20465
858.197	20556
858.331	20613
858.464	20431
858.597	20393
858.731	20469
858.864	20393
858.997	20389
859.13	20393
859.263	20537
859.396	20511
859.529	20499
859.662	20374
859.795	20511
859.928	20575
860.061	20571
860.194	20754
860.327	20541
860.46	20450
860.592	20518
860.725	20579
860.858	20609
860.99	20301
861.123	20355
861.256	20431
861.388	20393
861.521	21089
861.653	20389
861.786	20339
861.918	20358
862.05	20366
862.183	20434
862.315	20480
862.447	20396
862.58	20431
862.712	20214
862.844	20088
862.976	20278
863.108	20252
863.24	20670
863.372	20077
863.504	20320
863.636	20107
863.768	20294
863.9	20199
864.032	20134
864.164	20195
864.296	20229
864.428	20313
864.559	20309
864.691	20309
864.823	20172
864.954	20229
865.086	20134
865.217	20267
865.349	20069
865.48	20001
865.612	20103
865.743	20164
865.875	20092
866.006	19993
866.137	20081
866.269	20138
866.4	20081
866.531	20050
866.662	20103
866.793	20054
866.924	19993
867.055	20012
867.186	20168
867.317	20024
867.448	20054
867.579	20054
867.71	20031
867.841	19986
867.972	20058
868.103	20016
868.233	20077
868.364	19993
868.495	20168
868.625	20244
868.756	20476
868.886	20221
869.017	20305
869.147	20427
869.278	20343
869.408	20275
869.539	20225
869.669	20351
869.799	20377
869.929	20465
870.06	20415
870.19	20571
870.32	20533
870.45	20556
870.58	20689
870.71	20876
870.84	20811
870.97	20731
871.1	20667
871.23	20857
871.36	20887
871.489	20849
871.619	20868
871.749	20948
871.879	20929
872.008	21001
872.138	20834
872.267	20876
872.397	20739
872.526	20606
872.656	20785
872.785	20792
872.915	20834
873.044	20971
873.173	20857
873.303	21020
873.432	20971
873.561	21066
873.69	20975
873.819	20925
873.948	20921
874.077	20990
874.206	20872
874.335	20857
874.464	21062
874.593	21230
874.722	21112
874.851	21249
874.979	21256
875.108	21199
875.237	21062
875.365	20967
875.494	21211
875.623	21207
875.751	21085
875.88	21176
876.008	21302
876.136	21416
876.265	21682
876.393	21690
876.521	21580
876.65	21614
876.778	21583
876.906	21633
877.034	21580
877.162	21530
877.29	21507
877.418	21523
877.546	21534
877.674	21435
877.802	21523
877.93	21538
878.058	21511
878.185	21332
878.313	21519
878.441	21454
878.568	21268
878.696	21363
878.824	21545
878.951	21458
879.079	21656
879.206	21937
879.333	21641
879.461	21538
879.588	21576
879.715	21610
879.842	21747
879.97	21641
880.097	21367
880.224	21389
880.351	21355
880.478	21397
880.605	21359
880.732	21302
880.859	21553
880.986	21329
881.112	21275
881.239	21195
881.366	21062
881.493	20979
881.619	20944
881.746	20921
881.872	20914
881.999	20880
882.125	20941
882.252	20963
882.378	20891
882.505	21043
882.631	20788
882.757	20724
882.883	20712
883.01	20625
883.136	20537
883.262	20431
883.388	20454
883.514	20484
883.64	20750
883.766	20564
883.892	20324
884.018	20450
884.143	20499
884.269	20712
884.395	20408
884.52	20305
884.646	20183
884.772	20244
884.897	20290
885.023	20271
885.148	20309
885.274	20408
885.399	20393
885.524	20275
885.65	20290
885.775	20267
885.9	20320
886.025	20332
886.15	20389
886.275	20229
886.4	20180
886.525	20278
886.65	20343
886.775	20286
886.9	20476
887.025	20438
887.149	20263
887.274	20062
887.399	20005
887.523	19955
887.648	19894
887.773	19811
887.897	20084
888.021	20065
888.146	19963
888.27	20172
888.395	20275
888.519	20115
888.643	20065
888.767	20046
888.891	19944
889.015	19818
889.139	19852
889.263	19993
889.387	20008
889.511	20081
889.635	20027
889.759	19917
889.883	19868
890.006	19864
890.13	19906
890.254	19757
890.377	19753
890.501	19753
890.624	19624
890.748	19734
890.871	19548
890.995	19460
891.118	19400
891.241	19415
891.364	19506
891.488	19552
891.611	19510
891.734	19506
891.857	19506
891.98	19506
892.103	19502
892.226	19472
892.349	19354
892.471	19247
892.594	19373
892.717	19453
892.839	19373
892.962	19426
893.085	19419
893.207	19320
893.33	19365
893.452	19270
893.575	19480
893.697	19350
893.819	19434
893.941	19563
894.064	19529
894.186	19274
894.308	19407
894.43	19457
894.552	19662
894.674	19453
894.796	19373
894.918	19343
895.04	19343
895.161	19559
895.283	19343
895.405	19278
895.526	19377
895.648	19415
895.769	19354
895.891	19472
896.012	19487
896.134	19392
896.255	19422
896.376	19327
896.498	19460
896.619	19449
896.74	19422
896.861	19457
896.982	19658
897.103	19784
897.224	19613
897.345	19597
897.466	19605
897.587	19548
897.708	19708
897.828	19639
897.949	19491
898.07	19407
898.19	19575
898.311	19635
898.431	19601
898.552	19635
898.672	19590
898.792	19666
898.913	19635
899.033	19590
899.153	19510
899.273	19255
899.393	19384
899.513	19392
899.633	19320
899.753	19365
899.873	19202
899.993	19373
900.113	19285
900.232	19362
900.352	19228
900.472	19297
900.591	19209
900.711	19217
900.83	19160
900.95	19194
901.069	19247
901.189	18985
901.308	18814
901.427	18684
901.546	18753
901.665	18821
901.784	18772
901.904	18631
902.023	18616
902.141	18399
902.26	18323
902.379	18308
902.498	18201
902.617	18213
902.735	18304
902.854	18266
902.973	18190
903.091	17984
903.21	17973
903.328	18041
903.446	17920
903.565	17817
903.683	17859
903.801	17649
903.919	17653
904.038	17680
904.156	17600
904.274	17436
904.392	17570
904.51	17402
904.627	17482
904.745	17482
904.863	17535
904.981	17383
905.098	17292
905.216	17261
905.334	17345
905.451	17170
905.569	17280
905.686	17094
905.803	17174
905.921	17071
906.038	17060
906.155	17105
906.272	16949
906.389	16908
906.506	16679
906.623	16786
906.74	16744
906.857	16687
906.974	16706
907.091	16911
907.208	16881
907.324	16809
907.441	16702
907.557	16447
907.674	16413
907.79	16409
907.907	16592
908.023	16508
908.139	16443
908.256	16432
908.372	16440
908.488	16417
908.604	16082
908.72	16158
908.836	16211
908.952	16169
909.068	16325
909.184	16268
909.3	16173
909.415	16204
909.531	16204
909.647	16017
909.762	15930
909.878	15918
909.993	15854
910.108	15819
910.224	15835
910.339	15975
910.454	15789
910.57	15770
910.685	15679
910.8	15941
910.915	15800
911.03	15671
911.145	15614
911.259	15469
911.374	15614
911.489	15359
911.604	15405
911.718	15351
911.833	15363
911.947	15237
912.062	15154
912.176	15370
912.291	15344
912.405	15325
912.519	15488
912.633	15424
912.748	15321
912.862	15272
912.976	15062
913.09	14967
913.204	15028
913.318	15119
913.431	15176
913.545	15260
913.659	15138
913.772	15097
913.886	14971
914	14868
914.113	14994
914.226	15005
914.34	15066
914.453	14807
914.566	14994
914.68	14823
914.793	14750
914.906	14575
915.019	14606
915.132	14503
915.245	14492
915.358	14488
915.47	14564
915.583	14530
915.696	14549
915.809	14632
915.921	14682
916.034	14484
916.146	14313
916.259	14450
916.371	14587
916.483	14465
916.595	14362
916.708	14336
916.82	14351
916.932	14438
917.044	14221
917.156	14313
917.268	14237
917.38	14320
917.491	14138
917.603	14214
917.715	14282
917.826	14298
917.938	14119
918.049	14092
918.161	14183
918.272	14317
918.384	14252
918.495	14138
918.606	14001
918.717	13845
918.828	13902
918.939	13989
919.05	13795
919.161	13890
919.272	13662
919.383	13868
919.494	13936
919.604	14202
919.715	13940
919.826	13898
919.936	13913
920.047	13967
920.157	13909
920.267	14115
920.378	14001
920.488	13947
920.598	14161
920.708	14240
920.818	14126
920.928	14046
921.038	14259
921.148	14164
921.258	13902
921.368	13906
921.477	13685
921.587	13647
921.697	13533
921.806	13609
921.916	13502
922.025	13365
922.134	13499
922.244	13346
922.353	13422
922.462	13316
922.571	13171
922.68	13019
922.789	13004
922.898	12996
923.007	12966
923.116	12993
923.224	12966
923.333	12943
923.442	12943
923.55	12863
923.659	12829
923.767	12954
923.876	12840
923.984	12954
924.092	12768
924.201	12749
924.309	12734
924.417	12768
924.525	12722
924.633	12662
924.741	13613
924.849	12445
924.956	12593
925.064	12517
925.172	12433
925.279	12479
925.387	12467
925.494	12471
925.602	12593
925.709	12483
925.816	12369
925.924	12433
926.031	12536
926.138	12338
926.245	12452
926.352	12391
926.459	12528
926.566	12448
926.673	12270
926.779	12330
926.886	12155
926.993	12117
927.099	12106
927.206	12041
927.312	12003
927.419	12095
927.525	12045
927.631	12076
927.737	11961
927.843	11878
927.95	11741
928.056	11920
928.162	11786
928.267	12015
928.373	12536
928.479	11984
928.585	11688
928.69	11771
928.796	11832
928.901	11672
929.007	11562
929.112	11798
929.218	11691
929.323	11653
929.428	11554
929.533	11668
929.638	11558
929.743	11627
929.848	11619
929.953	11551
930.058	11444
930.163	11376
930.267	11337
930.372	11398
930.477	11216
930.581	11452
930.685	11318
930.79	11299
930.894	11284
930.998	11242
931.103	11334
931.207	10976
931.311	10930
931.415	10812
931.519	10603
931.623	10618
