Data from test_V78500241_2959.txt Node
Date: Fri Mar 25 15:30:27 CST 2022
User: usil
Spectrometer: V785-0024
Trigger mode: 0
Integration Time (sec): 4.000000E-1
Scans to average: 1
Nonlinearity correction enabled: false
Boxcar width: 0
Storing dark spectrum: false
XAxis mode: Wavelengths
Number of Pixels in Spectrum: 1024
>>>>>Begin Spectral Data<<<<<
801.071	27161
801.214	26956
801.356	26800
801.499	26754
801.641	26609
801.783	26526
801.926	26583
802.068	26617
802.211	26564
802.353	26507
802.496	26362
802.638	26244
802.78	26248
802.923	26195
803.065	25986
803.208	26271
803.35	26237
803.492	26328
803.635	26446
803.777	26157
803.919	26526
804.061	26701
804.204	26438
804.346	26282
804.488	26221
804.63	26362
804.773	26332
804.915	26423
805.057	26530
805.199	26267
805.341	26313
805.483	26625
805.626	26526
805.768	26332
805.91	26541
806.052	26484
806.194	26431
806.336	26651
806.478	26423
806.62	26473
806.762	26484
806.904	26735
807.046	27047
807.188	26868
807.33	26979
807.472	26994
807.614	26815
807.756	26815
807.898	26902
808.04	26670
808.182	26785
808.324	26697
808.465	26838
808.607	27017
808.749	27154
808.891	27180
809.033	27222
809.174	27135
809.316	27207
809.458	27211
809.6	27017
809.741	27176
809.883	27157
810.025	27298
810.166	27386
810.308	27355
810.45	27294
810.591	27355
810.733	27142
810.875	27089
811.016	27142
811.158	27085
811.299	27176
811.441	27386
811.582	27291
811.724	27039
811.865	26921
812.007	26906
812.148	27066
812.29	27173
812.431	27287
812.573	27351
812.714	27367
812.855	27469
812.997	27660
813.138	27755
813.279	27838
813.421	27671
813.562	27530
813.703	27340
813.845	27150
813.986	26857
814.127	26758
814.268	26663
814.41	26686
814.551	26739
814.692	26876
814.833	26625
814.974	26659
815.115	26716
815.256	26625
815.397	26701
815.539	26579
815.68	26427
815.821	26415
815.962	26461
816.103	26457
816.244	26446
816.385	26267
816.526	26130
816.666	25993
816.807	25993
816.948	26062
817.089	26119
817.23	25940
817.371	26092
817.512	25947
817.653	25966
817.793	25833
817.934	25993
818.075	26031
818.216	25966
818.356	25887
818.497	25734
818.638	25639
818.778	25780
818.919	25757
819.06	25753
819.2	25811
819.341	25944
819.481	25947
819.622	26172
819.762	26252
819.903	26305
820.043	26119
820.184	26065
820.324	26107
820.465	26138
820.605	26096
820.746	25978
820.886	25932
821.026	26077
821.167	25928
821.307	26096
821.447	25871
821.588	25921
821.728	25704
821.868	25556
822.008	25438
822.149	25464
822.289	25308
822.429	25221
822.569	25107
822.709	25088
822.849	24962
822.99	25057
823.13	24909
823.27	24791
823.41	24768
823.55	24703
823.69	24798
823.83	24715
823.97	24551
824.11	24528
824.25	24551
824.389	24471
824.529	24612
824.669	24471
824.809	24719
824.949	24555
825.089	24551
825.228	24646
825.368	24391
825.508	24574
825.648	24517
825.787	24441
825.927	24582
826.067	24388
826.206	24437
826.346	24414
826.485	24517
826.625	24494
826.765	24414
826.904	24448
827.044	24228
827.183	24319
827.323	24167
827.462	24182
827.601	24136
827.741	23999
827.88	24205
828.02	24030
828.159	24076
828.298	24114
828.437	24129
828.577	24091
828.716	24285
828.855	24011
828.994	23927
829.134	23912
829.273	23817
829.412	23916
829.551	23726
829.69	23878
829.829	23912
829.968	23870
830.107	23722
830.246	23923
830.385	23851
830.524	23684
830.663	23703
830.802	23509
830.941	23414
831.08	23376
831.219	23516
831.357	23570
831.496	23684
831.635	23516
831.774	23330
831.913	23391
832.051	23254
832.19	23132
832.329	23239
832.467	23242
832.606	23006
832.744	23037
832.883	23151
833.022	23083
833.16	23212
833.299	23147
833.437	23170
833.576	23204
833.714	23220
833.852	23246
833.991	23269
834.129	23273
834.267	23269
834.406	23094
834.544	23307
834.682	23212
834.821	23189
834.959	23455
835.097	23128
835.235	23315
835.373	23121
835.511	23136
835.65	23003
835.788	23071
835.926	22976
836.064	22831
836.202	22881
836.34	23041
836.478	23064
836.615	23018
836.753	23128
836.891	23090
837.029	23041
837.167	23003
837.305	22919
837.443	22896
837.58	22755
837.718	23010
837.856	22774
837.993	22805
838.131	22733
838.269	22668
838.406	22790
838.544	22694
838.681	22550
838.819	22417
838.956	22337
839.094	22310
839.231	22432
839.369	22588
839.506	22717
839.643	22565
839.781	22500
839.918	22325
840.055	22409
840.193	22356
840.33	22363
840.467	22314
840.604	22379
840.742	22573
840.879	22135
841.016	22318
841.153	22268
841.29	22394
841.427	22325
841.564	22234
841.701	22337
841.838	22329
841.975	22173
842.112	22207
842.249	22181
842.385	22078
842.522	22310
842.659	22109
842.796	22101
842.933	22021
843.069	22048
843.206	22002
843.343	22188
843.479	21968
843.616	21987
843.752	21907
843.889	21907
844.025	21983
844.162	21671
844.298	21926
844.435	21732
844.571	21876
844.708	21895
844.844	21972
844.98	21934
845.117	21926
845.253	21667
845.389	21698
845.525	21587
845.661	21751
845.798	21549
845.934	21549
846.07	21477
846.206	21637
846.342	21701
846.478	21580
846.614	21291
846.75	21287
846.886	21188
847.022	21340
847.158	21336
847.294	21279
847.429	21321
847.565	21245
847.701	21500
847.837	20944
847.972	20891
848.108	21161
848.244	21055
848.379	20910
848.515	20902
848.65	20902
848.786	20857
848.921	20876
849.057	20971
849.192	20880
849.328	20872
849.463	20941
849.598	20937
849.734	20842
849.869	20659
850.004	20727
850.14	20735
850.275	20667
850.41	20556
850.545	20587
850.68	20602
850.815	20598
850.95	20556
851.085	20758
851.22	20830
851.355	20568
851.49	20594
851.625	20640
851.76	20697
851.895	20617
852.03	20530
852.165	20693
852.299	20659
852.434	20640
852.569	20670
852.703	20617
852.838	20762
852.973	20762
853.107	20765
853.242	20632
853.376	20412
853.511	20366
853.645	20488
853.78	20568
853.914	20537
854.048	20419
854.183	20526
854.317	20446
854.451	20583
854.585	20488
854.72	20541
854.854	20450
854.988	20423
855.122	20396
855.256	20328
855.39	20434
855.524	20571
855.658	20495
855.792	20492
855.926	20476
856.06	20530
856.194	20480
856.327	20480
856.461	20393
856.595	20366
856.729	20556
856.862	20530
856.996	20450
857.13	20434
857.263	20708
857.397	20526
857.53	20495
857.664	20419
857.797	20526
857.931	20549
858.064	20492
858.197	20571
858.331	20625
858.464	20396
858.597	20347
858.731	20415
858.864	20469
858.997	20431
859.13	20427
859.263	20427
859.396	20568
859.529	20313
859.662	20465
859.795	20377
859.928	20514
860.061	20655
860.194	20598
860.327	20598
860.46	20465
860.592	20564
860.725	20689
860.858	20648
860.99	20495
861.123	20290
861.256	20366
861.388	20438
861.521	21066
861.653	20324
861.786	20317
861.918	20404
862.05	20343
862.183	20412
862.315	20442
862.447	20560
862.58	20351
862.712	20252
862.844	20214
862.976	20374
863.108	20210
863.24	20746
863.372	20199
863.504	20126
863.636	20229
863.768	20317
863.9	20191
864.032	20164
864.164	20157
864.296	20286
864.428	20275
864.559	20191
864.691	20358
864.823	20103
864.954	20237
865.086	20103
865.217	20111
865.349	20020
865.48	20119
865.612	20001
865.743	20191
865.875	20206
866.006	20100
866.137	20050
866.269	20191
866.4	20130
866.531	20001
866.662	19963
866.793	20126
866.924	20096
867.055	20134
867.186	20069
867.317	19944
867.448	19959
867.579	19944
867.71	19868
867.841	20016
867.972	19963
868.103	20005
868.233	20001
868.364	20050
868.495	20069
868.625	20309
868.756	20396
868.886	20111
869.017	20294
869.147	20370
869.278	20404
869.408	20343
869.539	20263
869.669	20252
869.799	20286
869.929	20514
870.06	20469
870.19	20667
870.32	20564
870.45	20606
870.58	20651
870.71	20788
870.84	20815
870.97	20568
871.1	20552
871.23	20899
871.36	20830
871.489	20800
871.619	20811
871.749	20823
871.879	20994
872.008	20990
872.138	20910
872.267	20960
872.397	20712
872.526	20705
872.656	20659
872.785	20758
872.915	20883
873.044	21093
873.173	20876
873.303	20902
873.432	21001
873.561	21036
873.69	20948
873.819	20941
873.948	20891
874.077	20937
874.206	20826
874.335	20960
874.464	20937
874.593	21116
874.722	21119
874.851	21085
874.979	21207
875.108	21055
875.237	21081
875.365	21036
875.494	21104
875.623	21287
875.751	21108
875.88	21176
876.008	21256
876.136	21260
876.265	21542
876.393	21682
876.521	21682
876.65	21561
876.778	21538
876.906	21538
877.034	21507
877.162	21549
877.29	21420
877.418	21401
877.546	21477
877.674	21545
877.802	21435
877.93	21416
878.058	21545
878.185	21344
878.313	21466
878.441	21466
878.568	21291
878.696	21511
878.824	21542
878.951	21732
879.079	21667
879.206	21778
879.333	21648
879.461	21553
879.588	21545
879.715	21526
879.842	21781
879.97	21545
880.097	21298
880.224	21397
880.351	21348
880.478	21321
880.605	21214
880.732	21287
880.859	21583
880.986	21397
881.112	21393
881.239	21127
881.366	20944
881.493	20986
881.619	20872
881.746	20921
881.872	20906
881.999	20902
882.125	20872
882.252	20868
882.378	20899
882.505	20956
882.631	20811
882.757	20609
882.883	20644
883.01	20701
883.136	20549
883.262	20457
883.388	20431
883.514	20583
883.64	20549
883.766	20518
883.892	20514
884.018	20446
884.143	20629
884.269	20674
884.395	20415
884.52	20237
884.646	20290
884.772	20157
884.897	20263
885.023	20221
885.148	20317
885.274	20484
885.399	20385
885.524	20225
885.65	20328
885.775	20214
885.9	20161
886.025	20431
886.15	20404
886.275	20233
886.4	20142
886.525	20240
886.65	20240
886.775	20202
886.9	20362
887.025	20385
887.149	20290
887.274	19989
887.399	19955
887.523	19993
887.648	19963
887.773	20016
887.897	20180
888.021	20092
888.146	19898
888.27	20107
888.395	20111
888.519	20115
888.643	20145
888.767	20092
888.891	20020
889.015	19788
889.139	19909
889.263	19871
889.387	19963
889.511	20183
889.635	19883
889.759	19761
889.883	19955
890.006	19723
890.13	19917
890.254	19704
890.377	19772
890.501	19689
890.624	19594
890.748	19544
890.871	19480
890.995	19392
891.118	19339
891.241	19362
891.364	19487
891.488	19571
891.611	19460
891.734	19411
891.857	19514
891.98	19422
892.103	19499
892.226	19384
892.349	19358
892.471	19251
892.594	19251
892.717	19487
892.839	19270
892.962	19320
893.085	19354
893.207	19331
893.33	19297
893.452	19160
893.575	19365
893.697	19346
893.819	19540
893.941	19533
894.064	19491
894.186	19362
894.308	19301
894.43	19464
894.552	19487
894.674	19381
894.796	19343
894.918	19358
895.04	19247
895.161	19312
895.283	19339
895.405	19369
895.526	19373
895.648	19392
895.769	19282
895.891	19346
896.012	19499
896.134	19430
896.255	19388
896.376	19285
896.498	19320
896.619	19419
896.74	19354
896.861	19335
896.982	19715
897.103	19814
897.224	19666
897.345	19616
897.466	19540
897.587	19449
897.708	19613
897.828	19666
897.949	19544
898.07	19339
898.19	19480
898.311	19670
898.431	19590
898.552	19510
898.672	19723
898.792	19685
898.913	19578
899.033	19567
899.153	19369
899.273	19312
899.393	19369
899.513	19362
899.633	19537
899.753	19438
899.873	19274
899.993	19308
900.113	19228
900.232	19365
900.352	19304
900.472	19236
900.591	19145
900.711	19152
900.83	19141
900.95	19312
901.069	19225
901.189	19000
901.308	18802
901.427	18814
901.546	18844
901.665	18688
901.784	18711
901.904	18661
902.023	18429
902.141	18380
902.26	18380
902.379	18407
902.498	18254
902.617	18247
902.735	18323
902.854	18273
902.973	18232
903.091	17954
903.21	17977
903.328	17973
903.446	17847
903.565	17748
903.683	17703
903.801	17623
903.919	17748
904.038	17684
904.156	17528
904.274	17634
904.392	17486
904.51	17642
904.627	17478
904.745	17558
904.863	17589
904.981	17391
905.098	17250
905.216	17132
905.334	17204
905.451	17124
905.569	17166
905.686	17212
905.803	17223
905.921	16984
906.038	17079
906.155	16980
906.272	16850
906.389	16984
906.506	16778
906.623	16725
906.74	16698
906.857	16603
906.974	16725
907.091	16774
907.208	16820
907.324	16782
907.441	16687
907.557	16451
907.674	16390
907.79	16447
907.907	16379
908.023	16443
908.139	16519
908.256	16421
908.372	16337
908.488	16367
908.604	16246
908.72	16196
908.836	16204
908.952	16185
909.068	16143
909.184	16185
909.3	16242
909.415	16223
909.531	16215
909.647	15953
909.762	15930
909.878	15831
909.993	15926
910.108	15899
910.224	15892
910.339	15884
910.454	15743
910.57	15629
910.685	15644
910.8	15850
910.915	15838
911.03	15709
911.145	15568
911.259	15557
911.374	15488
911.489	15424
911.604	15469
911.718	15306
911.833	15226
911.947	15176
912.062	15150
912.176	15336
912.291	15332
912.405	15405
912.519	15450
912.633	15424
912.748	15321
912.862	15264
912.976	15070
913.09	14994
913.204	15039
913.318	15089
913.431	15214
913.545	15218
913.659	15176
913.772	15017
913.886	14899
914	14834
914.113	14986
914.226	14994
914.34	15009
914.453	14720
914.566	14811
914.68	14754
914.793	14743
914.906	14636
915.019	14499
915.132	14415
915.245	14514
915.358	14549
915.47	14530
915.583	14564
915.696	14507
915.809	14602
915.921	14682
916.034	14465
916.146	14488
916.259	14377
916.371	14385
916.483	14404
916.595	14301
916.708	14393
916.82	14328
916.932	14328
917.044	14396
917.156	14317
917.268	14187
917.38	14130
917.491	14130
917.603	14161
917.715	14294
917.826	14343
917.938	14111
918.049	14054
918.161	14100
918.272	14374
918.384	14145
918.495	14187
918.606	14123
918.717	13936
918.828	14054
918.939	13959
919.05	13784
919.161	13921
919.272	13746
919.383	13780
919.494	13955
919.604	14092
919.715	14027
919.826	13986
919.936	13986
920.047	14012
920.157	14001
920.267	14050
920.378	13925
920.488	13936
920.598	14050
920.708	14145
920.818	14115
920.928	14077
921.038	14259
921.148	14134
921.258	13864
921.368	13791
921.477	13689
921.587	13609
921.697	13510
921.806	13670
921.916	13480
922.025	13316
922.134	13335
922.244	13297
922.353	13400
922.462	13285
922.571	13118
922.68	12966
922.789	12958
922.898	13050
923.007	12897
923.116	12993
923.224	12920
923.333	12890
923.442	12848
923.55	12745
923.659	12875
923.767	12878
923.876	12757
923.984	12837
924.092	12745
924.201	12795
924.309	12722
924.417	12753
924.525	12688
924.633	12597
924.741	13445
924.849	12433
924.956	12612
925.064	12448
925.172	12380
925.279	12365
925.387	12479
925.494	12445
925.602	12498
925.709	12475
925.816	12334
925.924	12304
926.031	12357
926.138	12292
926.245	12456
926.352	12220
926.459	12342
926.566	12475
926.673	12311
926.779	12197
926.886	12232
926.993	12049
927.099	11935
927.206	11961
927.312	11999
927.419	12015
927.525	12030
927.631	12007
927.737	11885
927.843	11893
927.95	11798
928.056	11805
928.162	11878
928.267	11878
928.373	12532
928.479	11897
928.585	11589
928.69	11760
928.796	11832
928.901	11695
929.007	11668
929.112	11745
929.218	11688
929.323	11611
929.428	11672
929.533	11630
929.638	11532
929.743	11528
929.848	11634
929.953	11562
930.058	11429
930.163	11345
930.267	11288
930.372	11433
930.477	11212
930.581	11474
930.685	11265
930.79	11147
930.894	11242
930.998	11136
931.103	11303
931.207	10957
931.311	10824
931.415	10767
931.519	10588
931.623	10516
