Data from test_V78500241_2717.txt Node
Date: Fri Mar 25 15:28:46 CST 2022
User: usil
Spectrometer: V785-0024
Trigger mode: 0
Integration Time (sec): 4.000000E-1
Scans to average: 1
Nonlinearity correction enabled: false
Boxcar width: 0
Storing dark spectrum: false
XAxis mode: Wavelengths
Number of Pixels in Spectrum: 1024
>>>>>Begin Spectral Data<<<<<
801.071	27165
801.214	27135
801.356	26933
801.499	26868
801.641	26697
801.783	26724
801.926	26811
802.068	26868
802.211	26583
802.353	26552
802.496	26446
802.638	26381
802.78	26317
802.923	26358
803.065	26153
803.208	26187
803.35	26320
803.492	26431
803.635	26655
803.777	26492
803.919	26526
804.061	26644
804.204	26556
804.346	26336
804.488	26358
804.63	26389
804.773	26545
804.915	26457
805.057	26484
805.199	26412
805.341	26549
805.483	26575
805.626	26564
805.768	26400
805.91	26598
806.052	26617
806.194	26602
806.336	26826
806.478	26473
806.62	26568
806.762	26705
806.904	26872
807.046	27081
807.188	27116
807.33	26979
807.472	27089
807.614	26887
807.756	26910
807.898	26762
808.04	26708
808.182	26823
808.324	26834
808.465	26940
808.607	26994
808.749	27157
808.891	27165
809.033	27325
809.174	27264
809.316	27237
809.458	27184
809.6	27195
809.741	27306
809.883	27313
810.025	27427
810.166	27435
810.308	27382
810.45	27374
810.591	27424
810.733	27150
810.875	27146
811.016	27188
811.158	27184
811.299	27374
811.441	27431
811.582	27321
811.724	27245
811.865	27135
812.007	27017
812.148	27043
812.29	27176
812.431	27344
812.573	27435
812.714	27561
812.855	27724
812.997	27717
813.138	28036
813.279	27705
813.421	27614
813.562	27523
813.703	27389
813.845	27218
813.986	27013
814.127	27032
814.268	26773
814.41	26746
814.551	26838
814.692	26883
814.833	26617
814.974	26663
815.115	26842
815.256	26712
815.397	26667
815.539	26552
815.68	26644
815.821	26495
815.962	26651
816.103	26537
816.244	26396
816.385	26434
816.526	26286
816.666	26214
816.807	26062
816.948	26149
817.089	26130
817.23	26005
817.371	26096
817.512	26012
817.653	26126
817.793	26050
817.934	26206
818.075	26058
818.216	26164
818.356	26035
818.497	25959
818.638	25849
818.778	25860
818.919	25944
819.06	25902
819.2	25951
819.341	26012
819.481	26012
819.622	26233
819.762	26358
819.903	26328
820.043	26164
820.184	26058
820.324	26088
820.465	26115
820.605	26199
820.746	26138
820.886	26012
821.026	26259
821.167	26164
821.307	26172
821.447	26142
821.588	25936
821.728	25906
821.868	25590
822.008	25518
822.149	25537
822.289	25495
822.429	25266
822.569	25122
822.709	25198
822.849	25080
822.99	24970
823.13	24966
823.27	24966
823.41	24890
823.55	24779
823.69	24837
823.83	24867
823.97	24772
824.11	24696
824.25	24620
824.389	24635
824.529	24779
824.669	24601
824.809	24741
824.949	24757
825.089	24738
825.228	24616
825.368	24475
825.508	24578
825.648	24585
825.787	24635
825.927	24597
826.067	24410
826.206	24570
826.346	24612
826.485	24528
826.625	24559
826.765	24597
826.904	24646
827.044	24308
827.183	24281
827.323	24205
827.462	24247
827.601	24281
827.741	24125
827.88	24308
828.02	24163
828.159	24285
828.298	24205
828.437	24372
828.577	24136
828.716	24327
828.855	24213
828.994	23965
829.134	23950
829.273	23988
829.412	23897
829.551	23946
829.69	23912
829.829	23992
829.968	24072
830.107	23961
830.246	23840
830.385	23870
830.524	23817
830.663	23733
830.802	23649
830.941	23421
831.08	23573
831.219	23653
831.357	23630
831.496	23843
831.635	23630
831.774	23543
831.913	23444
832.051	23372
832.19	23387
832.329	23402
832.467	23345
832.606	23155
832.744	23284
832.883	23265
833.022	23151
833.16	23216
833.299	23174
833.437	23288
833.576	23356
833.714	23322
833.852	23307
833.991	23356
834.129	23417
834.267	23421
834.406	23326
834.544	23292
834.682	23334
834.821	23151
834.959	23440
835.097	23231
835.235	23284
835.373	23299
835.511	23216
835.65	23140
835.788	23132
835.926	23128
836.064	22965
836.202	23060
836.34	23170
836.478	23174
836.615	23083
836.753	23086
836.891	23121
837.029	23162
837.167	23060
837.305	23246
837.443	22976
837.58	23075
837.718	22999
837.856	22972
837.993	22889
838.131	23025
838.269	23033
838.406	22953
838.544	22858
838.681	22672
838.819	22577
838.956	22481
839.094	22466
839.231	22607
839.369	22740
839.506	22820
839.643	22713
839.781	22432
839.918	22303
840.055	22405
840.193	22455
840.33	22367
840.467	22424
840.604	22443
840.742	22687
840.879	22238
841.016	22481
841.153	22268
841.29	22527
841.427	22421
841.564	22246
841.701	22352
841.838	22398
841.975	22325
842.112	22306
842.249	22188
842.385	22242
842.522	22405
842.659	22226
842.796	22116
842.933	22226
843.069	22105
843.206	22059
843.343	22128
843.479	22211
843.616	22234
843.752	21915
843.889	21945
844.025	22040
844.162	21949
844.298	22051
844.435	22002
844.571	21918
844.708	21941
844.844	22135
844.98	22036
845.117	22055
845.253	21827
845.389	21637
845.525	21838
845.661	21793
845.798	21679
845.934	21766
846.07	21561
846.206	21713
846.342	21778
846.478	21557
846.614	21530
846.75	21329
846.886	21488
847.022	21553
847.158	21481
847.294	21412
847.429	21370
847.565	21416
847.701	21690
847.837	21104
847.972	21173
848.108	21256
848.244	21207
848.379	21032
848.515	20956
848.65	21017
848.786	21070
848.921	21066
849.057	21116
849.192	21119
849.328	20967
849.463	21024
849.598	21028
849.734	20918
849.869	20891
850.004	20834
850.14	20933
850.275	20880
850.41	20552
850.545	20648
850.68	20769
850.815	20746
850.95	20693
851.085	20891
851.22	20788
851.355	20731
851.49	20735
851.625	20697
851.76	20743
851.895	20785
852.03	20701
852.165	20773
852.299	20697
852.434	20857
852.569	20842
852.703	20731
852.838	20861
852.973	20785
853.107	20902
853.242	20625
853.376	20670
853.511	20400
853.645	20579
853.78	20754
853.914	20598
854.048	20587
854.183	20636
854.317	20720
854.451	20861
854.585	20636
854.72	20590
854.854	20697
854.988	20560
855.122	20648
855.256	20613
855.39	20530
855.524	20598
855.658	20556
855.792	20716
855.926	20575
856.06	20594
856.194	20686
856.327	20655
856.461	20587
856.595	20571
856.729	20503
856.862	20686
856.996	20659
857.13	20579
857.263	20606
857.397	20663
857.53	20522
857.664	20644
857.797	20651
857.931	20678
858.064	20503
858.197	20678
858.331	20629
858.464	20621
858.597	20450
858.731	20526
858.864	20514
858.997	20621
859.13	20587
859.263	20621
859.396	20750
859.529	20583
859.662	20587
859.795	20533
859.928	20579
860.061	20689
860.194	20781
860.327	20617
860.46	20594
860.592	20609
860.725	20716
860.858	20739
860.99	20640
861.123	20537
861.256	20511
861.388	20644
861.521	21294
861.653	20454
861.786	20393
861.918	20438
862.05	20575
862.183	20465
862.315	20450
862.447	20541
862.58	20533
862.712	20362
862.844	20328
862.976	20438
863.108	20461
863.24	20823
863.372	20252
863.504	20339
863.636	20317
863.768	20370
863.9	20275
864.032	20290
864.164	20305
864.296	20309
864.428	20427
864.559	20396
864.691	20362
864.823	20370
864.954	20225
865.086	20294
865.217	20164
865.349	20088
865.48	20161
865.612	20168
865.743	20332
865.875	20214
866.006	20221
866.137	20138
866.269	20229
866.4	20286
866.531	20107
866.662	20100
866.793	20050
866.924	20149
867.055	20153
867.186	20256
867.317	20088
867.448	20142
867.579	20073
867.71	20081
867.841	20122
867.972	20130
868.103	20164
868.233	20206
868.364	20191
868.495	20298
868.625	20381
868.756	20419
868.886	20415
869.017	20427
869.147	20530
869.278	20499
869.408	20594
869.539	20377
869.669	20518
869.799	20469
869.929	20575
870.06	20587
870.19	20579
870.32	20606
870.45	20602
870.58	20758
870.71	20853
870.84	20960
870.97	20823
871.1	20762
871.23	20906
871.36	21017
871.489	20960
871.619	20899
871.749	21100
871.879	21024
872.008	21112
872.138	20960
872.267	21070
872.397	20864
872.526	21009
872.656	20967
872.785	20887
872.915	21112
873.044	20998
873.173	20975
873.303	21188
873.432	21176
873.561	21104
873.69	20979
873.819	21013
873.948	21062
874.077	21081
874.206	20887
874.335	21047
874.464	21165
874.593	21272
874.722	21260
874.851	21363
874.979	21279
875.108	21325
875.237	21245
875.365	21135
875.494	21252
875.623	21466
875.751	21298
875.88	21233
876.008	21321
876.136	21454
876.265	21682
876.393	21755
876.521	21644
876.65	21819
876.778	21583
876.906	21591
877.034	21648
877.162	21587
877.29	21595
877.418	21690
877.546	21641
877.674	21641
877.802	21526
877.93	21542
878.058	21572
878.185	21386
878.313	21564
878.441	21416
878.568	21382
878.696	21515
878.824	21625
878.951	21713
879.079	21778
879.206	21979
879.333	21698
879.461	21526
879.588	21705
879.715	21850
879.842	21945
879.97	21705
880.097	21454
880.224	21481
880.351	21504
880.478	21382
880.605	21405
880.732	21401
880.859	21679
880.986	21492
881.112	21507
881.239	21420
881.366	21218
881.493	21051
881.619	20899
881.746	21055
881.872	21074
881.999	21058
882.125	21005
882.252	21062
882.378	20849
882.505	21089
882.631	20887
882.757	20735
882.883	20834
883.01	20720
883.136	20731
883.262	20720
883.388	20514
883.514	20735
883.64	20754
883.766	20663
883.892	20484
884.018	20495
884.143	20701
884.269	20724
884.395	20568
884.52	20385
884.646	20358
884.772	20309
884.897	20271
885.023	20343
885.148	20480
885.274	20568
885.399	20594
885.524	20400
885.65	20442
885.775	20362
885.9	20332
886.025	20431
886.15	20389
886.275	20320
886.4	20248
886.525	20389
886.65	20278
886.775	20282
886.9	20495
887.025	20571
887.149	20412
887.274	20233
887.399	20081
887.523	20149
887.648	20202
887.773	20111
887.897	20191
888.021	20324
888.146	20100
888.27	20202
888.395	20263
888.519	20142
888.643	20119
888.767	20206
888.891	20069
889.015	19944
889.139	20043
889.263	19974
889.387	20149
889.511	20176
889.635	20054
889.759	19940
889.883	19967
890.006	19974
890.13	20027
890.254	19902
890.377	19837
890.501	19742
890.624	19746
890.748	19635
890.871	19685
890.995	19483
891.118	19529
891.241	19563
891.364	19502
891.488	19677
891.611	19578
891.734	19514
891.857	19635
891.98	19567
892.103	19540
892.226	19548
892.349	19396
892.471	19407
892.594	19571
892.717	19472
892.839	19369
892.962	19506
893.085	19567
893.207	19514
893.33	19411
893.452	19373
893.575	19548
893.697	19514
893.819	19533
893.941	19632
894.064	19670
894.186	19438
894.308	19369
894.43	19499
894.552	19590
894.674	19658
894.796	19419
894.918	19384
895.04	19373
895.161	19582
895.283	19594
895.405	19495
895.526	19419
895.648	19381
895.769	19419
895.891	19422
896.012	19594
896.134	19426
896.255	19548
896.376	19483
896.498	19578
896.619	19453
896.74	19438
896.861	19578
896.982	19780
897.103	19708
897.224	19868
897.345	19772
897.466	19647
897.587	19723
897.708	19807
897.828	19685
897.949	19643
898.07	19487
898.19	19559
898.311	19841
898.431	19746
898.552	19788
898.672	19753
898.792	19765
898.913	19746
899.033	19674
899.153	19457
899.273	19495
899.393	19438
899.513	19426
899.633	19575
899.753	19495
899.873	19316
899.993	19510
900.113	19304
900.232	19464
900.352	19339
900.472	19251
900.591	19266
900.711	19320
900.83	19308
900.95	19415
901.069	19320
901.189	19183
901.308	18909
901.427	18772
901.546	18760
901.665	19000
901.784	18875
901.904	18745
902.023	18623
902.141	18441
902.26	18422
902.379	18464
902.498	18342
902.617	18228
902.735	18391
902.854	18315
902.973	18285
903.091	17977
903.21	18057
903.328	18083
903.446	17965
903.565	17885
903.683	17939
903.801	17699
903.919	17783
904.038	17809
904.156	17729
904.274	17684
904.392	17684
904.51	17551
904.627	17592
904.745	17627
904.863	17596
904.981	17402
905.098	17364
905.216	17360
905.334	17406
905.451	17261
905.569	17334
905.686	17368
905.803	17326
905.921	17090
906.038	17166
906.155	17098
906.272	17033
906.389	16980
906.506	16862
906.623	16915
906.74	16790
906.857	16691
906.974	16805
907.091	16942
907.208	16885
907.324	16793
907.441	16744
907.557	16580
907.674	16710
907.79	16550
907.907	16645
908.023	16630
908.139	16554
908.256	16440
908.372	16481
908.488	16489
908.604	16226
908.72	16371
908.836	16356
908.952	16291
909.068	16352
909.184	16375
909.3	16303
909.415	16329
909.531	16200
909.647	15979
909.762	15941
909.878	16006
909.993	16086
910.108	15888
910.224	16006
910.339	15949
910.454	15869
910.57	15842
910.685	15713
910.8	16010
910.915	15960
911.03	15781
911.145	15591
911.259	15599
911.374	15504
911.489	15511
911.604	15633
911.718	15302
911.833	15526
911.947	15275
912.062	15173
912.176	15515
912.291	15401
912.405	15416
912.519	15660
912.633	15557
912.748	15450
912.862	15279
912.976	15127
913.09	15150
913.204	15089
913.318	15199
913.431	15325
913.545	15249
913.659	15275
913.772	15176
913.886	15043
914	15013
914.113	15104
914.226	15135
914.34	15017
914.453	14872
914.566	14960
914.68	14861
914.793	14826
914.906	14697
915.019	14568
915.132	14499
915.245	14651
915.358	14613
915.47	14545
915.583	14549
915.696	14773
915.809	14670
915.921	14765
916.034	14560
916.146	14507
916.259	14594
916.371	14560
916.483	14587
916.595	14541
916.708	14351
916.82	14442
916.932	14495
917.044	14396
917.156	14336
917.268	14313
917.38	14290
917.491	14290
917.603	14252
917.715	14362
917.826	14400
917.938	14225
918.049	14172
918.161	14252
918.272	14370
918.384	14317
918.495	14229
918.606	14069
918.717	13928
918.828	14058
918.939	14062
919.05	14016
919.161	13970
919.272	13769
919.383	13860
919.494	14126
919.604	14176
919.715	14008
919.826	13944
919.936	13989
920.047	14058
920.157	14035
920.267	14214
920.378	14081
920.488	14050
920.598	14103
920.708	14370
920.818	14126
920.928	14210
921.038	14225
921.148	14278
921.258	13947
921.368	13894
921.477	13879
921.587	13837
921.697	13609
921.806	13788
921.916	13658
922.025	13480
922.134	13407
922.244	13354
922.353	13457
922.462	13339
922.571	13228
922.68	13088
922.789	13080
922.898	13088
923.007	12977
923.116	13118
923.224	13034
923.333	12989
923.442	12878
923.55	12859
923.659	12996
923.767	12882
923.876	12890
923.984	12901
924.092	12764
924.201	12810
924.309	12802
924.417	12806
924.525	12734
924.633	12802
924.741	13643
924.849	12547
924.956	12616
925.064	12448
925.172	12494
925.279	12479
925.387	12563
925.494	12502
925.602	12623
925.709	12662
925.816	12433
925.924	12452
926.031	12563
926.138	12498
926.245	12460
926.352	12399
926.459	12563
926.566	12536
926.673	12414
926.779	12429
926.886	12247
926.993	12133
927.099	12064
927.206	12053
927.312	12117
927.419	12190
927.525	11988
927.631	12155
927.737	12011
927.843	11882
927.95	11824
928.056	11832
928.162	11931
928.267	11980
928.373	12483
928.479	11965
928.585	11851
928.69	11878
928.796	11969
928.901	11798
929.007	11672
929.112	11805
929.218	11786
929.323	11657
929.428	11623
929.533	11767
929.638	11566
929.743	11516
929.848	11680
929.953	11551
930.058	11589
930.163	11292
930.267	11364
930.372	11455
930.477	11322
930.581	11577
930.685	11364
930.79	11220
930.894	11273
930.998	11212
931.103	11368
931.207	11006
931.311	10957
931.415	10759
931.519	10634
931.623	10637
