Data from test_V78500241_1376.txt Node
Date: Fri Mar 25 15:19:26 CST 2022
User: usil
Spectrometer: V785-0024
Trigger mode: 0
Integration Time (sec): 4.000000E-1
Scans to average: 1
Nonlinearity correction enabled: false
Boxcar width: 0
Storing dark spectrum: false
XAxis mode: Wavelengths
Number of Pixels in Spectrum: 1024
>>>>>Begin Spectral Data<<<<<
801.071	28086
801.214	28086
801.356	27895
801.499	27914
801.641	27637
801.783	27728
801.926	27747
802.068	27606
802.211	27648
802.353	27447
802.496	27408
802.638	27382
802.78	27530
802.923	27245
803.065	27116
803.208	27275
803.35	27283
803.492	27370
803.635	27393
803.777	27447
803.919	27515
804.061	27603
804.204	27549
804.346	27447
804.488	27507
804.63	27553
804.773	27420
804.915	27629
805.057	27644
805.199	27549
805.341	27705
805.483	27690
805.626	27644
805.768	27637
805.91	27526
806.052	27686
806.194	27675
806.336	27743
806.478	27660
806.62	27698
806.762	27774
806.904	27998
807.046	28200
807.188	28150
807.33	28021
807.472	28162
807.614	27983
807.756	28029
807.898	27983
808.04	27800
808.182	27960
808.324	27934
808.465	27930
808.607	28314
808.749	28417
808.891	28322
809.033	28538
809.174	28314
809.316	28219
809.458	28322
809.6	28306
809.741	28535
809.883	28527
810.025	28500
810.166	28675
810.308	28687
810.45	28660
810.591	28413
810.733	28462
810.875	28215
811.016	28242
811.158	28276
811.299	28299
811.441	28519
811.582	28516
811.724	28280
811.865	28314
812.007	28295
812.148	28348
812.29	28504
812.431	28607
812.573	28736
812.714	28763
812.855	28824
812.997	29044
813.138	29094
813.279	29018
813.421	28942
813.562	28831
813.703	28675
813.845	28702
813.986	28276
814.127	28249
814.268	28070
814.41	28166
814.551	27991
814.692	28166
814.833	28002
814.974	27960
815.115	28200
815.256	27907
815.397	27884
815.539	27880
815.68	27793
815.821	27838
815.962	27907
816.103	27854
816.244	27751
816.385	27530
816.526	27641
816.666	27264
816.807	27329
816.948	27473
817.089	27568
817.23	27439
817.371	27348
817.512	27321
817.653	27272
817.793	27165
817.934	27416
818.075	27431
818.216	27424
818.356	27344
818.497	27226
818.638	26971
818.778	26982
818.919	27119
819.06	27195
819.2	27211
819.341	27386
819.481	27332
819.622	27507
819.762	27644
819.903	27610
820.043	27523
820.184	27393
820.324	27386
820.465	27603
820.605	27576
820.746	27443
820.886	27462
821.026	27435
821.167	27397
821.307	27382
821.447	27203
821.588	27302
821.728	27336
821.868	26998
822.008	26804
822.149	26849
822.289	26689
822.429	26609
822.569	26511
822.709	26571
822.849	26339
822.99	26438
823.13	26294
823.27	26427
823.41	26126
823.55	26043
823.69	26176
823.83	26225
823.97	25947
824.11	25925
824.25	25811
824.389	25966
824.529	26073
824.669	26088
824.809	26161
824.949	25989
825.089	25963
825.228	25955
825.368	25818
825.508	25780
825.648	25830
825.787	25826
825.927	25959
826.067	25845
826.206	25879
826.346	25887
826.485	25875
826.625	25982
826.765	25909
826.904	25955
827.044	25715
827.183	25609
827.323	25552
827.462	25662
827.601	25521
827.741	25594
827.88	25613
828.02	25533
828.159	25537
828.298	25514
828.437	25453
828.577	25525
828.716	25552
828.855	25468
828.994	25362
829.134	25141
829.273	25289
829.412	25255
829.551	25118
829.69	25304
829.829	25350
829.968	25327
830.107	25358
830.246	25274
830.385	25228
830.524	25137
830.663	25057
830.802	25050
830.941	24958
831.08	24764
831.219	24905
831.357	25008
831.496	24992
831.635	24920
831.774	24783
831.913	24688
832.051	24700
832.19	24593
832.329	24544
832.467	24555
832.606	24582
832.744	24582
832.883	24555
833.022	24475
833.16	24445
833.299	24635
833.437	24486
833.576	24563
833.714	24703
833.852	24635
833.991	24711
834.129	24757
834.267	24715
834.406	24654
834.544	24547
834.682	24525
834.821	24563
834.959	24840
835.097	24486
835.235	24642
835.373	24589
835.511	24627
835.65	24517
835.788	24490
835.926	24448
836.064	24182
836.202	24311
836.34	24502
836.478	24555
836.615	24483
836.753	24376
836.891	24399
837.029	24566
837.167	24296
837.305	24388
837.443	24273
837.58	24277
837.718	24251
837.856	24247
837.993	24224
838.131	24247
838.269	24136
838.406	24144
838.544	24072
838.681	23969
838.819	23802
838.956	23691
839.094	23798
839.231	23790
839.369	23859
839.506	24197
839.643	23958
839.781	23649
839.918	23581
840.055	23741
840.193	23699
840.33	23676
840.467	23634
840.604	23737
840.742	23950
840.879	23562
841.016	23703
841.153	23570
841.29	23733
841.427	23726
841.564	23687
841.701	23516
841.838	23566
841.975	23471
842.112	23440
842.249	23436
842.385	23398
842.522	23562
842.659	23490
842.796	23364
842.933	23387
843.069	23410
843.206	23364
843.343	23414
843.479	23501
843.616	23421
843.752	23220
843.889	23231
844.025	23318
844.162	23200
844.298	23242
844.435	23102
844.571	23044
844.708	23311
844.844	23246
844.98	23398
845.117	23197
845.253	23193
845.389	23083
845.525	23117
845.661	23064
845.798	22915
845.934	22946
846.07	22984
846.206	22885
846.342	23037
846.478	22885
846.614	22691
846.75	22607
846.886	22653
847.022	22797
847.158	22641
847.294	22615
847.429	22641
847.565	22596
847.701	22934
847.837	22497
847.972	22291
848.108	22462
848.244	22466
848.379	22295
848.515	22139
848.65	22215
848.786	22261
848.921	22211
849.057	22352
849.192	22314
849.328	22287
849.463	22112
849.598	22162
849.734	22082
849.869	21983
850.004	22002
850.14	22078
850.275	21994
850.41	22029
850.545	21964
850.68	21953
850.815	22112
850.95	21987
851.085	22219
851.22	22139
851.355	21983
851.49	22048
851.625	21926
851.76	21968
851.895	21823
852.03	21895
852.165	21907
852.299	21831
852.434	21953
852.569	22067
852.703	21941
852.838	21979
852.973	22029
853.107	22169
853.242	21960
853.376	21762
853.511	21732
853.645	21743
853.78	21911
853.914	21732
854.048	21713
854.183	21739
854.317	21808
854.451	22036
854.585	21770
854.72	21812
854.854	21854
854.988	21732
855.122	21827
855.256	21679
855.39	21785
855.524	21800
855.658	21797
855.792	21797
855.926	21800
856.06	21922
856.194	21861
856.327	21800
856.461	21778
856.595	21778
856.729	21739
856.862	21941
856.996	21892
857.13	21823
857.263	21956
857.397	21941
857.53	21797
857.664	21804
857.797	21800
857.931	21907
858.064	21937
858.197	21884
858.331	21747
858.464	21766
858.597	21671
858.731	21610
858.864	21838
858.997	21831
859.13	21778
859.263	21724
859.396	21831
859.529	21739
859.662	21743
859.795	21778
859.928	21743
860.061	22044
860.194	21884
860.327	21747
860.46	21846
860.592	21915
860.725	21960
860.858	21922
860.99	21743
861.123	21797
861.256	21800
861.388	21793
861.521	22424
861.653	21614
861.786	21633
861.918	21709
862.05	21720
862.183	21675
862.315	21682
862.447	21823
862.58	21660
862.712	21450
862.844	21496
862.976	21633
863.108	21614
863.24	21835
863.372	21523
863.504	21496
863.636	21370
863.768	21545
863.9	21572
864.032	21294
864.164	21408
864.296	21420
864.428	21679
864.559	21591
864.691	21591
864.823	21450
864.954	21367
865.086	21485
865.217	21504
865.349	21374
865.48	21466
865.612	21412
865.743	21428
865.875	21447
866.006	21321
866.137	21431
866.269	21291
866.4	21389
866.531	21287
866.662	21389
866.793	21279
866.924	21363
867.055	21329
867.186	21370
867.317	21359
867.448	21291
867.579	21310
867.71	21279
867.841	21135
867.972	21272
868.103	21268
868.233	21264
868.364	21268
868.495	21294
868.625	21538
868.756	21701
868.886	21447
869.017	21515
869.147	21686
869.278	21633
869.408	21466
869.539	21519
869.669	21663
869.799	21633
869.929	21644
870.06	21736
870.19	21983
870.32	21808
870.45	21918
870.58	21960
870.71	22055
870.84	22006
870.97	21800
871.1	21911
871.23	22185
871.36	22105
871.489	22040
871.619	22128
871.749	22074
871.879	22196
872.008	22303
872.138	22070
872.267	22131
872.397	22017
872.526	21915
872.656	21915
872.785	21930
872.915	22226
873.044	22257
873.173	22147
873.303	22204
873.432	22314
873.561	22261
873.69	22196
873.819	22196
873.948	22147
874.077	22192
874.206	22204
874.335	22246
874.464	22226
874.593	22386
874.722	22379
874.851	22474
874.979	22371
875.108	22459
875.237	22402
875.365	22337
875.494	22291
875.623	22432
875.751	22299
875.88	22440
876.008	22599
876.136	22550
876.265	22809
876.393	22797
876.521	22816
876.65	22885
876.778	22752
876.906	22713
877.034	22645
877.162	22694
877.29	22675
877.418	22729
877.546	22710
877.674	22637
877.802	22721
877.93	22687
878.058	22694
878.185	22599
878.313	22538
878.441	22596
878.568	22569
878.696	22752
878.824	22615
878.951	22866
879.079	22991
879.206	22995
879.333	22927
879.461	22736
879.588	22915
879.715	23006
879.842	22942
879.97	22793
880.097	22546
880.224	22459
880.351	22634
880.478	22668
880.605	22485
880.732	22577
880.859	22736
880.986	22535
881.112	22512
881.239	22478
881.366	22230
881.493	22223
881.619	22101
881.746	22090
881.872	22097
881.999	22105
882.125	21975
882.252	22150
882.378	22078
882.505	22192
882.631	21926
882.757	21819
882.883	21781
883.01	21899
883.136	21717
883.262	21698
883.388	21644
883.514	21747
883.64	21945
883.766	21724
883.892	21568
884.018	21610
884.143	21720
884.269	21865
884.395	21587
884.52	21431
884.646	21454
884.772	21378
884.897	21336
885.023	21458
885.148	21519
885.274	21610
885.399	21530
885.524	21435
885.65	21397
885.775	21458
885.9	21340
886.025	21538
886.15	21511
886.275	21329
886.4	21428
886.525	21488
886.65	21344
886.775	21329
886.9	21591
887.025	21633
887.149	21473
887.274	21260
887.399	21207
887.523	21211
887.648	21116
887.773	21093
887.897	21283
888.021	21336
888.146	21150
888.27	21313
888.395	21382
888.519	21237
888.643	21192
888.767	21241
888.891	21039
889.015	20941
889.139	21119
889.263	21009
889.387	21104
889.511	21233
889.635	21104
889.759	20921
889.883	20986
890.006	20937
890.13	21096
890.254	20975
890.377	20933
890.501	20754
890.624	20678
890.748	20834
890.871	20568
890.995	20552
891.118	20488
891.241	20583
891.364	20568
891.488	20724
891.611	20594
891.734	20583
891.857	20590
891.98	20541
892.103	20568
892.226	20609
892.349	20465
892.471	20442
892.594	20514
892.717	20492
892.839	20377
892.962	20404
893.085	20526
893.207	20476
893.33	20404
893.452	20362
893.575	20446
893.697	20541
893.819	20476
893.941	20735
894.064	20549
894.186	20415
894.308	20408
894.43	20503
894.552	20632
894.674	20587
894.796	20396
894.918	20336
895.04	20492
895.161	20575
895.283	20560
895.405	20336
895.526	20499
895.648	20415
895.769	20442
895.891	20450
896.012	20446
896.134	20495
896.255	20552
896.376	20454
896.498	20465
896.619	20480
896.74	20480
896.861	20526
896.982	20792
897.103	20880
897.224	20613
897.345	20727
897.466	20689
897.587	20716
897.708	20781
897.828	20617
897.949	20594
898.07	20530
898.19	20590
898.311	20899
898.431	20659
898.552	20632
898.672	20754
898.792	20705
898.913	20701
899.033	20533
899.153	20552
899.273	20366
899.393	20412
899.513	20450
899.633	20461
899.753	20438
899.873	20301
899.993	20438
900.113	20404
900.232	20415
900.352	20267
900.472	20237
900.591	20134
900.711	20237
900.83	20218
900.95	20187
901.069	20256
901.189	20024
901.308	19894
901.427	19849
901.546	19875
901.665	19788
901.784	19845
901.904	19689
902.023	19567
902.141	19350
902.26	19266
902.379	19453
902.498	19274
902.617	19324
902.735	19373
902.854	19285
902.973	19175
903.091	19012
903.21	18977
903.328	18962
903.446	18939
903.565	18852
903.683	18795
903.801	18745
903.919	18722
904.038	18764
904.156	18623
904.274	18517
904.392	18441
904.51	18528
904.627	18536
904.745	18555
904.863	18601
904.981	18380
905.098	18152
905.216	18254
905.334	18243
905.451	18254
905.569	18148
905.686	18361
905.803	18148
905.921	17889
906.038	18163
906.155	17931
906.272	17939
906.389	17874
906.506	17737
906.623	17855
906.74	17729
906.857	17615
906.974	17646
907.091	17859
907.208	17726
907.324	17638
907.441	17707
907.557	17532
907.674	17421
907.79	17368
907.907	17429
908.023	17356
908.139	17402
908.256	17379
908.372	17372
908.488	17334
908.604	17212
908.72	17086
908.836	17166
908.952	17067
909.068	17223
909.184	17235
909.3	17223
909.415	17155
909.531	17159
909.647	17010
909.762	16889
909.878	16793
909.993	16889
910.108	16862
910.224	16850
910.339	16793
910.454	16793
910.57	16664
910.685	16725
910.8	16892
910.915	16839
911.03	16660
911.145	16493
911.259	16500
911.374	16459
911.489	16306
911.604	16356
911.718	16219
911.833	16230
911.947	16143
912.062	16002
912.176	16226
912.291	16261
912.405	16207
912.519	16398
912.633	16322
912.748	16242
912.862	16131
912.976	16051
913.09	15983
913.204	15911
913.318	16032
913.431	16063
913.545	16036
913.659	16135
913.772	15930
913.886	15823
914	15774
914.113	15835
914.226	16002
914.34	15880
914.453	15736
914.566	15789
914.68	15736
914.793	15701
914.906	15439
915.019	15473
915.132	15454
915.245	15485
915.358	15401
915.47	15424
915.583	15393
915.696	15344
915.809	15504
915.921	15580
916.034	15378
916.146	15249
916.259	15313
916.371	15393
916.483	15302
916.595	15161
916.708	15252
916.82	15233
916.932	15192
917.044	15093
917.156	15131
917.268	15089
917.38	15097
917.491	15005
917.603	15036
917.715	15222
917.826	15119
917.938	15020
918.049	14830
918.161	14967
918.272	15085
918.384	15127
918.495	14990
918.606	14853
918.717	14727
918.828	14823
918.939	14834
919.05	14598
919.161	14815
919.272	14640
919.383	14746
919.494	14853
919.604	14899
919.715	14762
919.826	14625
919.936	14697
920.047	14773
920.157	14811
920.267	14830
920.378	14773
920.488	14754
920.598	14918
920.708	15032
920.818	14880
920.928	14929
921.038	15066
921.148	15039
921.258	14678
921.368	14617
921.477	14663
921.587	14503
921.697	14408
921.806	14499
921.916	14271
922.025	14210
922.134	14191
922.244	14119
922.353	14168
922.462	14016
922.571	13841
922.68	13849
922.789	13868
922.898	13841
923.007	13624
923.116	13719
923.224	13689
923.333	13700
923.442	13651
923.55	13567
923.659	13780
923.767	13639
923.876	13544
923.984	13681
924.092	13514
924.201	13529
924.309	13468
924.417	13464
924.525	13384
924.633	13384
924.741	14301
924.849	13171
924.956	13346
925.064	13217
925.172	13221
925.279	13198
925.387	13293
925.494	13228
925.602	13343
925.709	13225
925.816	12932
925.924	13152
926.031	13171
926.138	13053
926.245	13152
926.352	12977
926.459	13122
926.566	13187
926.673	13152
926.779	12909
926.886	12859
926.993	12745
927.099	12741
927.206	12650
927.312	12703
927.419	12738
927.525	12719
927.631	12719
927.737	12532
927.843	12547
927.95	12460
928.056	12452
928.162	12555
928.267	12608
928.373	13198
928.479	12612
928.585	12467
928.69	12517
928.796	12540
928.901	12460
929.007	12247
929.112	12353
929.218	12330
929.323	12304
929.428	12292
929.533	12376
929.638	12235
929.743	12243
929.848	12289
929.953	12133
930.058	12098
930.163	11992
930.267	11946
930.372	12144
930.477	11920
930.581	12125
930.685	11950
930.79	11756
930.894	11821
930.998	11866
931.103	12003
931.207	11596
931.311	11501
931.415	11433
931.519	11166
931.623	11174
