Data from test_V78500241_828.txt Node
Date: Fri Mar 25 15:15:37 CST 2022
User: usil
Spectrometer: V785-0024
Trigger mode: 0
Integration Time (sec): 4.000000E-1
Scans to average: 1
Nonlinearity correction enabled: false
Boxcar width: 0
Storing dark spectrum: false
XAxis mode: Wavelengths
Number of Pixels in Spectrum: 1024
>>>>>Begin Spectral Data<<<<<
801.071	28432
801.214	28303
801.356	28219
801.499	28078
801.641	27842
801.783	27892
801.926	28021
802.068	27918
802.211	27857
802.353	27800
802.496	27633
802.638	27595
802.78	27591
802.923	27534
803.065	27469
803.208	27561
803.35	27561
803.492	27743
803.635	27656
803.777	27739
803.919	27861
804.061	27907
804.204	27823
804.346	27663
804.488	27641
804.63	27759
804.773	27568
804.915	27766
805.057	27903
805.199	27827
805.341	27770
805.483	28013
805.626	27899
805.768	27709
805.91	27823
806.052	27964
806.194	27861
806.336	28124
806.478	27945
806.62	27838
806.762	28036
806.904	28295
807.046	28512
807.188	28272
807.33	28192
807.472	28367
807.614	28147
807.756	28238
807.898	28428
808.04	28128
808.182	28188
808.324	28246
808.465	28242
808.607	28519
808.749	28546
808.891	28679
809.033	28668
809.174	28618
809.316	28596
809.458	28626
809.6	28767
809.741	28717
809.883	28736
810.025	28957
810.166	28904
810.308	28980
810.45	28687
810.591	28767
810.733	28733
810.875	28630
811.016	28573
811.158	28500
811.299	28801
811.441	28831
811.582	28649
811.724	28599
811.865	28645
812.007	28607
812.148	28546
812.29	28656
812.431	28668
812.573	28953
812.714	29090
812.855	29181
812.997	29216
813.138	29486
813.279	29368
813.421	29124
813.562	28999
813.703	29113
813.845	28961
813.986	28618
814.127	28542
814.268	28424
814.41	28390
814.551	28230
814.692	28409
814.833	28253
814.974	28177
815.115	28246
815.256	28093
815.397	28242
815.539	28200
815.68	28101
815.821	28097
815.962	28234
816.103	28029
816.244	27994
816.385	28010
816.526	27888
816.666	27785
816.807	27519
816.948	27755
817.089	27785
817.23	27743
817.371	27667
817.512	27660
817.653	27614
817.793	27720
817.934	27709
818.075	27576
818.216	27572
818.356	27591
818.497	27557
818.638	27439
818.778	27294
818.919	27458
819.06	27458
819.2	27580
819.341	27709
819.481	27652
819.622	27755
819.762	27880
819.903	27907
820.043	27842
820.184	27774
820.324	27728
820.465	27797
820.605	27835
820.746	27713
820.886	27591
821.026	27743
821.167	27603
821.307	27762
821.447	27717
821.588	27534
821.728	27332
821.868	27272
822.008	27123
822.149	27173
822.289	26982
822.429	26956
822.569	26830
822.709	26708
822.849	26720
822.99	26533
823.13	26484
823.27	26571
823.41	26488
823.55	26305
823.69	26366
823.83	26366
823.97	26404
824.11	26096
824.25	26107
824.389	26278
824.529	26385
824.669	26400
824.809	26256
824.949	26503
825.089	26457
825.228	26343
825.368	26111
825.508	26043
825.648	26126
825.787	26244
825.927	26168
826.067	26092
826.206	26054
826.346	26233
826.485	26263
826.625	25970
826.765	26263
826.904	26183
827.044	25966
827.183	25860
827.323	25822
827.462	25791
827.601	25864
827.741	25696
827.88	25799
828.02	25685
828.159	25909
828.298	25925
828.437	25856
828.577	25807
828.716	25849
828.855	25818
828.994	25415
829.134	25613
829.273	25639
829.412	25639
829.551	25506
829.69	25556
829.829	25666
829.968	25620
830.107	25712
830.246	25514
830.385	25578
830.524	25464
830.663	25339
830.802	25244
830.941	25156
831.08	25091
831.219	25255
831.357	25255
831.496	25327
831.635	25244
831.774	25084
831.913	25065
832.051	25038
832.19	24973
832.329	25031
832.467	24886
832.606	24798
832.744	24703
832.883	24814
833.022	24844
833.16	24856
833.299	24894
833.437	24916
833.576	24913
833.714	24943
833.852	25065
833.991	24867
834.129	25076
834.267	24901
834.406	24901
834.544	24985
834.682	24852
834.821	24890
834.959	25114
835.097	24954
835.235	24916
835.373	24867
835.511	24897
835.65	24654
835.788	24798
835.926	24669
836.064	24525
836.202	24601
836.34	24749
836.478	24764
836.615	24627
836.753	24802
836.891	24848
837.029	24776
837.167	24688
837.305	24585
837.443	24551
837.58	24681
837.718	24505
837.856	24597
837.993	24688
838.131	24490
838.269	24372
838.406	24498
838.544	24194
838.681	24144
838.819	24045
838.956	24038
839.094	23996
839.231	24091
839.369	24262
839.506	24365
839.643	24216
839.781	24038
839.918	23931
840.055	24106
840.193	23939
840.33	23992
840.467	23923
840.604	23950
840.742	24197
840.879	23824
841.016	23904
841.153	23954
841.29	24018
841.427	23954
841.564	24076
841.701	23885
841.838	23916
841.975	23809
842.112	23824
842.249	23703
842.385	23478
842.522	23897
842.659	23809
842.796	23714
842.933	23619
843.069	23649
843.206	23634
843.343	23596
843.479	23680
843.616	23771
843.752	23455
843.889	23509
844.025	23668
844.162	23459
844.298	23493
844.435	23493
844.571	23414
844.708	23524
844.844	23573
844.98	23570
845.117	23589
845.253	23387
845.389	23235
845.525	23478
845.661	23398
845.798	23227
845.934	23220
846.07	23181
846.206	23102
846.342	23341
846.478	23200
846.614	23083
846.75	22820
846.886	22866
847.022	22957
847.158	22980
847.294	22877
847.429	22976
847.565	22896
847.701	23094
847.837	22607
847.972	22577
848.108	22801
848.244	22706
848.379	22542
848.515	22573
848.65	22462
848.786	22557
848.921	22489
849.057	22698
849.192	22596
849.328	22561
849.463	22519
849.598	22466
849.734	22382
849.869	22295
850.004	22238
850.14	22306
850.275	22154
850.41	22272
850.545	22272
850.68	22310
850.815	22234
850.95	22238
851.085	22447
851.22	22379
851.355	22344
851.49	22306
851.625	22090
851.76	22196
851.895	22219
852.03	22238
852.165	22276
852.299	22272
852.434	22462
852.569	22367
852.703	22261
852.838	22299
852.973	22344
853.107	22428
853.242	22211
853.376	22101
853.511	22032
853.645	22109
853.78	22067
853.914	22120
854.048	22036
854.183	21991
854.317	22219
854.451	22284
854.585	22036
854.72	22036
854.854	22211
854.988	22074
855.122	22036
855.256	21949
855.39	22090
855.524	22238
855.658	22090
855.792	22078
855.926	22135
856.06	22177
856.194	22211
856.327	22158
856.461	22063
856.595	21998
856.729	22017
856.862	22207
856.996	22150
857.13	22147
857.263	22230
857.397	22211
857.53	22044
857.664	22116
857.797	22169
857.931	22196
858.064	22147
858.197	22181
858.331	22082
858.464	22010
858.597	22048
858.731	22097
858.864	22010
858.997	22025
859.13	22169
859.263	22158
859.396	22131
859.529	22067
859.662	22017
859.795	22010
859.928	22082
860.061	22303
860.194	22253
860.327	22192
860.46	22036
860.592	22238
860.725	22246
860.858	22219
860.99	22082
861.123	22029
861.256	21934
861.388	22082
861.521	23037
861.653	21975
861.786	21831
861.918	21903
862.05	21884
862.183	22032
862.315	22055
862.447	22032
862.58	21918
862.712	21793
862.844	21679
862.976	21880
863.108	21819
863.24	22109
863.372	21675
863.504	21759
863.636	21701
863.768	21854
863.9	21892
864.032	21789
864.164	21675
864.296	21842
864.428	21880
864.559	21926
864.691	21922
864.823	21736
864.954	21701
865.086	21762
865.217	21633
865.349	21564
865.48	21720
865.612	21694
865.743	21945
865.875	21660
866.006	21587
866.137	21713
866.269	21717
866.4	21603
866.531	21488
866.662	21622
866.793	21641
866.924	21515
867.055	21675
867.186	21599
867.317	21462
867.448	21545
867.579	21633
867.71	21488
867.841	21496
867.972	21576
868.103	21603
868.233	21610
868.364	21618
868.495	21793
868.625	21857
868.756	21823
868.886	21728
869.017	21759
869.147	21808
869.278	21903
869.408	21816
869.539	21793
869.669	21903
869.799	21869
869.929	21880
870.06	21960
870.19	22048
870.32	22044
870.45	22150
870.58	22181
870.71	22367
870.84	22242
870.97	22196
871.1	22131
871.23	22386
871.36	22485
871.489	22360
871.619	22265
871.749	22409
871.879	22402
872.008	22508
872.138	22341
872.267	22428
872.397	22314
872.526	22246
872.656	22173
872.785	22204
872.915	22470
873.044	22432
873.173	22421
873.303	22474
873.432	22455
873.561	22455
873.69	22390
873.819	22432
873.948	22474
874.077	22596
874.206	22348
874.335	22367
874.464	22550
874.593	22577
874.722	22516
874.851	22664
874.979	22637
875.108	22675
875.237	22588
875.365	22542
875.494	22584
875.623	22694
875.751	22500
875.88	22675
876.008	22702
876.136	22873
876.265	23060
876.393	23246
876.521	23018
876.65	23079
876.778	22991
876.906	22946
877.034	22927
877.162	22995
877.29	22938
877.418	22965
877.546	23029
877.674	22961
877.802	23025
877.93	22968
878.058	22919
878.185	22839
878.313	22828
878.441	22831
878.568	22748
878.696	22915
878.824	22987
878.951	23117
879.079	23140
879.206	23189
879.333	23090
879.461	23003
879.588	23132
879.715	23178
879.842	23235
879.97	23014
880.097	22801
880.224	22778
880.351	22759
880.478	22824
880.605	22668
880.732	22854
880.859	22938
880.986	22835
881.112	22862
881.239	22599
881.366	22611
881.493	22538
881.619	22360
881.746	22440
881.872	22409
881.999	22360
882.125	22207
882.252	22386
882.378	22325
882.505	22379
882.631	22261
882.757	22013
882.883	22048
883.01	22131
883.136	21945
883.262	21823
883.388	21812
883.514	21945
883.64	22051
883.766	21926
883.892	21911
884.018	21827
884.143	21964
884.269	22010
884.395	21800
884.52	21568
884.646	21800
884.772	21515
884.897	21610
885.023	21793
885.148	21720
885.274	21781
885.399	21698
885.524	21599
885.65	21622
885.775	21686
885.9	21739
886.025	21724
886.15	21785
886.275	21572
886.4	21523
886.525	21583
886.65	21644
886.775	21679
886.9	21759
887.025	21880
887.149	21583
887.274	21519
887.399	21542
887.523	21454
887.648	21386
887.773	21401
887.897	21488
888.021	21603
888.146	21374
888.27	21538
888.395	21515
888.519	21416
888.643	21408
888.767	21420
888.891	21298
889.015	21298
889.139	21351
889.263	21222
889.387	21397
889.511	21416
889.635	21340
889.759	21222
889.883	21203
890.006	21256
890.13	21374
890.254	21222
890.377	21241
890.501	21055
890.624	20986
890.748	21058
890.871	20849
890.995	20792
891.118	20724
891.241	20864
891.364	20834
891.488	20849
891.611	20876
891.734	20845
891.857	20785
891.98	20864
892.103	20895
892.226	20655
892.349	20727
892.471	20617
892.594	20663
892.717	20811
892.839	20743
892.962	20731
893.085	20868
893.207	20651
893.33	20537
893.452	20644
893.575	20735
893.697	20701
893.819	20876
893.941	20910
894.064	20686
894.186	20746
894.308	20503
894.43	20781
894.552	20830
894.674	20777
894.796	20621
894.918	20674
895.04	20705
895.161	20765
895.283	20823
895.405	20640
895.526	20724
895.648	20667
895.769	20807
895.891	20697
896.012	20705
896.134	20590
896.255	20701
896.376	20571
896.498	20606
896.619	20712
896.74	20693
896.861	20735
896.982	20986
897.103	21043
897.224	20895
897.345	20880
897.466	20781
897.587	21043
897.708	21051
897.828	21017
897.949	20823
898.07	20777
898.19	20902
898.311	20941
898.431	20724
898.552	20971
898.672	20975
898.792	20986
898.913	20883
899.033	20750
899.153	20693
899.273	20492
899.393	20606
899.513	20743
899.633	20644
899.753	20678
899.873	20590
899.993	20697
900.113	20568
900.232	20644
900.352	20545
900.472	20473
900.591	20351
900.711	20374
900.83	20408
900.95	20476
901.069	20492
901.189	20358
901.308	20062
901.427	20065
901.546	20046
901.665	19963
901.784	20008
901.904	19887
902.023	19677
902.141	19552
902.26	19476
902.379	19472
902.498	19616
902.617	19514
902.735	19518
902.854	19438
902.973	19373
903.091	19175
903.21	19266
903.328	19141
903.446	19126
903.565	18996
903.683	18993
903.801	18878
903.919	18951
904.038	18981
904.156	18726
904.274	18757
904.392	18631
904.51	18783
904.627	18639
904.745	18612
904.863	18871
904.981	18517
905.098	18422
905.216	18308
905.334	18475
905.451	18517
905.569	18285
905.686	18296
905.803	18388
905.921	18182
906.038	18277
906.155	18186
906.272	18232
906.389	18003
906.506	17935
906.623	18034
906.74	17802
906.857	17859
906.974	17786
907.091	17878
907.208	18053
907.324	17878
907.441	17775
907.557	17760
907.674	17649
907.79	17573
907.907	17638
908.023	17726
908.139	17600
908.256	17539
908.372	17417
908.488	17570
908.604	17315
908.72	17307
908.836	17322
908.952	17265
909.068	17345
909.184	17455
909.3	17398
909.415	17273
909.531	17360
909.647	17090
909.762	16942
909.878	17025
909.993	17029
910.108	16968
910.224	16999
910.339	17022
910.454	17014
910.57	16957
910.685	16778
910.8	16934
910.915	16999
911.03	16801
911.145	16675
911.259	16599
911.374	16618
911.489	16485
911.604	16470
911.718	16268
911.833	16333
911.947	16226
912.062	16211
912.176	16318
912.291	16367
912.405	16329
912.519	16569
912.633	16538
912.748	16303
912.862	16246
912.976	16185
913.09	16048
913.204	16071
913.318	16261
913.431	16287
913.545	16299
913.659	16265
913.772	16093
913.886	16021
914	15941
914.113	16124
914.226	15987
914.34	16044
914.453	15816
914.566	15991
914.68	15884
914.793	15778
914.906	15603
915.019	15545
915.132	15477
915.245	15542
915.358	15584
915.47	15595
915.583	15534
915.696	15580
915.809	15671
915.921	15667
916.034	15515
916.146	15481
916.259	15420
916.371	15511
916.483	15428
916.595	15393
916.708	15397
916.82	15428
916.932	15374
917.044	15428
917.156	15291
917.268	15127
917.38	15329
917.491	15138
917.603	15222
917.715	15298
917.826	15298
917.938	15100
918.049	15024
918.161	15131
918.272	15192
918.384	15176
918.495	15199
918.606	14925
918.717	14880
918.828	14963
918.939	14956
919.05	14853
919.161	14868
919.272	14648
919.383	14781
919.494	14899
919.604	15039
919.715	14902
919.826	14701
919.936	14910
920.047	14975
920.157	14887
920.267	15097
920.378	14815
920.488	14823
920.598	14998
920.708	15176
920.818	15055
920.928	14975
921.038	15180
921.148	15150
921.258	14880
921.368	14853
921.477	14659
921.587	14644
921.697	14511
921.806	14568
921.916	14434
922.025	14370
922.134	14309
922.244	14195
922.353	14176
922.462	14206
922.571	14035
922.68	13898
922.789	13864
922.898	13928
923.007	13837
923.116	13936
923.224	13845
923.333	13917
923.442	13776
923.55	13765
923.659	13753
923.767	13761
923.876	13662
923.984	13746
924.092	13658
924.201	13647
924.309	13613
924.417	13662
924.525	13540
924.633	13582
924.741	14244
924.849	13358
924.956	13544
925.064	13301
925.172	13278
925.279	13194
925.387	13293
925.494	13343
925.602	13438
925.709	13324
925.816	13217
925.924	13263
926.031	13263
926.138	13168
926.245	13381
926.352	13164
926.459	13297
926.566	13247
926.673	13209
926.779	13114
926.886	12977
926.993	12882
927.099	12840
927.206	12802
927.312	12753
927.419	12871
927.525	12810
927.631	12825
927.737	12783
927.843	12707
927.95	12608
928.056	12642
928.162	12593
928.267	12688
928.373	13362
928.479	12703
928.585	12536
928.69	12623
928.796	12684
928.901	12471
929.007	12441
929.112	12555
929.218	12513
929.323	12410
929.428	12357
929.533	12608
929.638	12319
929.743	12342
929.848	12365
929.953	12338
930.058	12213
930.163	11999
930.267	12110
930.372	12243
930.477	12076
930.581	12247
930.685	12057
930.79	11958
930.894	11931
930.998	11889
931.103	12045
931.207	11668
931.311	11535
931.415	11459
931.519	11353
931.623	11246
