Data from test_V78500241_2269.txt Node
Date: Fri Mar 25 15:25:39 CST 2022
User: usil
Spectrometer: V785-0024
Trigger mode: 0
Integration Time (sec): 4.000000E-1
Scans to average: 1
Nonlinearity correction enabled: false
Boxcar width: 0
Storing dark spectrum: false
XAxis mode: Wavelengths
Number of Pixels in Spectrum: 1024
>>>>>Begin Spectral Data<<<<<
801.071	27523
801.214	27675
801.356	27382
801.499	27192
801.641	27199
801.783	27176
801.926	27150
802.068	27142
802.211	27161
802.353	26998
802.496	26716
802.638	26815
802.78	26800
802.923	26674
803.065	26705
803.208	26735
803.35	26804
803.492	26777
803.635	27070
803.777	26811
803.919	26986
804.061	27260
804.204	27096
804.346	27020
804.488	26921
804.63	26960
804.773	27077
804.915	27055
805.057	27108
805.199	26857
805.341	26940
805.483	27142
805.626	27214
805.768	26872
805.91	27089
806.052	27119
806.194	27047
806.336	27260
806.478	26998
806.62	27157
806.762	27211
806.904	27348
807.046	27511
807.188	27378
807.33	27492
807.472	27595
807.614	27450
807.756	27477
807.898	27447
808.04	27367
808.182	27283
808.324	27427
808.465	27344
808.607	27561
808.749	27713
808.891	27857
809.033	27797
809.174	27804
809.316	27583
809.458	27610
809.6	27663
809.741	27797
809.883	27895
810.025	27755
810.166	28086
810.308	27983
810.45	27880
810.591	27892
810.733	27747
810.875	27717
811.016	27766
811.158	27378
811.299	27705
811.441	27785
811.582	27964
811.724	27747
811.865	27686
812.007	27667
812.148	27633
812.29	27709
812.431	27934
812.573	27914
812.714	28010
812.855	28234
812.997	28207
813.138	28409
813.279	28329
813.421	28166
813.562	28238
813.703	28017
813.845	27903
813.986	27614
814.127	27443
814.268	27325
814.41	27450
814.551	27397
814.692	27427
814.833	27272
814.974	27393
815.115	27591
815.256	27306
815.397	27176
815.539	27230
815.68	27089
815.821	27150
815.962	27165
816.103	27249
816.244	26929
816.385	26788
816.526	26940
816.666	26743
816.807	26686
816.948	26769
817.089	26743
817.23	26678
817.371	26575
817.512	26587
817.653	26503
817.793	26507
817.934	26609
818.075	26720
818.216	26705
818.356	26579
818.497	26621
818.638	26393
818.778	26434
818.919	26450
819.06	26374
819.2	26492
819.341	26693
819.481	26670
819.622	26830
819.762	26902
819.903	26807
820.043	26765
820.184	26765
820.324	26804
820.465	26750
820.605	26708
820.746	26686
820.886	26636
821.026	26800
821.167	26682
821.307	26640
821.447	26781
821.588	26518
821.728	26549
821.868	26164
822.008	26210
822.149	26107
822.289	26035
822.429	25803
822.569	25715
822.709	25822
822.849	25655
822.99	25635
823.13	25563
823.27	25525
823.41	25388
823.55	25354
823.69	25426
823.83	25434
823.97	25266
824.11	25282
824.25	25164
824.389	25190
824.529	25316
824.669	25251
824.809	25392
824.949	25320
825.089	25304
825.228	25198
825.368	25107
825.508	25099
825.648	25065
825.787	25069
825.927	25122
826.067	25031
826.206	25122
826.346	25217
826.485	25088
826.625	24989
826.765	25171
826.904	25183
827.044	24837
827.183	24905
827.323	24772
827.462	24905
827.601	24798
827.741	24802
827.88	24848
828.02	24681
828.159	24764
828.298	24760
828.437	24852
828.577	24726
828.716	24939
828.855	24867
828.994	24505
829.134	24448
829.273	24639
829.412	24536
829.551	24414
829.69	24433
829.829	24513
829.968	24536
830.107	24661
830.246	24445
830.385	24376
830.524	24464
830.663	24342
830.802	24224
830.941	24106
831.08	24011
831.219	24197
831.357	24205
831.496	24330
831.635	24110
831.774	24064
831.913	24030
832.051	24022
832.19	23920
832.329	24030
832.467	23775
832.606	23722
832.744	23707
832.883	23722
833.022	23737
833.16	23889
833.299	23843
833.437	23840
833.576	23874
833.714	23798
833.852	23863
833.991	23916
834.129	23866
834.267	23939
834.406	23870
834.544	23912
834.682	23939
834.821	23748
834.959	24007
835.097	23737
835.235	23802
835.373	23878
835.511	23775
835.65	23687
835.788	23676
835.926	23592
836.064	23562
836.202	23444
836.34	23668
836.478	23779
836.615	23668
836.753	23668
836.891	23786
837.029	23733
837.167	23589
837.305	23627
837.443	23592
837.58	23573
837.718	23589
837.856	23433
837.993	23425
838.131	23562
838.269	23376
838.406	23417
838.544	23220
838.681	23128
838.819	23109
838.956	23052
839.094	23010
839.231	23014
839.369	23117
839.506	23341
839.643	23193
839.781	23086
839.918	22942
840.055	22991
840.193	23018
840.33	22873
840.467	22877
840.604	22991
840.742	23079
840.879	22786
841.016	22839
841.153	22809
841.29	22995
841.427	22968
841.564	23003
841.701	22984
841.838	22763
841.975	22664
842.112	22812
842.249	22538
842.385	22767
842.522	22892
842.659	22645
842.796	22771
842.933	22740
843.069	22615
843.206	22656
843.343	22710
843.479	22645
843.616	22592
843.752	22466
843.889	22508
844.025	22660
844.162	22424
844.298	22538
844.435	22428
844.571	22329
844.708	22447
844.844	22615
844.98	22618
845.117	22554
845.253	22341
845.389	22360
845.525	22356
845.661	22284
845.798	22128
845.934	22181
846.07	22109
846.206	22143
846.342	22337
846.478	22135
846.614	22029
846.75	21850
846.886	21987
847.022	21926
847.158	21994
847.294	21907
847.429	22032
847.565	21835
847.701	22253
847.837	21713
847.972	21557
848.108	21751
848.244	21660
848.379	21492
848.515	21530
848.65	21515
848.786	21481
848.921	21473
849.057	21587
849.192	21690
849.328	21625
849.463	21500
849.598	21500
849.734	21370
849.869	21412
850.004	21275
850.14	21302
850.275	21351
850.41	21176
850.545	21214
850.68	21192
850.815	21211
850.95	21291
851.085	21321
851.22	21393
851.355	21321
851.49	21226
851.625	21264
851.76	21176
851.895	21127
852.03	21123
852.165	21161
852.299	21256
852.434	21310
852.569	21287
852.703	21176
852.838	21279
852.973	21332
853.107	21374
853.242	21150
853.376	21100
853.511	21070
853.645	21119
853.78	21165
853.914	21150
854.048	21051
854.183	21142
854.317	20979
854.451	21268
854.585	21108
854.72	21043
854.854	21051
854.988	21100
855.122	20861
855.256	20948
855.39	21226
855.524	21192
855.658	21154
855.792	21032
855.926	21081
856.06	21066
856.194	21184
856.327	21039
856.461	20952
856.595	21058
856.729	20933
856.862	21180
856.996	21093
857.13	21096
857.263	21245
857.397	21093
857.53	21104
857.664	21039
857.797	21150
857.931	21176
858.064	21093
858.197	21089
858.331	21039
858.464	20956
858.597	20941
858.731	21150
858.864	21131
858.997	21096
859.13	21066
859.263	20971
859.396	21207
859.529	21028
859.662	21055
859.795	21108
859.928	21074
860.061	21260
860.194	21161
860.327	21116
860.46	21089
860.592	21211
860.725	21359
860.858	21173
860.99	21104
861.123	21032
861.256	21074
861.388	21074
861.521	21755
861.653	21051
861.786	20876
861.918	20883
862.05	20963
862.183	21005
862.315	21036
862.447	21028
862.58	20891
862.712	20804
862.844	20807
862.976	20735
863.108	20941
863.24	21138
863.372	20758
863.504	20754
863.636	20800
863.768	20891
863.9	20762
864.032	20659
864.164	20819
864.296	20902
864.428	20902
864.559	20891
864.691	20906
864.823	20785
864.954	20689
865.086	20838
865.217	20735
865.349	20644
865.48	20625
865.612	20697
865.743	20807
865.875	20746
866.006	20648
866.137	20743
866.269	20686
866.4	20667
866.531	20636
866.662	20674
866.793	20552
866.924	20617
867.055	20663
867.186	20678
867.317	20594
867.448	20514
867.579	20579
867.71	20522
867.841	20754
867.972	20594
868.103	20705
868.233	20678
868.364	20621
868.495	20781
868.625	20800
868.756	21077
868.886	20891
869.017	20861
869.147	20845
869.278	20937
869.408	20895
869.539	20933
869.669	20979
869.799	20948
869.929	21100
870.06	20815
870.19	21340
870.32	21123
870.45	21294
870.58	21264
870.71	21260
870.84	21367
870.97	21283
871.1	21264
871.23	21428
871.36	21447
871.489	21329
871.619	21473
871.749	21336
871.879	21412
872.008	21622
872.138	21515
872.267	21462
872.397	21310
872.526	21226
872.656	21218
872.785	21416
872.915	21458
873.044	21641
873.173	21473
873.303	21545
873.432	21549
873.561	21564
873.69	21492
873.819	21485
873.948	21466
874.077	21454
874.206	21302
874.335	21469
874.464	21675
874.593	21633
874.722	21660
874.851	21747
874.979	21656
875.108	21789
875.237	21599
875.365	21622
875.494	21614
875.623	21778
875.751	21675
875.88	21785
876.008	21778
876.136	21994
876.265	22181
876.393	22257
876.521	22147
876.65	22230
876.778	22128
876.906	22048
877.034	22074
877.162	22021
877.29	21915
877.418	22067
877.546	22128
877.674	22048
877.802	22017
877.93	22059
878.058	22059
878.185	21941
878.313	21983
878.441	21964
878.568	21876
878.696	22067
878.824	21934
878.951	22147
879.079	22173
879.206	22318
879.333	22265
879.461	22036
879.588	22139
879.715	22219
879.842	22344
879.97	22040
880.097	21831
880.224	21869
880.351	21880
880.478	21991
880.605	21846
880.732	21861
880.859	22124
880.986	21793
881.112	21895
881.239	21880
881.366	21675
881.493	21500
881.619	21416
881.746	21492
881.872	21496
881.999	21378
882.125	21462
882.252	21515
882.378	21447
882.505	21580
882.631	21264
882.757	21146
882.883	21298
883.01	21310
883.136	21104
883.262	20990
883.388	21001
883.514	21237
883.64	21104
883.766	20979
883.892	20956
884.018	20982
884.143	21055
884.269	21180
884.395	20853
884.52	20842
884.646	20773
884.772	20826
884.897	20701
885.023	20823
885.148	20963
885.274	21009
885.399	20834
885.524	20796
885.65	20864
885.775	20929
885.9	20754
886.025	21017
886.15	20781
886.275	20743
886.4	20678
886.525	20804
886.65	20731
886.775	20678
886.9	20929
887.025	21024
887.149	20845
887.274	20651
887.399	20609
887.523	20640
887.648	20571
887.773	20533
887.897	20781
888.021	20621
888.146	20514
888.27	20705
888.395	20609
888.519	20636
888.643	20594
888.767	20632
888.891	20507
889.015	20434
889.139	20412
889.263	20438
889.387	20415
889.511	20636
889.635	20427
889.759	20278
889.883	20396
890.006	20393
890.13	20415
890.254	20313
890.377	20210
890.501	20084
890.624	20088
890.748	20282
890.871	20088
890.995	20069
891.118	19906
891.241	19982
891.364	20020
891.488	20005
891.611	20012
891.734	19928
891.857	19986
891.98	19944
892.103	19993
892.226	20020
892.349	19879
892.471	19818
892.594	19837
892.717	19826
892.839	19852
892.962	19788
893.085	20001
893.207	19811
893.33	19715
893.452	19738
893.575	19841
893.697	19898
893.819	19970
893.941	20024
894.064	19955
894.186	19772
894.308	19814
894.43	19913
894.552	19989
894.674	19921
894.796	19715
894.918	19887
895.04	19769
895.161	20020
895.283	19883
895.405	19898
895.526	19719
895.648	19856
895.769	19811
895.891	19959
896.012	19909
896.134	19936
896.255	19997
896.376	19780
896.498	19947
896.619	19890
896.74	19864
896.861	20020
896.982	20126
897.103	20252
897.224	20145
897.345	20084
897.466	20008
897.587	20050
897.708	20252
897.828	20202
897.949	20005
898.07	19841
898.19	20005
898.311	20119
898.431	20020
898.552	20103
898.672	20115
898.792	20161
898.913	20168
899.033	19940
899.153	19883
899.273	19784
899.393	19807
899.513	19963
899.633	19951
899.753	19932
899.873	19761
899.993	19826
900.113	19833
900.232	19822
900.352	19826
900.472	19704
900.591	19590
900.711	19578
900.83	19628
900.95	19715
901.069	19693
901.189	19605
901.308	19339
901.427	19209
901.546	19289
901.665	19225
901.784	19175
901.904	19046
902.023	18951
902.141	18821
902.26	18798
902.379	18749
902.498	18696
902.617	18711
902.735	18734
902.854	18806
902.973	18631
903.091	18452
903.21	18407
903.328	18426
903.446	18296
903.565	18224
903.683	18251
903.801	18083
903.919	18190
904.038	18159
904.156	18026
904.274	18045
904.392	17939
904.51	17889
904.627	17901
904.745	18015
904.863	18038
904.981	17756
905.098	17764
905.216	17627
905.334	17741
905.451	17752
905.569	17657
905.686	17604
905.803	17547
905.921	17440
906.038	17581
906.155	17402
906.272	17284
906.389	17414
906.506	17239
906.623	17197
906.74	17147
906.857	17037
906.974	17067
907.091	17311
907.208	17250
907.324	17242
907.441	17128
907.557	16877
907.674	16991
907.79	16835
907.907	16839
908.023	16847
908.139	16915
908.256	16797
908.372	16790
908.488	16698
908.604	16759
908.72	16592
908.836	16588
908.952	16634
909.068	16691
909.184	16759
909.3	16577
909.415	16630
909.531	16698
909.647	16436
909.762	16432
909.878	16268
909.993	16322
910.108	16280
910.224	16287
910.339	16291
910.454	16166
910.57	16131
910.685	16044
910.8	16314
910.915	16310
911.03	16124
911.145	15865
911.259	15846
911.374	15987
911.489	15823
911.604	15781
911.718	15637
911.833	15694
911.947	15610
912.062	15454
912.176	15671
912.291	15599
912.405	15584
912.519	15854
912.633	15873
912.748	15728
912.862	15644
912.976	15545
913.09	15340
913.204	15351
913.318	15488
913.431	15603
913.545	15603
913.659	15625
913.772	15416
913.886	15306
914	15306
914.113	15378
914.226	15420
914.34	15374
914.453	15173
914.566	15367
914.68	15135
914.793	15188
914.906	14994
915.019	14914
915.132	14788
915.245	14868
915.358	14975
915.47	14876
915.583	14895
915.696	14895
915.809	14982
915.921	15058
916.034	14914
916.146	14849
916.259	14804
916.371	14872
916.483	14842
916.595	14705
916.708	14701
916.82	14765
916.932	14823
917.044	14663
917.156	14648
917.268	14545
917.38	14621
917.491	14602
917.603	14480
917.715	14689
917.826	14689
917.938	14541
918.049	14419
918.161	14450
918.272	14564
918.384	14655
918.495	14533
918.606	14415
918.717	14221
918.828	14339
918.939	14320
919.05	14313
919.161	14275
919.272	14073
919.383	14210
919.494	14309
919.604	14495
919.715	14320
919.826	14301
919.936	14343
920.047	14278
920.157	14389
920.267	14495
920.378	14180
920.488	14290
920.598	14385
920.708	14648
920.818	14427
920.928	14423
921.038	14583
921.148	14644
921.258	14252
921.368	14126
921.477	14012
921.587	14043
921.697	13913
921.806	13986
921.916	13890
922.025	13742
922.134	13757
922.244	13628
922.353	13712
922.462	13540
922.571	13533
922.68	13377
922.789	13343
922.898	13457
923.007	13320
923.116	13278
923.224	13301
923.333	13346
923.442	13202
923.55	13213
923.659	13057
923.767	13255
923.876	13129
923.984	13122
924.092	13019
924.201	13080
924.309	13080
924.417	13118
924.525	12928
924.633	12913
924.741	13696
924.849	12886
924.956	12985
925.064	12760
925.172	12639
925.279	12791
925.387	12730
925.494	12863
925.602	12806
925.709	12738
925.816	12570
925.924	12681
926.031	12806
926.138	12703
926.245	12696
926.352	12574
926.459	12738
926.566	12719
926.673	12559
926.779	12490
926.886	12509
926.993	12403
927.099	12319
927.206	12334
927.312	12224
927.419	12395
927.525	12334
927.631	12330
927.737	12300
927.843	12216
927.95	12064
928.056	12114
928.162	12224
928.267	12148
928.373	12749
928.479	12304
928.585	12030
928.69	12125
928.796	12171
928.901	11958
929.007	11923
929.112	12022
929.218	11999
929.323	11893
929.428	11805
929.533	12026
929.638	11832
929.743	11809
929.848	11969
929.953	11752
930.058	11714
930.163	11608
930.267	11532
930.372	11672
930.477	11467
930.581	11752
930.685	11653
930.79	11421
930.894	11566
930.998	11402
931.103	11436
931.207	11258
931.311	11220
931.415	11029
931.519	10942
931.623	10896
