Data from test_V78500241_1091.txt Node
Date: Fri Mar 25 15:17:27 CST 2022
User: usil
Spectrometer: V785-0024
Trigger mode: 0
Integration Time (sec): 4.000000E-1
Scans to average: 1
Nonlinearity correction enabled: false
Boxcar width: 0
Storing dark spectrum: false
XAxis mode: Wavelengths
Number of Pixels in Spectrum: 1024
>>>>>Begin Spectral Data<<<<<
801.071	28451
801.214	28314
801.356	28223
801.499	28002
801.641	27880
801.783	27930
801.926	27899
802.068	27850
802.211	27831
802.353	27949
802.496	27656
802.638	27667
802.78	27671
802.923	27603
803.065	27462
803.208	27583
803.35	27519
803.492	27755
803.635	27698
803.777	27698
803.919	27713
804.061	28082
804.204	27838
804.346	27682
804.488	27781
804.63	27911
804.773	27922
804.915	28029
805.057	28051
805.199	27880
805.341	27835
805.483	28013
805.626	27907
805.768	27831
805.91	27766
806.052	27987
806.194	27781
806.336	28090
806.478	27926
806.62	27987
806.762	28093
806.904	28207
807.046	28481
807.188	28398
807.33	28440
807.472	28405
807.614	28223
807.756	28219
807.898	28211
808.04	28234
808.182	28204
808.324	28291
808.465	28310
808.607	28527
808.749	28637
808.891	28668
809.033	28782
809.174	28542
809.316	28748
809.458	28538
809.6	28603
809.741	28744
809.883	28649
810.025	28828
810.166	28968
810.308	28934
810.45	28999
810.591	28767
810.733	28733
810.875	28618
811.016	28485
811.158	28561
811.299	28717
811.441	28828
811.582	28809
811.724	28725
811.865	28668
812.007	28721
812.148	28607
812.29	28759
812.431	28778
812.573	28946
812.714	28991
812.855	29143
812.997	29296
813.138	29360
813.279	29482
813.421	29132
813.562	29083
813.703	29003
813.845	28740
813.986	28626
814.127	28641
814.268	28462
814.41	28325
814.551	28459
814.692	28470
814.833	28341
814.974	28348
815.115	28550
815.256	28310
815.397	28284
815.539	28211
815.68	28112
815.821	27907
815.962	28230
816.103	28265
816.244	28021
816.385	28021
816.526	27842
816.666	27751
816.807	27641
816.948	27698
817.089	27846
817.23	27701
817.371	27618
817.512	27641
817.653	27618
817.793	27549
817.934	27591
818.075	27530
818.216	27644
818.356	27576
818.497	27545
818.638	27473
818.778	27325
818.919	27294
819.06	27439
819.2	27530
819.341	27599
819.481	27732
819.622	27842
819.762	28086
819.903	27876
820.043	27907
820.184	27899
820.324	27880
820.465	27732
820.605	27663
820.746	27808
820.886	27656
821.026	27755
821.167	27785
821.307	27903
821.447	27606
821.588	27561
821.728	27534
821.868	27359
822.008	27184
822.149	27119
822.289	27135
822.429	26963
822.569	26906
822.709	26823
822.849	26629
822.99	26636
823.13	26670
823.27	26758
823.41	26511
823.55	26385
823.69	26476
823.83	26507
823.97	26438
824.11	26298
824.25	26328
824.389	26275
824.529	26461
824.669	26317
824.809	26366
824.949	26469
825.089	26465
825.228	26381
825.368	26153
825.508	26153
825.648	26221
825.787	26259
825.927	26282
826.067	26081
826.206	26240
826.346	26176
826.485	26336
826.625	26168
826.765	26393
826.904	26294
827.044	25959
827.183	25963
827.323	25989
827.462	25989
827.601	25963
827.741	25906
827.88	26012
828.02	25852
828.159	25894
828.298	26046
828.437	25997
828.577	25860
828.716	26149
828.855	25837
828.994	25594
829.134	25601
829.273	25662
829.412	25643
829.551	25647
829.69	25639
829.829	25791
829.968	25795
830.107	25670
830.246	25715
830.385	25632
830.524	25552
830.663	25430
830.802	25304
830.941	25251
831.08	25259
831.219	25388
831.357	25407
831.496	25582
831.635	25274
831.774	25236
831.913	25175
832.051	25129
832.19	24962
832.329	25027
832.467	25012
832.606	25053
832.744	24992
832.883	24966
833.022	24844
833.16	24966
833.299	25057
833.437	25046
833.576	25023
833.714	25091
833.852	24913
833.991	24958
834.129	25145
834.267	25099
834.406	24981
834.544	25046
834.682	24973
834.821	25027
834.959	25133
835.097	24973
835.235	24989
835.373	24932
835.511	25000
835.65	24829
835.788	24871
835.926	24768
836.064	24673
836.202	24707
836.34	24882
836.478	24928
836.615	24730
836.753	24905
836.891	24821
837.029	24913
837.167	24909
837.305	24871
837.443	24692
837.58	24703
837.718	24779
837.856	24798
837.993	24471
838.131	24673
838.269	24494
838.406	24623
838.544	24342
838.681	24277
838.819	24277
838.956	24140
839.094	24194
839.231	24251
839.369	24270
839.506	24528
839.643	24308
839.781	24152
839.918	24068
840.055	24216
840.193	24144
840.33	24049
840.467	24049
840.604	24186
840.742	24346
840.879	23817
841.016	23980
841.153	23851
841.29	24068
841.427	24049
841.564	24072
841.701	24106
841.838	23950
841.975	23969
842.112	23954
842.249	23897
842.385	23813
842.522	23980
842.659	23802
842.796	23874
842.933	23855
843.069	23687
843.206	23748
843.343	23805
843.479	23733
843.616	23961
843.752	23570
843.889	23577
844.025	23752
844.162	23486
844.298	23737
844.435	23642
844.571	23516
844.708	23649
844.844	23843
844.98	23714
845.117	23779
845.253	23452
845.389	23570
845.525	23661
845.661	23490
845.798	23387
845.934	23277
846.07	23174
846.206	23376
846.342	23341
846.478	23334
846.614	23223
846.75	23147
846.886	23033
847.022	23029
847.158	23098
847.294	23083
847.429	23193
847.565	22949
847.701	23178
847.837	22790
847.972	22740
848.108	22873
848.244	22934
848.379	22733
848.515	22611
848.65	22618
848.786	22752
848.921	22717
849.057	22793
849.192	22759
849.328	22645
849.463	22634
849.598	22592
849.734	22474
849.869	22470
850.004	22440
850.14	22333
850.275	22284
850.41	22417
850.545	22413
850.68	22261
850.815	22424
850.95	22402
851.085	22569
851.22	22557
851.355	22314
851.49	22352
851.625	22386
851.76	22405
851.895	22447
852.03	22291
852.165	22443
852.299	22474
852.434	22352
852.569	22478
852.703	22375
852.838	22413
852.973	22611
853.107	22500
853.242	22390
853.376	22333
853.511	22006
853.645	22070
853.78	22314
853.914	22261
854.048	22124
854.183	22257
854.317	22398
854.451	22424
854.585	22226
854.72	22135
854.854	22211
854.988	22143
855.122	22257
855.256	22097
855.39	22147
855.524	22291
855.658	22173
855.792	22226
855.926	22356
856.06	22261
856.194	22287
856.327	22280
856.461	22166
856.595	22055
856.729	22150
856.862	22268
856.996	22265
857.13	22303
857.263	22287
857.397	22348
857.53	22257
857.664	22322
857.797	22204
857.931	22329
858.064	22219
858.197	22352
858.331	22109
858.464	22162
858.597	22109
858.731	22215
858.864	22268
858.997	22166
859.13	22261
859.263	22166
859.396	22246
859.529	22143
859.662	22139
859.795	22135
859.928	22128
860.061	22333
860.194	22409
860.327	22257
860.46	22242
860.592	22344
860.725	22402
860.858	22356
860.99	22287
861.123	22215
861.256	22147
861.388	22310
861.521	22862
861.653	22070
861.786	22051
861.918	22150
862.05	22002
862.183	22147
862.315	22181
862.447	22230
862.58	22105
862.712	21979
862.844	21934
862.976	21975
863.108	21994
863.24	22314
863.372	21915
863.504	22006
863.636	21850
863.768	21911
863.9	21869
864.032	21827
864.164	21865
864.296	21911
864.428	22021
864.559	22055
864.691	22032
864.823	21979
864.954	21876
865.086	21960
865.217	21823
865.349	21728
865.48	21797
865.612	21857
865.743	21983
865.875	21911
866.006	21717
866.137	21888
866.269	21930
866.4	21660
866.531	21747
866.662	21717
866.793	21781
866.924	21743
867.055	21823
867.186	21835
867.317	21686
867.448	21633
867.579	21747
867.71	21713
867.841	21774
867.972	21720
868.103	21713
868.233	21701
868.364	21709
868.495	21911
868.625	21918
868.756	22025
868.886	21915
869.017	22131
869.147	22124
869.278	22185
869.408	21964
869.539	21964
869.669	22082
869.799	22055
869.929	22055
870.06	22055
870.19	22166
870.32	22166
870.45	22246
870.58	22421
870.71	22535
870.84	22474
870.97	22390
871.1	22257
871.23	22443
871.36	22588
871.489	22508
871.619	22516
871.749	22569
871.879	22580
872.008	22626
872.138	22584
872.267	22542
872.397	22535
872.526	22390
872.656	22436
872.785	22436
872.915	22656
873.044	22615
873.173	22470
873.303	22694
873.432	22596
873.561	22675
873.69	22641
873.819	22675
873.948	22573
874.077	22668
874.206	22577
874.335	22474
874.464	22771
874.593	22820
874.722	22801
874.851	22862
874.979	22752
875.108	22862
875.237	22812
875.365	22660
875.494	22588
875.623	22873
875.751	22736
875.88	22713
876.008	22946
876.136	22927
876.265	23254
876.393	23334
876.521	23174
876.65	23330
876.778	23121
876.906	23117
877.034	23033
877.162	23208
877.29	23113
877.418	23143
877.546	22987
877.674	23025
877.802	22980
877.93	23128
878.058	23132
878.185	22984
878.313	23079
878.441	23090
878.568	22915
878.696	23037
878.824	23220
878.951	23235
879.079	23246
879.206	23288
879.333	23334
879.461	23128
879.588	23250
879.715	23345
879.842	23303
879.97	23235
880.097	22927
880.224	22911
880.351	23113
880.478	22927
880.605	22915
880.732	22957
880.859	23197
880.986	22946
881.112	23037
881.239	22752
881.366	22660
881.493	22630
881.619	22481
881.746	22656
881.872	22466
881.999	22447
882.125	22447
882.252	22584
882.378	22481
882.505	22546
882.631	22363
882.757	22303
882.883	22379
883.01	22261
883.136	22287
883.262	22177
883.388	22070
883.514	22196
883.64	22272
883.766	22032
883.892	22006
884.018	21922
884.143	22124
884.269	22177
884.395	21846
884.52	21838
884.646	21835
884.772	21797
884.897	21827
885.023	21850
885.148	21949
885.274	21964
885.399	21934
885.524	21793
885.65	21789
885.775	21755
885.9	21793
886.025	21812
886.15	21861
886.275	21781
886.4	21671
886.525	21739
886.65	21694
886.775	21812
886.9	21934
887.025	22067
887.149	21686
887.274	21675
887.399	21622
887.523	21534
887.648	21576
887.773	21500
887.897	21739
888.021	21686
888.146	21519
888.27	21724
888.395	21690
888.519	21633
888.643	21564
888.767	21633
888.891	21443
889.015	21374
889.139	21492
889.263	21443
889.387	21515
889.511	21648
889.635	21526
889.759	21344
889.883	21370
890.006	21439
890.13	21488
890.254	21279
890.377	21264
890.501	21104
890.624	21146
890.748	21138
890.871	20967
890.995	20868
891.118	20933
891.241	20952
891.364	21005
891.488	21070
891.611	21066
891.734	20933
891.857	21036
891.98	20979
892.103	20868
892.226	21009
892.349	20891
892.471	20686
892.594	20880
892.717	20826
892.839	20750
892.962	20853
893.085	20807
893.207	20842
893.33	20659
893.452	20811
893.575	20933
893.697	20807
893.819	21009
893.941	20963
894.064	20880
894.186	20762
894.308	20868
894.43	20811
894.552	20929
894.674	20994
894.796	20864
894.918	20712
895.04	20796
895.161	20853
895.283	20880
895.405	20686
895.526	20762
895.648	20693
895.769	20842
895.891	20864
896.012	20918
896.134	20792
896.255	20914
896.376	20830
896.498	20758
896.619	20746
896.74	20838
896.861	20838
896.982	21066
897.103	21256
897.224	20963
897.345	20986
897.466	20952
897.587	20906
897.708	21199
897.828	21066
897.949	20967
898.07	20777
898.19	20971
898.311	21074
898.431	21005
898.552	21028
898.672	21058
898.792	21169
898.913	20891
899.033	20861
899.153	20788
899.273	20693
899.393	20769
899.513	20872
899.633	20868
899.753	20670
899.873	20735
899.993	20739
900.113	20708
900.232	20727
900.352	20697
900.472	20514
900.591	20465
900.711	20526
900.83	20446
900.95	20549
901.069	20518
901.189	20324
901.308	20145
901.427	19970
901.546	20122
901.665	20092
901.784	20027
901.904	19849
902.023	19890
902.141	19662
902.26	19578
902.379	19677
902.498	19605
902.617	19666
902.735	19548
902.854	19586
902.973	19346
903.091	19209
903.21	19308
903.328	19179
903.446	19282
903.565	19088
903.683	19038
903.801	18901
903.919	18966
904.038	19008
904.156	18817
904.274	18848
904.392	18856
904.51	18688
904.627	18814
904.745	18802
904.863	18878
904.981	18639
905.098	18471
905.216	18441
905.334	18460
905.451	18517
905.569	18429
905.686	18429
905.803	18456
905.921	18315
906.038	18376
906.155	18308
906.272	18190
906.389	18136
906.506	18083
906.623	18144
906.74	17973
906.857	18106
906.974	17946
907.091	18034
907.208	18148
907.324	17988
907.441	17977
907.557	17813
907.674	17695
907.79	17764
907.907	17745
908.023	17737
908.139	17691
908.256	17703
908.372	17623
908.488	17566
908.604	17467
908.72	17482
908.836	17452
908.952	17417
909.068	17395
909.184	17592
909.3	17398
909.415	17448
909.531	17444
909.647	17162
909.762	17162
909.878	17193
909.993	17124
910.108	17075
910.224	17155
910.339	17102
910.454	16953
910.57	16965
910.685	16934
910.8	17071
910.915	17045
911.03	16854
911.145	16816
911.259	16668
911.374	16752
911.489	16618
911.604	16634
911.718	16440
911.833	16371
911.947	16352
912.062	16276
912.176	16462
912.291	16424
912.405	16356
912.519	16767
912.633	16607
912.748	16462
912.862	16481
912.976	16257
913.09	16158
913.204	16253
913.318	16344
913.431	16390
913.545	16310
913.659	16318
913.772	16131
913.886	16147
914	16067
914.113	16238
914.226	16223
914.34	16150
914.453	15953
914.566	16051
914.68	15922
914.793	15960
914.906	15766
915.019	15701
915.132	15618
915.245	15610
915.358	15667
915.47	15690
915.583	15572
915.696	15701
915.809	15804
915.921	15736
916.034	15648
916.146	15538
916.259	15545
916.371	15618
916.483	15599
916.595	15424
916.708	15397
916.82	15458
916.932	15401
917.044	15458
917.156	15306
917.268	15222
917.38	15336
917.491	15249
917.603	15260
917.715	15393
917.826	15367
917.938	15298
918.049	15062
918.161	15211
918.272	15279
918.384	15374
918.495	15233
918.606	15138
918.717	14998
918.828	15070
918.939	15024
919.05	14895
919.161	14960
919.272	14845
919.383	14872
919.494	14998
919.604	15272
919.715	15081
919.826	14823
919.936	15009
920.047	15062
920.157	15005
920.267	15203
920.378	14990
920.488	14933
920.598	15245
920.708	15176
920.818	15081
920.928	15195
921.038	15283
921.148	15294
921.258	14921
921.368	14834
921.477	14697
921.587	14777
921.697	14648
921.806	14716
921.916	14514
922.025	14366
922.134	14282
922.244	14252
922.353	14343
922.462	14142
922.571	14195
922.68	13993
922.789	13993
922.898	14050
923.007	13936
923.116	13963
923.224	13986
923.333	13925
923.442	13746
923.55	13917
923.659	13906
923.767	13936
923.876	13761
923.984	13860
924.092	13803
924.201	13632
924.309	13609
924.417	13719
924.525	13689
924.633	13666
924.741	14556
924.849	13487
924.956	13620
925.064	13438
925.172	13282
925.279	13339
925.387	13388
925.494	13441
925.602	13556
925.709	13445
925.816	13301
925.924	13187
926.031	13373
926.138	13316
926.245	13445
926.352	13179
926.459	13331
926.566	13301
926.673	13221
926.779	13027
926.886	13160
926.993	12996
927.099	12962
927.206	12852
927.312	12916
927.419	12909
927.525	12840
927.631	12916
927.737	12821
927.843	12795
927.95	12635
928.056	12688
928.162	12738
928.267	12745
928.373	13426
928.479	12757
928.585	12532
928.69	12623
928.796	12627
928.901	12635
929.007	12456
929.112	12612
929.218	12551
929.323	12467
929.428	12429
929.533	12604
929.638	12338
929.743	12441
929.848	12445
929.953	12407
930.058	12281
930.163	12117
930.267	12239
930.372	12285
930.477	12087
930.581	12330
930.685	12152
930.79	11977
930.894	12026
930.998	11984
931.103	12083
931.207	11737
931.311	11615
931.415	11528
931.519	11383
931.623	11402
