Data from test_V78500241_2428.txt Node
Date: Fri Mar 25 15:26:45 CST 2022
User: usil
Spectrometer: V785-0024
Trigger mode: 0
Integration Time (sec): 4.000000E-1
Scans to average: 1
Nonlinearity correction enabled: false
Boxcar width: 0
Storing dark spectrum: false
XAxis mode: Wavelengths
Number of Pixels in Spectrum: 1024
>>>>>Begin Spectral Data<<<<<
801.071	27252
801.214	27112
801.356	26895
801.499	26727
801.641	26712
801.783	26678
801.926	26906
802.068	26655
802.211	26834
802.353	26606
802.496	26385
802.638	26374
802.78	26381
802.923	26259
803.065	26225
803.208	26301
803.35	26366
803.492	26473
803.635	26568
803.777	26541
803.919	26530
804.061	26796
804.204	26522
804.346	26537
804.488	26530
804.63	26503
804.773	26385
804.915	26518
805.057	26697
805.199	26533
805.341	26606
805.483	26727
805.626	26701
805.768	26568
805.91	26606
806.052	26560
806.194	26511
806.336	26769
806.478	26648
806.62	26606
806.762	26880
806.904	26925
807.046	27104
807.188	27074
807.33	27032
807.472	27138
807.614	26944
807.756	26948
807.898	26804
808.04	26891
808.182	26674
808.324	26952
808.465	27104
808.607	27119
808.749	27161
808.891	27211
809.033	27382
809.174	27454
809.316	27161
809.458	27180
809.6	27020
809.741	27249
809.883	27386
810.025	27401
810.166	27538
810.308	27523
810.45	27454
810.591	27416
810.733	27268
810.875	27116
811.016	27036
811.158	26914
811.299	27241
811.441	27302
811.582	27329
811.724	27123
811.865	27135
812.007	27211
812.148	27112
812.29	27252
812.431	27370
812.573	27496
812.714	27679
812.855	27641
812.997	27888
813.138	27968
813.279	27842
813.421	27770
813.562	27717
813.703	27443
813.845	27454
813.986	27211
814.127	26986
814.268	26880
814.41	26891
814.551	26861
814.692	26876
814.833	26876
814.974	26906
815.115	26842
815.256	26712
815.397	26670
815.539	26758
815.68	26743
815.821	26533
815.962	26659
816.103	26636
816.244	26488
816.385	26389
816.526	26313
816.666	26199
816.807	26157
816.948	26233
817.089	26252
817.23	26275
817.371	26180
817.512	26240
817.653	26115
817.793	26054
817.934	26138
818.075	26248
818.216	26100
818.356	26092
818.497	25955
818.638	25841
818.778	25830
818.919	25887
819.06	25799
819.2	25909
819.341	26058
819.481	26240
819.622	26282
819.762	26374
819.903	26427
820.043	26298
820.184	26199
820.324	26305
820.465	26396
820.605	26453
820.746	26248
820.886	26138
821.026	26286
821.167	26081
821.307	26278
821.447	26164
821.588	25963
821.728	25894
821.868	25788
822.008	25662
822.149	25632
822.289	25674
822.429	25381
822.569	25377
822.709	25312
822.849	25179
822.99	25031
823.13	24977
823.27	25019
823.41	24951
823.55	24981
823.69	24871
823.83	24954
823.97	24859
824.11	24757
824.25	24760
824.389	24703
824.529	24913
824.669	24821
824.809	24840
824.949	24764
825.089	24867
825.228	24817
825.368	24608
825.508	24498
825.648	24475
825.787	24563
825.927	24715
826.067	24536
826.206	24677
826.346	24585
826.485	24673
826.625	24646
826.765	24681
826.904	24772
827.044	24521
827.183	24426
827.323	24251
827.462	24338
827.601	24327
827.741	24262
827.88	24426
828.02	24182
828.159	24395
828.298	24338
828.437	24509
828.577	24388
828.716	24563
828.855	24251
828.994	24034
829.134	24129
829.273	24144
829.412	23885
829.551	24076
829.69	24102
829.829	24114
829.968	24083
830.107	24182
830.246	24057
830.385	24034
830.524	23889
830.663	23889
830.802	23771
830.941	23562
831.08	23665
831.219	23832
831.357	23756
831.496	23885
831.635	23680
831.774	23646
831.913	23661
832.051	23402
832.19	23425
832.329	23448
832.467	23364
832.606	23288
832.744	23326
832.883	23455
833.022	23440
833.16	23337
833.299	23406
833.437	23444
833.576	23497
833.714	23551
833.852	23440
833.991	23554
834.129	23448
834.267	23467
834.406	23383
834.544	23471
834.682	23459
834.821	23421
834.959	23611
835.097	23364
835.235	23478
835.373	23368
835.511	23398
835.65	23280
835.788	23140
835.926	23143
836.064	22987
836.202	23204
836.34	23227
836.478	23235
836.615	23307
836.753	23166
836.891	23337
837.029	23322
837.167	23136
837.305	23117
837.443	23109
837.58	23098
837.718	23151
837.856	23044
837.993	22984
838.131	23166
838.269	22953
838.406	23048
838.544	22904
838.681	22748
838.819	22679
838.956	22580
839.094	22634
839.231	22664
839.369	22721
839.506	23090
839.643	22873
839.781	22542
839.918	22573
840.055	22592
840.193	22577
840.33	22462
840.467	22500
840.604	22531
840.742	22812
840.879	22398
841.016	22481
841.153	22432
841.29	22531
841.427	22603
841.564	22550
841.701	22421
841.838	22440
841.975	22436
842.112	22402
842.249	22310
842.385	22287
842.522	22409
842.659	22303
842.796	22280
842.933	22181
843.069	22310
843.206	22261
843.343	22352
843.479	22333
843.616	22265
843.752	21972
843.889	22101
844.025	22242
844.162	22124
844.298	22116
844.435	22032
844.571	22070
844.708	22097
844.844	22291
844.98	22158
845.117	22185
845.253	22059
845.389	21930
845.525	21876
845.661	21953
845.798	21781
845.934	21915
846.07	21739
846.206	21759
846.342	21778
846.478	21736
846.614	21572
846.75	21401
846.886	21603
847.022	21690
847.158	21488
847.294	21473
847.429	21534
847.565	21492
847.701	21846
847.837	21275
847.972	21173
848.108	21310
848.244	21313
848.379	21222
848.515	21165
848.65	21203
848.786	21142
848.921	21157
849.057	21252
849.192	21260
849.328	21165
849.463	21142
849.598	21055
849.734	20982
849.869	20960
850.004	20929
850.14	20857
850.275	20921
850.41	20830
850.545	20845
850.68	20785
850.815	20956
850.95	20914
851.085	21096
851.22	21009
851.355	20971
851.49	20902
851.625	20823
851.76	20887
851.895	20701
852.03	20819
852.165	20937
852.299	20948
852.434	21036
852.569	20906
852.703	20838
852.838	20918
852.973	21032
853.107	20960
853.242	20773
853.376	20861
853.511	20655
853.645	20746
853.78	20902
853.914	20693
854.048	20765
854.183	20606
854.317	20762
854.451	20998
854.585	20644
854.72	20750
854.854	20880
854.988	20648
855.122	20731
855.256	20583
855.39	20640
855.524	20807
855.658	20758
855.792	20708
855.926	20765
856.06	20823
856.194	20834
856.327	20708
856.461	20689
856.595	20625
856.729	20746
856.862	20796
856.996	20731
857.13	20754
857.263	20785
857.397	20842
857.53	20746
857.664	20739
857.797	20773
857.931	20705
858.064	20845
858.197	20857
858.331	20697
858.464	20602
858.597	20693
858.731	20826
858.864	20674
858.997	20625
859.13	20735
859.263	20674
859.396	20880
859.529	20716
859.662	20689
859.795	20720
859.928	20689
860.061	20788
860.194	20876
860.327	20712
860.46	20750
860.592	20834
860.725	20830
860.858	20849
860.99	20739
861.123	20541
861.256	20621
861.388	20735
861.521	21279
861.653	20590
861.786	20587
861.918	20575
862.05	20648
862.183	20625
862.315	20659
862.447	20739
862.58	20579
862.712	20476
862.844	20347
862.976	20499
863.108	20530
863.24	20785
863.372	20469
863.504	20355
863.636	20454
863.768	20533
863.9	20412
864.032	20419
864.164	20259
864.296	20404
864.428	20663
864.559	20419
864.691	20434
864.823	20476
864.954	20351
865.086	20431
865.217	20282
865.349	20278
865.48	20305
865.612	20309
865.743	20442
865.875	20389
866.006	20275
866.137	20278
866.269	20282
866.4	20282
866.531	20267
866.662	20267
866.793	20221
866.924	20256
867.055	20271
867.186	20286
867.317	20244
867.448	20294
867.579	20237
867.71	20172
867.841	20157
867.972	20290
868.103	20138
868.233	20237
868.364	20347
868.495	20358
868.625	20488
868.756	20629
868.886	20461
869.017	20503
869.147	20644
869.278	20511
869.408	20393
869.539	20362
869.669	20579
869.799	20511
869.929	20613
870.06	20670
870.19	20823
870.32	20765
870.45	20758
870.58	20804
870.71	21055
870.84	20933
870.97	20971
871.1	20872
871.23	21036
871.36	21138
871.489	20971
871.619	21039
871.749	21131
871.879	21043
872.008	21245
872.138	21142
872.267	21119
872.397	20952
872.526	21074
872.656	20906
872.785	21017
872.915	21135
873.044	21245
873.173	21188
873.303	21112
873.432	21150
873.561	21173
873.69	21104
873.819	21161
873.948	21332
874.077	21146
874.206	21032
874.335	21066
874.464	21176
874.593	21329
874.722	21275
874.851	21408
874.979	21549
875.108	21374
875.237	21351
875.365	21325
875.494	21283
875.623	21439
875.751	21424
875.88	21450
876.008	21458
876.136	21534
876.265	21755
876.393	21892
876.521	21793
876.65	21797
876.778	21724
876.906	21785
877.034	21625
877.162	21793
877.29	21603
877.418	21705
877.546	21709
877.674	21789
877.802	21789
877.93	21838
878.058	21713
878.185	21675
878.313	21671
878.441	21663
878.568	21553
878.696	21686
878.824	21671
878.951	21705
879.079	21941
879.206	22128
879.333	21926
879.461	21732
879.588	21823
879.715	21842
879.842	21998
879.97	21736
880.097	21519
880.224	21511
880.351	21610
880.478	21542
880.605	21348
880.732	21477
880.859	21876
880.986	21507
881.112	21587
881.239	21458
881.366	21336
881.493	21195
881.619	21116
881.746	21192
881.872	21138
881.999	21077
882.125	20975
882.252	21100
882.378	21165
882.505	21287
882.631	20994
882.757	20838
882.883	20967
883.01	20857
883.136	20823
883.262	20712
883.388	20712
883.514	20872
883.64	20838
883.766	20861
883.892	20564
884.018	20625
884.143	20800
884.269	20849
884.395	20549
884.52	20476
884.646	20499
884.772	20377
884.897	20320
885.023	20511
885.148	20602
885.274	20674
885.399	20552
885.524	20396
885.65	20454
885.775	20431
885.9	20396
886.025	20514
886.15	20511
886.275	20446
886.4	20385
886.525	20431
886.65	20301
886.775	20370
886.9	20507
887.025	20705
887.149	20541
887.274	20218
887.399	20187
887.523	20305
887.648	20187
887.773	20225
887.897	20396
888.021	20313
888.146	20248
888.27	20298
888.395	20404
888.519	20320
888.643	20332
888.767	20218
888.891	20164
889.015	20039
889.139	20107
889.263	20096
889.387	20172
889.511	20301
889.635	20054
889.759	19989
889.883	19944
890.006	20130
890.13	20111
890.254	19864
890.377	20039
890.501	19902
890.624	19769
890.748	19826
890.871	19620
890.995	19742
891.118	19548
891.241	19586
891.364	19753
891.488	19704
891.611	19658
891.734	19609
891.857	19609
891.98	19655
892.103	19700
892.226	19655
892.349	19590
892.471	19400
892.594	19472
892.717	19567
892.839	19491
892.962	19601
893.085	19540
893.207	19529
893.33	19609
893.452	19449
893.575	19662
893.697	19449
893.819	19757
893.941	19738
894.064	19753
894.186	19487
894.308	19502
894.43	19563
894.552	19780
894.674	19635
894.796	19426
894.918	19552
895.04	19548
895.161	19700
895.283	19594
895.405	19506
895.526	19632
895.648	19540
895.769	19639
895.891	19643
896.012	19605
896.134	19544
896.255	19605
896.376	19548
896.498	19529
896.619	19605
896.74	19685
896.861	19628
896.982	19982
897.103	20115
897.224	19799
897.345	19757
897.466	19655
897.587	19769
897.708	19890
897.828	19780
897.949	19696
898.07	19712
898.19	19818
898.311	19864
898.431	19753
898.552	19715
898.672	19906
898.792	19788
898.913	19883
899.033	19712
899.153	19476
899.273	19514
899.393	19571
899.513	19597
899.633	19495
899.753	19578
899.873	19529
899.993	19594
900.113	19453
900.232	19449
900.352	19540
900.472	19285
900.591	19324
900.711	19274
900.83	19266
900.95	19377
901.069	19487
901.189	19255
901.308	18989
901.427	19053
901.546	18935
901.665	18878
901.784	18863
901.904	18814
902.023	18623
902.141	18483
902.26	18422
902.379	18528
902.498	18528
902.617	18338
902.735	18475
902.854	18334
902.973	18342
903.091	18117
903.21	18136
903.328	18174
903.446	18022
903.565	17794
903.683	18007
903.801	17859
903.919	17885
904.038	17889
904.156	17634
904.274	17786
904.392	17703
904.51	17649
904.627	17577
904.745	17695
904.863	17786
904.981	17535
905.098	17402
905.216	17356
905.334	17444
905.451	17345
905.569	17330
905.686	17326
905.803	17455
905.921	17223
906.038	17322
906.155	17200
906.272	17086
906.389	17094
906.506	16869
906.623	16930
906.74	16896
906.857	16892
906.974	16927
907.091	16957
907.208	17079
907.324	16972
907.441	16771
907.557	16615
907.674	16717
907.79	16500
907.907	16691
908.023	16584
908.139	16641
908.256	16596
908.372	16421
908.488	16451
908.604	16417
908.72	16421
908.836	16333
908.952	16249
909.068	16402
909.184	16466
909.3	16386
909.415	16344
909.531	16428
909.647	16078
909.762	16032
909.878	16006
909.993	16013
910.108	16124
910.224	16059
910.339	15998
910.454	15831
910.57	15956
910.685	15831
910.8	16082
910.915	15991
911.03	15857
911.145	15644
911.259	15591
911.374	15713
911.489	15591
911.604	15542
911.718	15439
911.833	15389
911.947	15340
912.062	15264
912.176	15443
912.291	15389
912.405	15374
912.519	15618
912.633	15572
912.748	15496
912.862	15363
912.976	15355
913.09	15154
913.204	15192
913.318	15241
913.431	15325
913.545	15264
913.659	15302
913.772	15233
913.886	15146
914	14960
914.113	15131
914.226	15165
914.34	15085
914.453	14971
914.566	15093
914.68	14952
914.793	14952
914.906	14739
915.019	14606
915.132	14613
915.245	14743
915.358	14651
915.47	14670
915.583	14598
915.696	14636
915.809	14678
915.921	14773
916.034	14571
916.146	14625
916.259	14541
916.371	14598
916.483	14587
916.595	14454
916.708	14514
916.82	14495
916.932	14438
917.044	14526
917.156	14446
917.268	14370
917.38	14408
917.491	14355
917.603	14492
917.715	14290
917.826	14446
917.938	14259
918.049	14199
918.161	14328
918.272	14415
918.384	14377
918.495	14313
918.606	14073
918.717	13955
918.828	14065
918.939	14161
919.05	13921
919.161	14077
919.272	13898
919.383	13879
919.494	14187
919.604	14324
919.715	14172
919.826	14027
919.936	14062
920.047	14153
920.157	14111
920.267	14336
920.378	14149
920.488	14062
920.598	14157
920.708	14259
920.818	14282
920.928	14244
921.038	14328
921.148	14309
921.258	14100
921.368	14054
921.477	13750
921.587	13795
921.697	13674
921.806	13791
921.916	13746
922.025	13529
922.134	13362
922.244	13422
922.353	13495
922.462	13392
922.571	13274
922.68	13236
922.789	13110
922.898	13133
923.007	13095
923.116	13160
923.224	13126
923.333	13156
923.442	13012
923.55	12939
923.659	12939
923.767	13053
923.876	12875
923.984	12947
924.092	12920
924.201	12867
924.309	12878
924.417	12878
924.525	12798
924.633	12776
924.741	13830
924.849	12585
924.956	12715
925.064	12658
925.172	12525
925.279	12551
925.387	12544
925.494	12555
925.602	12662
925.709	12563
925.816	12452
925.924	12563
926.031	12506
926.138	12547
926.245	12536
926.352	12414
926.459	12547
926.566	12578
926.673	12441
926.779	12304
926.886	12254
926.993	12098
927.099	12178
927.206	12057
927.312	12087
927.419	12152
927.525	12133
927.631	12121
927.737	12110
927.843	12015
927.95	11901
928.056	12041
928.162	11984
928.267	12026
928.373	12616
928.479	12133
928.585	11832
928.69	11912
928.796	11977
928.901	11790
929.007	11699
929.112	11809
929.218	11824
929.323	11707
929.428	11688
929.533	11897
929.638	11680
929.743	11676
929.848	11722
929.953	11600
930.058	11493
930.163	11429
930.267	11440
930.372	11570
930.477	11395
930.581	11630
930.685	11471
930.79	11311
930.894	11208
930.998	11170
931.103	11471
931.207	10942
931.311	11006
931.415	10847
931.519	10660
931.623	10649
