Data from test_V78500241_174.txt Node
Date: Fri Mar 25 15:11:04 CST 2022
User: usil
Spectrometer: V785-0024
Trigger mode: 0
Integration Time (sec): 4.000000E-1
Scans to average: 1
Nonlinearity correction enabled: false
Boxcar width: 0
Storing dark spectrum: false
XAxis mode: Wavelengths
Number of Pixels in Spectrum: 1024
>>>>>Begin Spectral Data<<<<<
801.071	28120
801.214	28021
801.356	27903
801.499	27804
801.641	27705
801.783	27603
801.926	27561
802.068	27641
802.211	27389
802.353	27507
802.496	27252
802.638	27199
802.78	27199
802.923	27161
803.065	27058
803.208	26994
803.35	27233
803.492	27427
803.635	27386
803.777	27317
803.919	27348
804.061	27648
804.204	27367
804.346	27306
804.488	27161
804.63	27291
804.773	27146
804.915	27230
805.057	27420
805.199	27275
805.341	27378
805.483	27291
805.626	27386
805.768	27317
805.91	27401
806.052	27310
806.194	27412
806.336	27648
806.478	27572
806.62	27447
806.762	27458
806.904	27663
807.046	27755
807.188	27823
807.33	27728
807.472	27835
807.614	27732
807.756	27660
807.898	27671
808.04	27568
808.182	27507
808.324	27572
808.465	27557
808.607	27698
808.749	27930
808.891	28021
809.033	28025
809.174	28036
809.316	27823
809.458	27876
809.6	27797
809.741	27994
809.883	28002
810.025	27884
810.166	28131
810.308	28135
810.45	28124
810.591	27953
810.733	27983
810.875	27743
811.016	27728
811.158	27747
811.299	27956
811.441	28032
811.582	27972
811.724	27979
811.865	27781
812.007	27781
812.148	27922
812.29	27914
812.431	27903
812.573	28162
812.714	28070
812.855	28230
812.997	28527
813.138	28668
813.279	28512
813.421	28291
813.562	28356
813.703	28040
813.845	28025
813.986	27774
814.127	27686
814.268	27542
814.41	27458
814.551	27439
814.692	27568
814.833	27386
814.974	27447
815.115	27526
815.256	27329
815.397	27252
815.539	27230
815.68	27294
815.821	27123
815.962	27131
816.103	27199
816.244	26979
816.385	26925
816.526	26990
816.666	26727
816.807	26644
816.948	26773
817.089	26792
817.23	26758
817.371	26720
817.512	26750
817.653	26594
817.793	26583
817.934	26708
818.075	26644
818.216	26682
818.356	26606
818.497	26404
818.638	26229
818.778	26495
818.919	26336
819.06	26339
819.2	26469
819.341	26545
819.481	26552
819.622	26625
819.762	26937
819.903	26804
820.043	26655
820.184	26533
820.324	26651
820.465	26621
820.605	26606
820.746	26632
820.886	26609
821.026	26552
821.167	26609
821.307	26590
821.447	26564
821.588	26473
821.728	26309
821.868	26237
822.008	26027
822.149	25898
822.289	25974
822.429	25727
822.569	25556
822.709	25723
822.849	25571
822.99	25369
823.13	25575
823.27	25365
823.41	25354
823.55	25259
823.69	25247
823.83	25228
823.97	25183
824.11	25202
824.25	25152
824.389	25190
824.529	25255
824.669	25008
824.809	25190
824.949	25133
825.089	25202
825.228	25137
825.368	24928
825.508	24890
825.648	24996
825.787	24920
825.927	24962
826.067	25000
826.206	24894
826.346	25046
826.485	24992
826.625	24871
826.765	24992
826.904	25012
827.044	24604
827.183	24608
827.323	24498
827.462	24612
827.601	24559
827.741	24631
827.88	24692
828.02	24540
828.159	24433
828.298	24570
828.437	24642
828.577	24464
828.716	24578
828.855	24414
828.994	24285
829.134	24262
829.273	24350
829.412	24330
829.551	24148
829.69	24186
829.829	24251
829.968	24209
830.107	24308
830.246	24289
830.385	24254
830.524	24235
830.663	24095
830.802	24102
830.941	23942
831.08	23847
831.219	23855
831.357	23878
831.496	24095
831.635	23771
831.774	23779
831.913	23710
832.051	23596
832.19	23581
832.329	23528
832.467	23463
832.606	23474
832.744	23406
832.883	23455
833.022	23474
833.16	23471
833.299	23414
833.437	23410
833.576	23505
833.714	23512
833.852	23490
833.991	23649
834.129	23570
834.267	23623
834.406	23535
834.544	23528
834.682	23653
834.821	23478
834.959	23615
835.097	23406
835.235	23482
835.373	23493
835.511	23596
835.65	23414
835.788	23341
835.926	23231
836.064	23258
836.202	23235
836.34	23341
836.478	23376
836.615	23284
836.753	23341
836.891	23429
837.029	23334
837.167	23269
837.305	23273
837.443	23151
837.58	23204
837.718	23261
837.856	23227
837.993	23086
838.131	23109
838.269	23033
838.406	23128
838.544	23071
838.681	22736
838.819	22691
838.956	22516
839.094	22752
839.231	22653
839.369	22812
839.506	22957
839.643	22812
839.781	22500
839.918	22500
840.055	22573
840.193	22641
840.33	22455
840.467	22394
840.604	22580
840.742	22748
840.879	22306
841.016	22447
841.153	22447
841.29	22679
841.427	22596
841.564	22630
841.701	22382
841.838	22500
841.975	22447
842.112	22417
842.249	22204
842.385	22295
842.522	22367
842.659	22322
842.796	22360
842.933	22188
843.069	22139
843.206	22192
843.343	22169
843.479	22223
843.616	22284
843.752	22021
843.889	22029
844.025	22120
844.162	21975
844.298	22105
844.435	22059
844.571	21968
844.708	22017
844.844	22078
844.98	22238
845.117	22101
845.253	21903
845.389	21823
845.525	21876
845.661	21717
845.798	21751
845.934	21709
846.07	21739
846.206	21717
846.342	21857
846.478	21641
846.614	21564
846.75	21511
846.886	21500
847.022	21530
847.158	21416
847.294	21412
847.429	21564
847.565	21306
847.701	21583
847.837	21199
847.972	21157
848.108	21230
848.244	21245
848.379	21066
848.515	21032
848.65	21039
848.786	21081
848.921	21066
849.057	20971
849.192	21192
849.328	21081
849.463	20986
849.598	20979
849.734	20963
849.869	20899
850.004	20765
850.14	20864
850.275	20804
850.41	20731
850.545	20746
850.68	20693
850.815	20800
850.95	20674
851.085	20689
851.22	20769
851.355	20667
851.49	20686
851.625	20632
851.76	20629
851.895	20537
852.03	20644
852.165	20670
852.299	20796
852.434	20758
852.569	20758
852.703	20720
852.838	20792
852.973	20800
853.107	20849
853.242	20655
853.376	20530
853.511	20552
853.645	20583
853.78	20720
853.914	20568
854.048	20480
854.183	20571
854.317	20552
854.451	20735
854.585	20606
854.72	20457
854.854	20583
854.988	20518
855.122	20541
855.256	20427
855.39	20575
855.524	20564
855.658	20594
855.792	20621
855.926	20564
856.06	20682
856.194	20750
856.327	20670
856.461	20514
856.595	20514
856.729	20594
856.862	20655
856.996	20629
857.13	20560
857.263	20674
857.397	20545
857.53	20549
857.664	20648
857.797	20530
857.931	20583
858.064	20518
858.197	20693
858.331	20495
858.464	20450
858.597	20358
858.731	20511
858.864	20617
858.997	20541
859.13	20408
859.263	20549
859.396	20473
859.529	20568
859.662	20469
859.795	20431
859.928	20522
860.061	20602
860.194	20602
860.327	20530
860.46	20583
860.592	20552
860.725	20663
860.858	20568
860.99	20552
861.123	20400
861.256	20415
861.388	20492
861.521	21260
861.653	20305
861.786	20278
861.918	20514
862.05	20476
862.183	20336
862.315	20518
862.447	20571
862.58	20522
862.712	20298
862.844	20252
862.976	20324
863.108	20202
863.24	20617
863.372	20210
863.504	20233
863.636	20187
863.768	20202
863.9	20229
864.032	20005
864.164	20176
864.296	20267
864.428	20248
864.559	20305
864.691	20343
864.823	20233
864.954	20206
865.086	20130
865.217	20054
865.349	20058
865.48	20168
865.612	20199
865.743	20240
865.875	20046
866.006	20054
866.137	20244
866.269	20088
866.4	20088
866.531	20130
866.662	20031
866.793	20062
866.924	19982
867.055	20062
867.186	20058
867.317	20092
867.448	19970
867.579	19959
867.71	19951
867.841	19864
867.972	20172
868.103	20084
868.233	20088
868.364	20084
868.495	20103
868.625	20153
868.756	20400
868.886	20248
869.017	20263
869.147	20419
869.278	20336
869.408	20267
869.539	20267
869.669	20252
869.799	20305
869.929	20366
870.06	20355
870.19	20514
870.32	20632
870.45	20686
870.58	20609
870.71	20743
870.84	20849
870.97	20636
871.1	20587
871.23	20861
871.36	20895
871.489	20640
871.619	20929
871.749	20872
871.879	20849
872.008	20956
872.138	20746
872.267	20826
872.397	20731
872.526	20583
872.656	20617
872.785	20674
872.915	20845
873.044	20906
873.173	20921
873.303	20986
873.432	20979
873.561	20990
873.69	21009
873.819	20952
873.948	21104
874.077	20864
874.206	20853
874.335	20891
874.464	20975
874.593	21222
874.722	21085
874.851	21135
874.979	21291
875.108	21074
875.237	21062
875.365	21039
875.494	21051
875.623	21142
875.751	20982
875.88	21188
876.008	21249
876.136	21329
876.265	21378
876.393	21690
876.521	21526
876.65	21587
876.778	21454
876.906	21507
877.034	21405
877.162	21538
877.29	21439
877.418	21580
877.546	21382
877.674	21386
877.802	21370
877.93	21504
878.058	21370
878.185	21325
878.313	21481
878.441	21473
878.568	21287
878.696	21431
878.824	21469
878.951	21568
879.079	21690
879.206	21743
879.333	21641
879.461	21504
879.588	21599
879.715	21568
879.842	21816
879.97	21466
880.097	21348
880.224	21214
880.351	21382
880.478	21321
880.605	21332
880.732	21245
880.859	21416
880.986	21344
881.112	21245
881.239	21207
881.366	21001
881.493	20891
881.619	20918
881.746	21032
881.872	21028
881.999	20861
882.125	20781
882.252	20914
882.378	20941
882.505	21024
882.631	20815
882.757	20705
882.883	20701
883.01	20674
883.136	20583
883.262	20431
883.388	20415
883.514	20651
883.64	20663
883.766	20530
883.892	20465
884.018	20533
884.143	20564
884.269	20697
884.395	20317
884.52	20252
884.646	20263
884.772	20271
884.897	20195
885.023	20218
885.148	20370
885.274	20377
885.399	20427
885.524	20229
885.65	20290
885.775	20214
885.9	20278
886.025	20499
886.15	20404
886.275	20218
886.4	20111
886.525	20191
886.65	20138
886.775	20294
886.9	20275
887.025	20495
887.149	20176
887.274	20050
887.399	20043
887.523	20035
887.648	19951
887.773	19864
887.897	20035
888.021	20115
888.146	19959
888.27	20096
888.395	20035
888.519	20008
888.643	20103
888.767	20065
888.891	19902
889.015	19894
889.139	19898
889.263	19894
889.387	20035
889.511	20001
889.635	19944
889.759	19731
889.883	19784
890.006	19845
890.13	19887
890.254	19807
890.377	19807
890.501	19514
890.624	19445
890.748	19651
890.871	19472
890.995	19499
891.118	19335
891.241	19263
891.364	19358
891.488	19563
891.611	19495
891.734	19464
891.857	19540
891.98	19365
892.103	19320
892.226	19365
892.349	19460
892.471	19282
892.594	19457
892.717	19449
892.839	19304
892.962	19316
893.085	19388
893.207	19247
893.33	19206
893.452	19240
893.575	19358
893.697	19346
893.819	19487
893.941	19460
894.064	19411
894.186	19270
894.308	19217
894.43	19453
894.552	19472
894.674	19331
894.796	19221
894.918	19263
895.04	19278
895.161	19324
895.283	19369
895.405	19263
895.526	19335
895.648	19430
895.769	19369
895.891	19392
896.012	19411
896.134	19419
896.255	19400
896.376	19384
896.498	19396
896.619	19400
896.74	19358
896.861	19449
896.982	19647
897.103	19814
897.224	19738
897.345	19643
897.466	19548
897.587	19666
897.708	19803
897.828	19510
897.949	19518
898.07	19392
898.19	19681
898.311	19601
898.431	19521
898.552	19559
898.672	19514
898.792	19662
898.913	19453
899.033	19510
899.153	19266
899.273	19217
899.393	19266
899.513	19331
899.633	19312
899.753	19373
899.873	19232
899.993	19350
900.113	19331
900.232	19285
900.352	19228
900.472	19114
900.591	19027
900.711	19133
900.83	19122
900.95	19179
901.069	19270
901.189	18993
901.308	18867
901.427	18715
901.546	18677
901.665	18673
901.784	18673
901.904	18654
902.023	18426
902.141	18292
902.26	18292
902.379	18308
902.498	18144
902.617	18121
902.735	18148
902.854	18117
902.973	18064
903.091	17973
903.21	17927
903.328	17878
903.446	17775
903.565	17642
903.683	17638
903.801	17623
903.919	17680
904.038	17718
904.156	17589
904.274	17566
904.392	17516
904.51	17486
904.627	17452
904.745	17608
904.863	17528
904.981	17296
905.098	17128
905.216	17071
905.334	17102
905.451	17140
905.569	17132
905.686	17216
905.803	17071
905.921	16968
906.038	17052
906.155	16869
906.272	16793
906.389	16930
906.506	16615
906.623	16683
906.74	16561
906.857	16558
906.974	16504
907.091	16713
907.208	16771
907.324	16820
907.441	16489
907.557	16519
907.674	16386
907.79	16268
907.907	16337
908.023	16265
908.139	16409
908.256	16272
908.372	16242
908.488	16200
908.604	16135
908.72	16067
908.836	15998
908.952	16105
909.068	16032
909.184	16090
909.3	16002
909.415	16166
909.531	16082
909.647	15709
909.762	15808
909.878	15762
909.993	15774
910.108	15793
910.224	15751
910.339	15694
910.454	15679
910.57	15625
910.685	15606
910.8	15808
910.915	15667
911.03	15629
911.145	15310
911.259	15321
911.374	15291
911.489	15294
911.604	15268
911.718	15108
911.833	15112
911.947	14998
912.062	14929
912.176	15085
912.291	15077
912.405	15066
912.519	15298
912.633	15283
912.748	15112
912.862	15074
912.976	14921
913.09	14823
913.204	14796
913.318	14952
913.431	15062
913.545	15047
913.659	14975
913.772	14830
913.886	14693
914	14705
914.113	14788
914.226	14823
914.34	14819
914.453	14602
914.566	14796
914.68	14644
914.793	14587
914.906	14446
915.019	14347
915.132	14282
915.245	14396
915.358	14385
915.47	14362
915.583	14385
915.696	14442
915.809	14419
915.921	14495
916.034	14396
916.146	14324
916.259	14313
916.371	14324
916.483	14339
916.595	14153
916.708	14290
916.82	14161
916.932	14206
917.044	14180
917.156	14119
917.268	14084
917.38	14126
917.491	14084
917.603	13947
917.715	14138
917.826	14130
917.938	13967
918.049	13826
918.161	14039
918.272	14183
918.384	14164
918.495	13967
918.606	13864
918.717	13772
918.828	13765
918.939	13951
919.05	13696
919.161	13780
919.272	13590
919.383	13624
919.494	13875
919.604	13997
919.715	13731
919.826	13689
919.936	13731
920.047	13902
920.157	13757
920.267	13909
920.378	13769
920.488	13738
920.598	13917
920.708	14050
920.818	13837
920.928	13871
921.038	14058
921.148	14024
921.258	13715
921.368	13655
921.477	13609
921.587	13552
921.697	13381
921.806	13506
921.916	13369
922.025	13282
922.134	13190
922.244	13057
922.353	13171
922.462	13069
922.571	12958
922.68	12741
922.789	12730
922.898	12787
923.007	12715
923.116	12802
923.224	12859
923.333	12772
923.442	12669
923.55	12608
923.659	12601
923.767	12734
923.876	12540
923.984	12768
924.092	12547
924.201	12574
924.309	12551
924.417	12570
924.525	12490
924.633	12471
924.741	13316
924.849	12350
924.956	12467
925.064	12232
925.172	12247
925.279	12315
925.387	12243
925.494	12247
925.602	12403
925.709	12357
925.816	12182
925.924	12224
926.031	12323
926.138	12289
926.245	12258
926.352	12026
926.459	12292
926.566	12289
926.673	12152
926.779	12148
926.886	12030
926.993	11855
927.099	11847
927.206	11840
927.312	11756
927.419	11931
927.525	11779
927.631	11752
927.737	11855
927.843	11615
927.95	11665
928.056	11733
928.162	11748
928.267	11657
928.373	12277
928.479	11805
928.585	11493
928.69	11600
928.796	11665
928.901	11551
929.007	11402
929.112	11463
929.218	11448
929.323	11433
929.428	11505
929.533	11554
929.638	11410
929.743	11387
929.848	11440
929.953	11372
930.058	11269
930.163	11140
930.267	11128
930.372	11273
930.477	11083
930.581	11311
930.685	11140
930.79	10980
930.894	11094
930.998	10949
931.103	11090
931.207	10752
931.311	10733
931.415	10592
931.519	10390
931.623	10375
