Data from test_V78500241_2140.txt Node
Date: Fri Mar 25 15:24:45 CST 2022
User: usil
Spectrometer: V785-0024
Trigger mode: 0
Integration Time (sec): 4.000000E-1
Scans to average: 1
Nonlinearity correction enabled: false
Boxcar width: 0
Storing dark spectrum: false
XAxis mode: Wavelengths
Number of Pixels in Spectrum: 1024
>>>>>Begin Spectral Data<<<<<
801.071	27564
801.214	27435
801.356	27195
801.499	27192
801.641	27112
801.783	27066
801.926	27226
802.068	27009
802.211	26937
802.353	27047
802.496	26788
802.638	26724
802.78	26667
802.923	26720
803.065	26659
803.208	26594
803.35	26781
803.492	26769
803.635	26857
803.777	26891
803.919	26830
804.061	27256
804.204	26868
804.346	26727
804.488	26857
804.63	27009
804.773	26834
804.915	26838
805.057	27001
805.199	26872
805.341	26975
805.483	27093
805.626	27096
805.768	26872
805.91	26998
806.052	27001
806.194	27032
806.336	27256
806.478	27066
806.62	27096
806.762	27116
806.904	27272
807.046	27625
807.188	27389
807.33	27458
807.472	27515
807.614	27496
807.756	27504
807.898	27382
808.04	27256
808.182	27370
808.324	27321
808.465	27336
808.607	27648
808.749	27713
808.891	27698
809.033	27838
809.174	27713
809.316	27637
809.458	27644
809.6	27583
809.741	27751
809.883	27766
810.025	27831
810.166	27945
810.308	27941
810.45	27850
810.591	27884
810.733	27690
810.875	27587
811.016	27629
811.158	27462
811.299	27648
811.441	27774
811.582	27842
811.724	27614
811.865	27583
812.007	27641
812.148	27690
812.29	27705
812.431	27793
812.573	28029
812.714	27899
812.855	28147
812.997	28074
813.138	28413
813.279	28390
813.421	28257
813.562	28158
813.703	27994
813.845	27846
813.986	27564
814.127	27603
814.268	27355
814.41	27466
814.551	27439
814.692	27458
814.833	27458
814.974	27355
815.115	27420
815.256	27298
815.397	27096
815.539	27268
815.68	27020
815.821	26975
815.962	27180
816.103	27058
816.244	26971
816.385	26883
816.526	26857
816.666	26746
816.807	26648
816.948	26598
817.089	26693
817.23	26629
817.371	26640
817.512	26609
817.653	26663
817.793	26530
817.934	26670
818.075	26560
818.216	26583
818.356	26480
818.497	26450
818.638	26377
818.778	26332
818.919	26366
819.06	26480
819.2	26492
819.341	26583
819.481	26423
819.622	26746
819.762	26975
819.903	26792
820.043	26686
820.184	26625
820.324	26689
820.465	26629
820.605	26640
820.746	26659
820.886	26533
821.026	26571
821.167	26575
821.307	26754
821.447	26655
821.588	26488
821.728	26374
821.868	26195
822.008	26176
822.149	26115
822.289	26088
822.429	25868
822.569	25780
822.709	25776
822.849	25666
822.99	25510
823.13	25613
823.27	25628
823.41	25426
823.55	25221
823.69	25430
823.83	25415
823.97	25308
824.11	25259
824.25	25133
824.389	25232
824.529	25396
824.669	25122
824.809	25209
824.949	25301
825.089	25285
825.228	25285
825.368	25145
825.508	25012
825.648	25156
825.787	25168
825.927	25114
826.067	25072
826.206	24996
826.346	25004
826.485	25107
826.625	25171
826.765	25114
826.904	25095
827.044	24977
827.183	24970
827.323	24814
827.462	24890
827.601	24787
827.741	24745
827.88	24829
828.02	24654
828.159	24730
828.298	24859
828.437	24764
828.577	24734
828.716	24837
828.855	24757
828.994	24509
829.134	24437
829.273	24467
829.412	24464
829.551	24384
829.69	24395
829.829	24646
829.968	24555
830.107	24635
830.246	24513
830.385	24296
830.524	24350
830.663	24338
830.802	24270
830.941	24083
831.08	23996
831.219	24228
831.357	24072
831.496	24281
831.635	24159
831.774	24068
831.913	23961
832.051	23920
832.19	23992
832.329	23764
832.467	23908
832.606	23665
832.744	23691
832.883	23840
833.022	23638
833.16	23718
833.299	23851
833.437	23672
833.576	23863
833.714	23764
833.852	23863
833.991	23878
834.129	23878
834.267	23809
834.406	23748
834.544	23855
834.682	23726
834.821	23752
834.959	23958
835.097	23783
835.235	23824
835.373	23767
835.511	23726
835.65	23699
835.788	23646
835.926	23566
836.064	23478
836.202	23417
836.34	23627
836.478	23619
836.615	23570
836.753	23566
836.891	23752
837.029	23623
837.167	23611
837.305	23577
837.443	23592
837.58	23528
837.718	23600
837.856	23459
837.993	23440
838.131	23452
838.269	23379
838.406	23425
838.544	23307
838.681	23121
838.819	23075
838.956	22946
839.094	22972
839.231	23022
839.369	23121
839.506	23414
839.643	23064
839.781	22946
839.918	22771
840.055	22896
840.193	22854
840.33	22805
840.467	22782
840.604	22812
840.742	23140
840.879	22748
841.016	22691
841.153	22736
841.29	22908
841.427	22877
841.564	22854
841.701	22774
841.838	22809
841.975	22664
842.112	22675
842.249	22557
842.385	22607
842.522	22809
842.659	22683
842.796	22550
842.933	22630
843.069	22519
843.206	22569
843.343	22710
843.479	22535
843.616	22535
843.752	22443
843.889	22402
844.025	22577
844.162	22455
844.298	22497
844.435	22291
844.571	22493
844.708	22413
844.844	22618
844.98	22497
845.117	22550
845.253	22478
845.389	22303
845.525	22337
845.661	22295
845.798	22166
845.934	22196
846.07	22097
846.206	22147
846.342	22207
846.478	22109
846.614	21994
846.75	21838
846.886	21800
847.022	21888
847.158	21888
847.294	21918
847.429	21861
847.565	21918
847.701	22090
847.837	21523
847.972	21614
848.108	21812
848.244	21762
848.379	21428
848.515	21504
848.65	21443
848.786	21401
848.921	21500
849.057	21644
849.192	21572
849.328	21515
849.463	21507
849.598	21485
849.734	21370
849.869	21233
850.004	21268
850.14	21218
850.275	21214
850.41	21104
850.545	21199
850.68	21119
850.815	21252
850.95	21024
851.085	21268
851.22	21443
851.355	21100
851.49	21222
851.625	21157
851.76	21169
851.895	21096
852.03	21081
852.165	21241
852.299	21154
852.434	21325
852.569	21169
852.703	21203
852.838	21321
852.973	21287
853.107	21386
853.242	21272
853.376	21135
853.511	20952
853.645	20960
853.78	21161
853.914	21028
854.048	21001
854.183	21085
854.317	21001
854.451	21275
854.585	20921
854.72	21074
854.854	21055
854.988	20864
855.122	20982
855.256	20899
855.39	21058
855.524	21017
855.658	21062
855.792	20963
855.926	21039
856.06	21058
856.194	21081
856.327	21036
856.461	20914
856.595	20952
856.729	21039
856.862	21093
856.996	21039
857.13	21203
857.263	21096
857.397	21195
857.53	21024
857.664	21112
857.797	21055
857.931	21138
858.064	21001
858.197	21070
858.331	20899
858.464	21047
858.597	20883
858.731	21062
858.864	20998
858.997	21005
859.13	21100
859.263	20937
859.396	21108
859.529	20971
859.662	20960
859.795	20895
859.928	21017
860.061	21199
860.194	21260
860.327	21039
860.46	21100
860.592	21256
860.725	21108
860.858	21138
860.99	21142
861.123	20876
861.256	21127
861.388	21096
861.521	21766
861.653	20944
861.786	20754
861.918	20948
862.05	20887
862.183	20956
862.315	20956
862.447	21085
862.58	20975
862.712	20785
862.844	20777
862.976	20659
863.108	20792
863.24	21279
863.372	20701
863.504	20739
863.636	20746
863.768	20686
863.9	20678
864.032	20549
864.164	20815
864.296	20727
864.428	20807
864.559	20845
864.691	20918
864.823	20823
864.954	20720
865.086	20712
865.217	20644
865.349	20659
865.48	20648
865.612	20625
865.743	20773
865.875	20697
866.006	20735
866.137	20560
866.269	20682
866.4	20686
866.531	20689
866.662	20682
866.793	20606
866.924	20644
867.055	20629
867.186	20556
867.317	20568
867.448	20556
867.579	20530
867.71	20503
867.841	20499
867.972	20526
868.103	20545
868.233	20484
868.364	20374
868.495	20689
868.625	20826
868.756	20963
868.886	20804
869.017	20800
869.147	20861
869.278	20895
869.408	20743
869.539	20906
869.669	20944
869.799	20906
869.929	20948
870.06	20967
870.19	21180
870.32	21055
870.45	21195
870.58	21256
870.71	21306
870.84	21359
870.97	21089
871.1	21173
871.23	21405
871.36	21389
871.489	21294
871.619	21420
871.749	21355
871.879	21428
872.008	21477
872.138	21363
872.267	21363
872.397	21367
872.526	21230
872.656	21214
872.785	21355
872.915	21473
873.044	21424
873.173	21428
873.303	21466
873.432	21504
873.561	21610
873.69	21542
873.819	21405
873.948	21519
874.077	21321
874.206	21466
874.335	21420
874.464	21492
874.593	21667
874.722	21568
874.851	21641
874.979	21762
875.108	21641
875.237	21660
875.365	21538
875.494	21606
875.623	21652
875.751	21675
875.88	21652
876.008	21804
876.136	21838
876.265	22082
876.393	22234
876.521	22150
876.65	22147
876.778	22116
876.906	22010
877.034	21949
877.162	21960
877.29	21949
877.418	22010
877.546	22074
877.674	21987
877.802	21907
877.93	21975
878.058	21964
878.185	21926
878.313	21918
878.441	21941
878.568	21960
878.696	21892
878.824	22002
878.951	22025
879.079	22147
879.206	22367
879.333	22265
879.461	22109
879.588	22120
879.715	22261
879.842	22253
879.97	22097
880.097	21865
880.224	21785
880.351	21861
880.478	21895
880.605	21770
880.732	21812
880.859	22063
880.986	21797
881.112	21857
881.239	21698
881.366	21618
881.493	21477
881.619	21439
881.746	21466
881.872	21389
881.999	21291
882.125	21291
882.252	21397
882.378	21374
882.505	21561
882.631	21359
882.757	21176
882.883	21195
883.01	21157
883.136	21039
883.262	20971
883.388	20914
883.514	21009
883.64	21077
883.766	20960
883.892	20880
884.018	20963
884.143	21013
884.269	21321
884.395	20807
884.52	20819
884.646	20777
884.772	20739
884.897	20686
885.023	20758
885.148	20788
885.274	20963
885.399	20838
885.524	20739
885.65	20697
885.775	20781
885.9	20937
886.025	20876
886.15	20823
886.275	20686
886.4	20800
886.525	20739
886.65	20762
886.775	20781
886.9	20769
887.025	20914
887.149	20804
887.274	20731
887.399	20514
887.523	20602
887.648	20541
887.773	20514
887.897	20552
888.021	20571
888.146	20537
888.27	20609
888.395	20651
888.519	20564
888.643	20686
888.767	20659
888.891	20454
889.015	20248
889.139	20377
889.263	20298
889.387	20541
889.511	20461
889.635	20568
889.759	20355
889.883	20377
890.006	20351
890.13	20393
890.254	20301
890.377	20221
890.501	20145
890.624	20058
890.748	20202
890.871	20149
890.995	19906
891.118	19955
891.241	19944
891.364	19982
891.488	20119
891.611	19898
891.734	19944
891.857	20020
891.98	19845
892.103	20039
892.226	19978
892.349	19951
892.471	19715
892.594	19940
892.717	19936
892.839	19791
892.962	19947
893.085	19898
893.207	19841
893.33	19738
893.452	19803
893.575	19894
893.697	19837
893.819	19989
893.941	20096
894.064	20012
894.186	19769
894.308	19746
894.43	19944
894.552	19967
894.674	20035
894.796	19765
894.918	19693
895.04	19803
895.161	20035
895.283	19879
895.405	19894
895.526	19864
895.648	19868
895.769	19845
895.891	19967
896.012	20012
896.134	19921
896.255	19917
896.376	19780
896.498	19887
896.619	19925
896.74	19849
896.861	19951
896.982	20233
897.103	20309
897.224	20195
897.345	20111
897.466	19955
897.587	20065
897.708	20180
897.828	20142
897.949	20020
898.07	19833
898.19	20001
898.311	20081
898.431	19986
898.552	20050
898.672	20043
898.792	20077
898.913	20088
899.033	20024
899.153	19951
899.273	19731
899.393	19788
899.513	19856
899.633	19875
899.753	19769
899.873	19788
899.993	19902
900.113	19841
900.232	19700
900.352	19742
900.472	19609
900.591	19609
900.711	19681
900.83	19506
900.95	19757
901.069	19670
901.189	19422
901.308	19266
901.427	19156
901.546	19148
901.665	19263
901.784	19206
901.904	19114
902.023	18916
902.141	18806
902.26	18749
902.379	18829
902.498	18574
902.617	18604
902.735	18829
902.854	18726
902.973	18608
903.091	18460
903.21	18456
903.328	18407
903.446	18281
903.565	18239
903.683	18068
903.801	18136
903.919	18140
904.038	18152
904.156	18026
904.274	18091
904.392	17920
904.51	17870
904.627	18011
904.745	18091
904.863	17984
904.981	17771
905.098	17764
905.216	17627
905.334	17661
905.451	17558
905.569	17623
905.686	17684
905.803	17627
905.921	17353
906.038	17493
906.155	17398
906.272	17345
906.389	17326
906.506	17292
906.623	17265
906.74	17162
906.857	17079
906.974	17124
907.091	17250
907.208	17216
907.324	17162
907.441	17136
907.557	16911
907.674	16873
907.79	16790
907.907	16873
908.023	16908
908.139	16927
908.256	16793
908.372	16835
908.488	16843
908.604	16656
908.72	16607
908.836	16645
908.952	16538
909.068	16561
909.184	16828
909.3	16561
909.415	16668
909.531	16558
909.647	16352
909.762	16367
909.878	16318
909.993	16466
910.108	16306
910.224	16303
910.339	16375
910.454	16181
910.57	16071
910.685	16032
910.8	16367
910.915	16310
911.03	16040
911.145	16017
911.259	15979
911.374	15778
911.489	15800
911.604	15781
911.718	15739
911.833	15778
911.947	15614
912.062	15481
912.176	15633
912.291	15728
912.405	15686
912.519	15713
912.633	15816
912.748	15705
912.862	15686
912.976	15603
913.09	15462
913.204	15401
913.318	15454
913.431	15614
913.545	15610
913.659	15599
913.772	15496
913.886	15294
914	15348
914.113	15420
914.226	15408
914.34	15329
914.453	15165
914.566	15260
914.68	15256
914.793	15184
914.906	14899
915.019	14956
915.132	14883
915.245	14807
915.358	14918
915.47	14883
915.583	14994
915.696	14849
915.809	15024
915.921	15043
916.034	14853
916.146	14777
916.259	14800
916.371	14986
916.483	14811
916.595	14689
916.708	14712
916.82	14777
916.932	14697
917.044	14682
917.156	14663
917.268	14583
917.38	14629
917.491	14568
917.603	14640
917.715	14663
917.826	14602
917.938	14522
918.049	14431
918.161	14495
918.272	14663
918.384	14629
918.495	14571
918.606	14351
918.717	14305
918.828	14351
918.939	14343
919.05	14221
919.161	14328
919.272	14142
919.383	14199
919.494	14476
919.604	14431
919.715	14343
919.826	14187
919.936	14317
920.047	14343
920.157	14351
920.267	14495
920.378	14351
920.488	14275
920.598	14450
920.708	14613
920.818	14442
920.928	14442
921.038	14518
921.148	14484
921.258	14275
921.368	14134
921.477	14164
921.587	14008
921.697	13811
921.806	14008
921.916	13909
922.025	13738
922.134	13719
922.244	13689
922.353	13677
922.462	13525
922.571	13502
922.68	13369
922.789	13396
922.898	13232
923.007	13251
923.116	13346
923.224	13362
923.333	13278
923.442	13103
923.55	13198
923.659	13175
923.767	13179
923.876	13141
923.984	13168
924.092	13126
924.201	13057
924.309	13069
924.417	13084
924.525	13019
924.633	13057
924.741	13750
924.849	12856
924.956	12871
925.064	12890
925.172	12597
925.279	12757
925.387	12741
925.494	12707
925.602	12878
925.709	12768
925.816	12707
925.924	12741
926.031	12867
926.138	12669
926.245	12711
926.352	12650
926.459	12749
926.566	12802
926.673	12631
926.779	12547
926.886	12441
926.993	12422
927.099	12353
927.206	12372
927.312	12304
927.419	12376
927.525	12357
927.631	12399
927.737	12224
927.843	12167
927.95	12079
928.056	12114
928.162	12243
928.267	12190
928.373	12745
928.479	12228
928.585	12003
928.69	12152
928.796	12083
928.901	12038
929.007	11908
929.112	12026
929.218	11923
929.323	11977
929.428	11863
929.533	11935
929.638	11775
929.743	11798
929.848	11904
929.953	11805
930.058	11783
930.163	11532
930.267	11604
930.372	11737
930.477	11539
930.581	11756
930.685	11684
930.79	11429
930.894	11501
930.998	11463
931.103	11547
931.207	11242
931.311	11162
931.415	11079
931.519	10889
931.623	10858
