Data from test_V78500241_3387.txt Node
Date: Fri Mar 25 15:33:26 CST 2022
User: usil
Spectrometer: V785-0024
Trigger mode: 0
Integration Time (sec): 4.000000E-1
Scans to average: 1
Nonlinearity correction enabled: false
Boxcar width: 0
Storing dark spectrum: false
XAxis mode: Wavelengths
Number of Pixels in Spectrum: 1024
>>>>>Begin Spectral Data<<<<<
801.071	27173
801.214	27226
801.356	27032
801.499	26887
801.641	26785
801.783	26697
801.926	26769
802.068	26796
802.211	26701
802.353	26609
802.496	26648
802.638	26499
802.78	26419
802.923	26301
803.065	26161
803.208	26324
803.35	26408
803.492	26560
803.635	26701
803.777	26488
803.919	26583
804.061	26940
804.204	26648
804.346	26568
804.488	26533
804.63	26587
804.773	26522
804.915	26423
805.057	26689
805.199	26495
805.341	26579
805.483	26644
805.626	26731
805.768	26594
805.91	26807
806.052	26773
806.194	26526
806.336	26830
806.478	26701
806.62	26693
806.762	26796
806.904	26971
807.046	27226
807.188	27180
807.33	27116
807.472	27131
807.614	27051
807.756	26948
807.898	26960
808.04	26910
808.182	26880
808.324	26956
808.465	26975
808.607	27093
808.749	27370
808.891	27408
809.033	27473
809.174	27405
809.316	27386
809.458	27283
809.6	27275
809.741	27275
809.883	27287
810.025	27507
810.166	27466
810.308	27542
810.45	27473
810.591	27424
810.733	27150
810.875	27302
811.016	27070
811.158	27066
811.299	27306
811.441	27401
811.582	27370
811.724	27203
811.865	27275
812.007	27188
812.148	27123
812.29	27279
812.431	27443
812.573	27576
812.714	27629
812.855	27755
812.997	27812
813.138	27888
813.279	27941
813.421	27618
813.562	27759
813.703	27720
813.845	27370
813.986	27070
814.127	26933
814.268	26899
814.41	26918
814.551	27017
814.692	27032
814.833	26781
814.974	26883
815.115	26925
815.256	26842
815.397	26838
815.539	26891
815.68	26625
815.821	26625
815.962	26739
816.103	26705
816.244	26484
816.385	26400
816.526	26381
816.666	26267
816.807	26199
816.948	26214
817.089	26237
817.23	26157
817.371	26130
817.512	26092
817.653	26119
817.793	26183
817.934	26134
818.075	26202
818.216	26168
818.356	26096
818.497	25982
818.638	25788
818.778	25970
818.919	25776
819.06	25959
819.2	26084
819.341	26218
819.481	26206
819.622	26294
819.762	26492
819.903	26324
820.043	26206
820.184	26199
820.324	26275
820.465	26305
820.605	26225
820.746	26328
820.886	26088
821.026	26202
821.167	26305
821.307	26271
821.447	26092
821.588	26020
821.728	25917
821.868	25814
822.008	25704
822.149	25628
822.289	25476
822.429	25384
822.569	25343
822.709	25324
822.849	25175
822.99	25183
823.13	25103
823.27	25187
823.41	24924
823.55	25012
823.69	24897
823.83	24894
823.97	24943
824.11	24730
824.25	24814
824.389	24658
824.529	24696
824.669	24734
824.809	24738
824.949	24856
825.089	24867
825.228	24768
825.368	24555
825.508	24597
825.648	24589
825.787	24642
825.927	24627
826.067	24639
826.206	24715
826.346	24673
826.485	24669
826.625	24681
826.765	24814
826.904	24681
827.044	24494
827.183	24448
827.323	24273
827.462	24452
827.601	24350
827.741	24224
827.88	24220
828.02	24232
828.159	24296
828.298	24452
828.437	24361
828.577	24376
828.716	24429
828.855	24270
828.994	24247
829.134	24095
829.273	24087
829.412	24034
829.551	23984
829.69	24068
829.829	24106
829.968	24072
830.107	24098
830.246	24106
830.385	24022
830.524	23946
830.663	23939
830.802	23840
830.941	23657
831.08	23627
831.219	23676
831.357	23863
831.496	23927
831.635	23695
831.774	23657
831.913	23566
832.051	23322
832.19	23509
832.329	23566
832.467	23360
832.606	23345
832.744	23452
832.883	23383
833.022	23265
833.16	23349
833.299	23452
833.437	23448
833.576	23376
833.714	23661
833.852	23611
833.991	23490
834.129	23619
834.267	23512
834.406	23337
834.544	23516
834.682	23452
834.821	23360
834.959	23558
835.097	23482
835.235	23512
835.373	23547
835.511	23379
835.65	23318
835.788	23311
835.926	23155
836.064	23075
836.202	23132
836.34	23231
836.478	23410
836.615	23223
836.753	23288
836.891	23356
837.029	23250
837.167	23246
837.305	23227
837.443	23193
837.58	23159
837.718	23216
837.856	23178
837.993	23071
838.131	23044
838.269	23033
838.406	22949
838.544	22949
838.681	22759
838.819	22782
838.956	22573
839.094	22679
839.231	22736
839.369	22683
839.506	22980
839.643	22816
839.781	22603
839.918	22508
840.055	22618
840.193	22596
840.33	22588
840.467	22523
840.604	22588
840.742	22847
840.879	22481
841.016	22493
841.153	22287
841.29	22634
841.427	22523
841.564	22504
841.701	22542
841.838	22447
841.975	22398
842.112	22500
842.249	22409
842.385	22322
842.522	22512
842.659	22314
842.796	22428
842.933	22303
843.069	22318
843.206	22299
843.343	22402
843.479	22360
843.616	22341
843.752	22124
843.889	22150
844.025	22295
844.162	22029
844.298	22147
844.435	22109
844.571	22048
844.708	22036
844.844	22306
844.98	22356
845.117	22128
845.253	22017
845.389	21865
845.525	21960
845.661	21953
845.798	21812
845.934	21911
846.07	21808
846.206	21759
846.342	21861
846.478	21838
846.614	21625
846.75	21477
846.886	21534
847.022	21606
847.158	21542
847.294	21488
847.429	21644
847.565	21545
847.701	21755
847.837	21325
847.972	21340
848.108	21382
848.244	21325
848.379	21161
848.515	21207
848.65	21085
848.786	21211
848.921	21074
849.057	21264
849.192	21207
849.328	21104
849.463	21146
849.598	20960
849.734	20960
849.869	20990
850.004	20880
850.14	20990
850.275	20910
850.41	20876
850.545	20944
850.68	20811
850.815	20857
850.95	20971
851.085	21116
851.22	20994
851.355	20921
851.49	20883
851.625	20804
851.76	20902
851.895	20849
852.03	20842
852.165	21017
852.299	20979
852.434	20918
852.569	20998
852.703	20910
852.838	20921
852.973	20937
853.107	20994
853.242	20731
853.376	20819
853.511	20609
853.645	20678
853.78	20944
853.914	20796
854.048	20674
854.183	20765
854.317	20785
854.451	20929
854.585	20724
854.72	20708
854.854	20838
854.988	20731
855.122	20762
855.256	20594
855.39	20720
855.524	20785
855.658	20796
855.792	20663
855.926	20754
856.06	20765
856.194	20861
856.327	20720
856.461	20629
856.595	20655
856.729	20693
856.862	20804
856.996	20705
857.13	20838
857.263	20830
857.397	20849
857.53	20773
857.664	20777
857.797	20826
857.931	20975
858.064	20804
858.197	20921
858.331	20754
858.464	20655
858.597	20651
858.731	20842
858.864	20777
858.997	20651
859.13	20705
859.263	20739
859.396	20792
859.529	20632
859.662	20667
859.795	20693
859.928	20842
860.061	20944
860.194	20864
860.327	20674
860.46	20743
860.592	20891
860.725	20941
860.858	20868
860.99	20705
861.123	20739
861.256	20682
861.388	20777
861.521	21412
861.653	20655
861.786	20530
861.918	20701
862.05	20613
862.183	20743
862.315	20640
862.447	20731
862.58	20590
862.712	20419
862.844	20480
862.976	20541
863.108	20457
863.24	20864
863.372	20336
863.504	20431
863.636	20480
863.768	20488
863.9	20473
864.032	20347
864.164	20434
864.296	20511
864.428	20579
864.559	20473
864.691	20609
864.823	20526
864.954	20396
865.086	20362
865.217	20339
865.349	20263
865.48	20347
865.612	20396
865.743	20389
865.875	20362
866.006	20301
866.137	20389
866.269	20259
866.4	20229
866.531	20400
866.662	20229
866.793	20298
866.924	20210
867.055	20343
867.186	20362
867.317	20202
867.448	20214
867.579	20324
867.71	20240
867.841	20195
867.972	20278
868.103	20298
868.233	20214
868.364	20252
868.495	20438
868.625	20518
868.756	20640
868.886	20480
869.017	20693
869.147	20590
869.278	20629
869.408	20541
869.539	20552
869.669	20667
869.799	20617
869.929	20629
870.06	20648
870.19	20686
870.32	20880
870.45	20910
870.58	20838
870.71	21020
870.84	21024
870.97	20963
871.1	20944
871.23	21043
871.36	21127
871.489	21093
871.619	21051
871.749	21135
871.879	21252
872.008	21233
872.138	21226
872.267	21157
872.397	20948
872.526	21085
872.656	21047
872.785	20986
872.915	21142
873.044	21096
873.173	21123
873.303	21260
873.432	21157
873.561	21161
873.69	21230
873.819	21294
873.948	21325
874.077	21195
874.206	21074
874.335	21180
874.464	21370
874.593	21386
874.722	21367
874.851	21443
874.979	21488
875.108	21534
875.237	21332
875.365	21272
875.494	21363
875.623	21637
875.751	21416
875.88	21561
876.008	21751
876.136	21682
876.265	21842
876.393	21907
876.521	21861
876.65	21892
876.778	21873
876.906	21797
877.034	21732
877.162	21770
877.29	21705
877.418	21755
877.546	21850
877.674	21724
877.802	21762
877.93	21827
878.058	21778
878.185	21580
878.313	21633
878.441	21759
878.568	21667
878.696	21823
878.824	21762
878.951	21819
879.079	21953
879.206	22162
879.333	21979
879.461	21915
879.588	21888
879.715	21922
879.842	22021
879.97	21793
880.097	21443
880.224	21553
880.351	21690
880.478	21625
880.605	21572
880.732	21641
880.859	21880
880.986	21709
881.112	21705
881.239	21450
881.366	21359
881.493	21287
881.619	21127
881.746	21313
881.872	21165
881.999	21173
882.125	21154
882.252	21222
882.378	21195
882.505	21264
882.631	20990
882.757	20937
882.883	21043
883.01	20982
883.136	20952
883.262	20735
883.388	20712
883.514	20807
883.64	20826
883.766	20819
883.892	20632
884.018	20579
884.143	20804
884.269	20868
884.395	20697
884.52	20514
884.646	20663
884.772	20446
884.897	20446
885.023	20503
885.148	20674
885.274	20724
885.399	20640
885.524	20476
885.65	20503
885.775	20556
885.9	20560
886.025	20727
886.15	20712
886.275	20488
886.4	20461
886.525	20427
886.65	20339
886.775	20271
886.9	20632
887.025	20659
887.149	20518
887.274	20377
887.399	20225
887.523	20404
887.648	20290
887.773	20103
887.897	20473
888.021	20343
888.146	20233
888.27	20377
888.395	20503
888.519	20339
888.643	20278
888.767	20328
888.891	20172
889.015	19986
889.139	20195
889.263	20077
889.387	20168
889.511	20324
889.635	20343
889.759	20134
889.883	20062
890.006	20081
890.13	20100
890.254	20107
890.377	20058
890.501	19913
890.624	19814
890.748	19913
890.871	19727
890.995	19681
891.118	19529
891.241	19677
891.364	19704
891.488	19791
891.611	19727
891.734	19731
891.857	19696
891.98	19681
892.103	19689
892.226	19822
892.349	19700
892.471	19533
892.594	19609
892.717	19616
892.839	19605
892.962	19540
893.085	19753
893.207	19563
893.33	19495
893.452	19510
893.575	19746
893.697	19677
893.819	19693
893.941	19761
894.064	19791
894.186	19415
894.308	19578
894.43	19635
894.552	19727
894.674	19620
894.796	19651
894.918	19533
895.04	19514
895.161	19742
895.283	19537
895.405	19605
895.526	19613
895.648	19518
895.769	19605
895.891	19647
896.012	19658
896.134	19586
896.255	19666
896.376	19582
896.498	19502
896.619	19563
896.74	19613
896.861	19662
896.982	19883
897.103	20077
897.224	19856
897.345	19913
897.466	19913
897.587	19875
897.708	19955
897.828	19940
897.949	19803
898.07	19689
898.19	19841
898.311	19909
898.431	19761
898.552	19833
898.672	19974
898.792	19913
898.913	19921
899.033	19746
899.153	19727
899.273	19480
899.393	19616
899.513	19696
899.633	19597
899.753	19708
899.873	19518
899.993	19601
900.113	19426
900.232	19422
900.352	19400
900.472	19419
900.591	19274
900.711	19419
900.83	19274
900.95	19388
901.069	19362
901.189	19190
901.308	19122
901.427	18924
901.546	19015
901.665	18985
901.784	18970
901.904	18897
902.023	18764
902.141	18604
902.26	18578
902.379	18563
902.498	18490
902.617	18517
902.735	18452
902.854	18422
902.973	18422
903.091	18201
903.21	18144
903.328	18098
903.446	18091
903.565	18026
903.683	17950
903.801	17809
903.919	17954
904.038	17893
904.156	17657
904.274	17771
904.392	17737
904.51	17653
904.627	17714
904.745	17779
904.863	17684
904.981	17695
905.098	17425
905.216	17501
905.334	17448
905.451	17372
905.569	17315
905.686	17379
905.803	17410
905.921	17280
906.038	17360
906.155	17235
906.272	17086
906.389	17132
906.506	16953
906.623	17033
906.74	16885
906.857	16854
906.974	16965
907.091	16953
907.208	17025
907.324	17041
907.441	16930
907.557	16694
907.674	16645
907.79	16656
907.907	16611
908.023	16710
908.139	16713
908.256	16565
908.372	16569
908.488	16535
908.604	16440
908.72	16363
908.836	16455
908.952	16390
909.068	16474
909.184	16405
909.3	16367
909.415	16470
909.531	16322
909.647	16116
909.762	16120
909.878	16093
909.993	16059
910.108	16093
910.224	16051
910.339	16078
910.454	15934
910.57	15915
910.685	15793
910.8	16109
910.915	16021
911.03	15857
911.145	15732
911.259	15759
911.374	15694
911.489	15576
911.604	15587
911.718	15397
911.833	15435
911.947	15363
912.062	15355
912.176	15584
912.291	15504
912.405	15412
912.519	15618
912.633	15648
912.748	15492
912.862	15332
912.976	15279
913.09	15222
913.204	15272
913.318	15294
913.431	15370
913.545	15291
913.659	15428
913.772	15275
913.886	15142
914	15062
914.113	15142
914.226	15264
914.34	15169
914.453	14925
914.566	15203
914.68	14914
914.793	14929
914.906	14834
915.019	14762
915.132	14701
915.245	14678
915.358	14735
915.47	14693
915.583	14659
915.696	14754
915.809	14788
915.921	14807
916.034	14636
916.146	14613
916.259	14606
916.371	14686
916.483	14659
916.595	14575
916.708	14552
916.82	14552
916.932	14545
917.044	14476
917.156	14434
917.268	14328
917.38	14347
917.491	14336
917.603	14461
917.715	14423
917.826	14431
917.938	14301
918.049	14252
918.161	14374
918.272	14503
918.384	14495
918.495	14286
918.606	14149
918.717	14069
918.828	14271
918.939	14065
919.05	14065
919.161	14077
919.272	13925
919.383	14058
919.494	14153
919.604	14290
919.715	14115
919.826	14092
919.936	14172
920.047	14157
920.157	14069
920.267	14351
920.378	14062
920.488	14069
920.598	14225
920.708	14412
920.818	14244
920.928	14172
921.038	14389
921.148	14286
921.258	14111
921.368	14016
921.477	13902
921.587	13883
921.697	13750
921.806	13864
921.916	13693
922.025	13559
922.134	13487
922.244	13457
922.353	13476
922.462	13476
922.571	13304
922.68	13213
922.789	13133
922.898	13137
923.007	13069
923.116	13164
923.224	13179
923.333	12993
923.442	13004
923.55	13019
923.659	13095
923.767	13050
923.876	12973
923.984	12943
924.092	12833
924.201	12844
924.309	12935
924.417	12821
924.525	12802
924.633	12875
924.741	13849
924.849	12612
924.956	12707
925.064	12639
925.172	12536
925.279	12502
925.387	12536
925.494	12521
925.602	12692
925.709	12696
925.816	12513
925.924	12536
926.031	12555
926.138	12544
926.245	12612
926.352	12429
926.459	12650
926.566	12502
926.673	12395
926.779	12361
926.886	12338
926.993	12228
927.099	12167
927.206	12087
927.312	12129
927.419	12163
927.525	12201
927.631	12197
927.737	12102
927.843	12087
927.95	11912
928.056	11973
928.162	12045
928.267	12087
928.373	12635
928.479	12030
928.585	11802
928.69	11923
928.796	12064
928.901	11885
929.007	11707
929.112	11927
929.218	11802
929.323	11748
929.428	11718
929.533	11874
929.638	11760
929.743	11668
929.848	11722
929.953	11627
930.058	11528
930.163	11417
930.267	11341
930.372	11577
930.477	11379
930.581	11592
930.685	11478
930.79	11341
930.894	11341
930.998	11345
931.103	11433
931.207	11014
931.311	10995
931.415	10923
931.519	10725
931.623	10687
