Data from test_V78500241_2491.txt Node
Date: Fri Mar 25 15:27:12 CST 2022
User: usil
Spectrometer: V785-0024
Trigger mode: 0
Integration Time (sec): 4.000000E-1
Scans to average: 1
Nonlinearity correction enabled: false
Boxcar width: 0
Storing dark spectrum: false
XAxis mode: Wavelengths
Number of Pixels in Spectrum: 1024
>>>>>Begin Spectral Data<<<<<
801.071	27291
801.214	27070
801.356	26971
801.499	26929
801.641	26708
801.783	26693
801.926	26815
802.068	26769
802.211	26724
802.353	26503
802.496	26355
802.638	26233
802.78	26336
802.923	26374
803.065	26149
803.208	26263
803.35	26267
803.492	26511
803.635	26537
803.777	26484
803.919	26473
804.061	26754
804.204	26636
804.346	26484
804.488	26336
804.63	26518
804.773	26412
804.915	26480
805.057	26518
805.199	26473
805.341	26362
805.483	26686
805.626	26686
805.768	26377
805.91	26522
806.052	26571
806.194	26522
806.336	26899
806.478	26473
806.62	26609
806.762	26689
806.904	26758
807.046	26975
807.188	27058
807.33	27047
807.472	27169
807.614	26960
807.756	26940
807.898	26788
808.04	26731
808.182	26765
808.324	26849
808.465	26868
808.607	27119
808.749	27142
808.891	27199
809.033	27500
809.174	27279
809.316	27070
809.458	27241
809.6	27165
809.741	27336
809.883	27382
810.025	27553
810.166	27431
810.308	27435
810.45	27256
810.591	27424
810.733	27157
810.875	27233
811.016	27176
811.158	27161
811.299	27317
811.441	27374
811.582	27408
811.724	27230
811.865	27195
812.007	27070
812.148	27184
812.29	27226
812.431	27378
812.573	27370
812.714	27523
812.855	27682
812.997	27720
813.138	27819
813.279	27793
813.421	27675
813.562	27652
813.703	27393
813.845	27249
813.986	27100
814.127	27070
814.268	26678
814.41	26838
814.551	26765
814.692	26815
814.833	26804
814.974	26765
815.115	26845
815.256	26712
815.397	26762
815.539	26648
815.68	26583
815.821	26488
815.962	26613
816.103	26621
816.244	26374
816.385	26400
816.526	26427
816.666	26301
816.807	26043
816.948	26062
817.089	26214
817.23	26187
817.371	26069
817.512	26164
817.653	26073
817.793	25993
817.934	26054
818.075	26157
818.216	26145
818.356	26138
818.497	25909
818.638	25651
818.778	25666
818.919	25727
819.06	25963
819.2	26050
819.341	25986
819.481	26073
819.622	26180
819.762	26374
819.903	26317
820.043	26199
820.184	26282
820.324	26164
820.465	26149
820.605	26168
820.746	26069
820.886	26016
821.026	26153
821.167	25997
821.307	26122
821.447	26191
821.588	26103
821.728	25780
821.868	25742
822.008	25658
822.149	25578
822.289	25537
822.429	25308
822.569	25282
822.709	25232
822.849	25244
822.99	25156
823.13	24985
823.27	25000
823.41	24875
823.55	24791
823.69	24859
823.83	24920
823.97	24760
824.11	24738
824.25	24715
824.389	24745
824.529	24783
824.669	24772
824.809	24783
824.949	24787
825.089	24791
825.228	24715
825.368	24498
825.508	24395
825.648	24460
825.787	24574
825.927	24635
826.067	24578
826.206	24597
826.346	24684
826.485	24525
826.625	24509
826.765	24597
826.904	24616
827.044	24338
827.183	24296
827.323	24277
827.462	24384
827.601	24429
827.741	24205
827.88	24319
828.02	24201
828.159	24254
828.298	24296
828.437	24376
828.577	24117
828.716	24292
828.855	24136
828.994	24049
829.134	23935
829.273	24007
829.412	24057
829.551	23977
829.69	24083
829.829	24038
829.968	23999
830.107	23992
830.246	23809
830.385	24026
830.524	23836
830.663	23893
830.802	23722
830.941	23478
831.08	23642
831.219	23695
831.357	23653
831.496	23882
831.635	23554
831.774	23448
831.913	23566
832.051	23360
832.19	23501
832.329	23376
832.467	23341
832.606	23303
832.744	23204
832.883	23258
833.022	23292
833.16	23341
833.299	23349
833.437	23277
833.576	23414
833.714	23349
833.852	23414
833.991	23402
834.129	23330
834.267	23383
834.406	23261
834.544	23406
834.682	23364
834.821	23406
834.959	23467
835.097	23379
835.235	23200
835.373	23303
835.511	23379
835.65	23197
835.788	23273
835.926	23037
836.064	22961
836.202	23033
836.34	23204
836.478	23216
836.615	23105
836.753	23200
836.891	23273
837.029	23181
837.167	23124
837.305	23143
837.443	23060
837.58	23018
837.718	23052
837.856	23113
837.993	22942
838.131	23037
838.269	22930
838.406	22987
838.544	22896
838.681	22691
838.819	22698
838.956	22512
839.094	22497
839.231	22516
839.369	22683
839.506	22984
839.643	22733
839.781	22428
839.918	22455
840.055	22424
840.193	22402
840.33	22451
840.467	22371
840.604	22588
840.742	22862
840.879	22440
841.016	22367
841.153	22363
841.29	22489
841.427	22508
841.564	22436
841.701	22455
841.838	22421
841.975	22428
842.112	22493
842.249	22375
842.385	22443
842.522	22428
842.659	22402
842.796	22242
842.933	22329
843.069	22139
843.206	22078
843.343	22253
843.479	22211
843.616	22246
843.752	22135
843.889	21987
844.025	22017
844.162	21861
844.298	22109
844.435	21873
844.571	21907
844.708	22010
844.844	22112
844.98	22105
845.117	22112
845.253	21968
845.389	21873
845.525	21975
845.661	21869
845.798	21728
845.934	21861
846.07	21720
846.206	21720
846.342	21739
846.478	21641
846.614	21526
846.75	21458
846.886	21469
847.022	21690
847.158	21538
847.294	21580
847.429	21599
847.565	21424
847.701	21774
847.837	21279
847.972	21176
848.108	21393
848.244	21138
848.379	21074
848.515	21017
848.65	21001
848.786	21123
848.921	21077
849.057	21043
849.192	21226
849.328	21055
849.463	20948
849.598	21009
849.734	20918
849.869	20914
850.004	20796
850.14	20883
850.275	20826
850.41	20800
850.545	20895
850.68	20842
850.815	20906
850.95	20724
851.085	20925
851.22	20872
851.355	20838
851.49	20777
851.625	20781
851.76	20750
851.895	20773
852.03	20880
852.165	20826
852.299	20910
852.434	20910
852.569	20743
852.703	20781
852.838	20834
852.973	21020
853.107	20925
853.242	20754
853.376	20674
853.511	20571
853.645	20682
853.78	20765
853.914	20598
854.048	20511
854.183	20587
854.317	20777
854.451	20739
854.585	20613
854.72	20716
854.854	20693
854.988	20602
855.122	20731
855.256	20499
855.39	20625
855.524	20693
855.658	20678
855.792	20682
855.926	20705
856.06	20663
856.194	20845
856.327	20625
856.461	20526
856.595	20609
856.729	20670
856.862	20743
856.996	20587
857.13	20739
857.263	20735
857.397	20743
857.53	20781
857.664	20693
857.797	20758
857.931	20648
858.064	20621
858.197	20697
858.331	20686
858.464	20651
858.597	20526
858.731	20693
858.864	20598
858.997	20571
859.13	20678
859.263	20667
859.396	20708
859.529	20560
859.662	20644
859.795	20617
859.928	20670
860.061	20819
860.194	20796
860.327	20697
860.46	20769
860.592	20655
860.725	20785
860.858	20811
860.99	20613
861.123	20556
861.256	20632
861.388	20762
861.521	21332
861.653	20461
861.786	20511
861.918	20454
862.05	20537
862.183	20579
862.315	20571
862.447	20693
862.58	20590
862.712	20343
862.844	20263
862.976	20461
863.108	20415
863.24	20765
863.372	20336
863.504	20347
863.636	20267
863.768	20393
863.9	20389
864.032	20301
864.164	20290
864.296	20320
864.428	20492
864.559	20480
864.691	20495
864.823	20427
864.954	20332
865.086	20434
865.217	20298
865.349	20180
865.48	20305
865.612	20271
865.743	20465
865.875	20317
866.006	20377
866.137	20282
866.269	20199
866.4	20218
866.531	20324
866.662	20233
866.793	20187
866.924	20183
867.055	20278
867.186	20298
867.317	20298
867.448	20119
867.579	20134
867.71	20088
867.841	20214
867.972	20237
868.103	20229
868.233	20107
868.364	20282
868.495	20351
868.625	20366
868.756	20587
868.886	20374
869.017	20415
869.147	20518
869.278	20560
869.408	20579
869.539	20374
869.669	20454
869.799	20488
869.929	20594
870.06	20526
870.19	20823
870.32	20720
870.45	20823
870.58	20834
870.71	20933
870.84	20815
870.97	20880
871.1	20902
871.23	20948
871.36	20967
871.489	20967
871.619	21020
871.749	21032
871.879	20990
872.008	21028
872.138	21062
872.267	21108
872.397	20998
872.526	20876
872.656	20792
872.785	20918
872.915	21112
873.044	21081
873.173	21184
873.303	20994
873.432	21119
873.561	21176
873.69	21066
873.819	20937
873.948	21211
874.077	21093
874.206	21036
874.335	21066
874.464	21226
874.593	21264
874.722	21386
874.851	21313
874.979	21256
875.108	21249
875.237	21260
875.365	21211
875.494	21298
875.623	21260
875.751	21511
875.88	21408
876.008	21477
876.136	21576
876.265	21823
876.393	21850
876.521	21838
876.65	21766
876.778	21770
876.906	21701
877.034	21641
877.162	21720
877.29	21599
877.418	21644
877.546	21713
877.674	21709
877.802	21675
877.93	21709
878.058	21667
878.185	21614
878.313	21629
878.441	21595
878.568	21492
878.696	21591
878.824	21736
878.951	21622
879.079	21854
879.206	21983
879.333	21785
879.461	21804
879.588	21751
879.715	21854
879.842	21979
879.97	21709
880.097	21557
880.224	21549
880.351	21473
880.478	21458
880.605	21431
880.732	21523
880.859	21846
880.986	21454
881.112	21587
881.239	21401
881.366	21367
881.493	21127
881.619	21013
881.746	21074
881.872	21214
881.999	21093
882.125	20971
882.252	21157
882.378	21176
882.505	21028
882.631	21093
882.757	20807
882.883	20899
883.01	20800
883.136	20640
883.262	20583
883.388	20663
883.514	20895
883.64	20853
883.766	20746
883.892	20686
884.018	20640
884.143	20845
884.269	20883
884.395	20495
884.52	20427
884.646	20450
884.772	20404
884.897	20339
885.023	20465
885.148	20530
885.274	20560
885.399	20507
885.524	20533
885.65	20480
885.775	20568
885.9	20393
886.025	20526
886.15	20670
886.275	20377
886.4	20339
886.525	20404
886.65	20396
886.775	20423
886.9	20476
887.025	20682
887.149	20461
887.274	20317
887.399	20240
887.523	20195
887.648	20126
887.773	20096
887.897	20317
888.021	20290
888.146	20172
888.27	20305
888.395	20294
888.519	20214
888.643	20229
888.767	20332
888.891	20176
889.015	20054
889.139	20043
889.263	20103
889.387	20157
889.511	20275
889.635	20084
889.759	19970
889.883	20138
890.006	20005
890.13	20027
890.254	20005
890.377	19967
890.501	19780
890.624	19704
890.748	19833
890.871	19738
890.995	19628
891.118	19601
891.241	19632
891.364	19613
891.488	19700
891.611	19613
891.734	19586
891.857	19658
891.98	19674
892.103	19723
892.226	19499
892.349	19635
892.471	19392
892.594	19537
892.717	19537
892.839	19544
892.962	19529
893.085	19521
893.207	19540
893.33	19449
893.452	19457
893.575	19601
893.697	19491
893.819	19712
893.941	19696
894.064	19674
894.186	19457
894.308	19438
894.43	19499
894.552	19723
894.674	19491
894.796	19438
894.918	19510
895.04	19415
895.161	19594
895.283	19594
895.405	19495
895.526	19651
895.648	19396
895.769	19674
895.891	19472
896.012	19578
896.134	19647
896.255	19502
896.376	19521
896.498	19559
896.619	19567
896.74	19514
896.861	19624
896.982	19746
897.103	20008
897.224	19947
897.345	19860
897.466	19639
897.587	19704
897.708	19879
897.828	19791
897.949	19628
898.07	19578
898.19	19765
898.311	19788
898.431	19803
898.552	19734
898.672	19837
898.792	19856
898.913	19696
899.033	19643
899.153	19567
899.273	19460
899.393	19514
899.513	19548
899.633	19597
899.753	19563
899.873	19460
899.993	19548
900.113	19468
900.232	19510
900.352	19381
900.472	19350
900.591	19244
900.711	19388
900.83	19156
900.95	19358
901.069	19331
901.189	19228
901.308	19012
901.427	18882
901.546	18863
901.665	18882
901.784	18863
901.904	18913
902.023	18779
902.141	18414
902.26	18452
902.379	18513
902.498	18407
902.617	18357
902.735	18460
902.854	18410
902.973	18308
903.091	18155
903.21	18049
903.328	18076
903.446	18038
903.565	17977
903.683	17939
903.801	17752
903.919	17882
904.038	17695
904.156	17691
904.274	17699
904.392	17649
904.51	17718
904.627	17562
904.745	17577
904.863	17805
904.981	17524
905.098	17345
905.216	17414
905.334	17417
905.451	17379
905.569	17288
905.686	17383
905.803	17296
905.921	17113
906.038	17269
906.155	17231
906.272	16942
906.389	17014
906.506	16782
906.623	16873
906.74	16877
906.857	16702
906.974	16752
907.091	17003
907.208	17056
907.324	16892
907.441	16710
907.557	16702
907.674	16580
907.79	16615
907.907	16504
908.023	16733
908.139	16626
908.256	16611
908.372	16478
908.488	16459
908.604	16363
908.72	16223
908.836	16284
908.952	16432
909.068	16322
909.184	16344
909.3	16246
909.415	16413
909.531	16352
909.647	16013
909.762	16093
909.878	16036
909.993	15945
910.108	15968
910.224	15991
910.339	16074
910.454	15838
910.57	15819
910.685	15857
910.8	16063
910.915	15857
911.03	15793
911.145	15755
911.259	15717
911.374	15644
911.489	15576
911.604	15542
911.718	15359
911.833	15416
911.947	15405
912.062	15386
912.176	15553
912.291	15561
912.405	15526
912.519	15667
912.633	15766
912.748	15454
912.862	15363
912.976	15165
913.09	15123
913.204	15211
913.318	15230
913.431	15317
913.545	15245
913.659	15298
913.772	15203
913.886	15077
914	14937
914.113	15180
914.226	15142
914.34	15119
914.453	14864
914.566	14994
914.68	15009
914.793	14895
914.906	14788
915.019	14655
915.132	14613
915.245	14655
915.358	14610
915.47	14693
915.583	14670
915.696	14629
915.809	14785
915.921	14739
916.034	14678
916.146	14594
916.259	14511
916.371	14598
916.483	14461
916.595	14465
916.708	14495
916.82	14446
916.932	14571
917.044	14366
917.156	14434
917.268	14294
917.38	14305
917.491	14244
917.603	14423
917.715	14377
917.826	14484
917.938	14263
918.049	14073
918.161	14275
918.272	14396
918.384	14412
918.495	14309
918.606	14092
918.717	14077
918.828	14145
918.939	14157
919.05	14065
919.161	14039
919.272	13807
919.383	13978
919.494	14084
919.604	14172
919.715	14020
919.826	13944
919.936	14005
920.047	14107
920.157	14081
920.267	14244
920.378	14077
920.488	14069
920.598	14176
920.708	14298
920.818	14248
920.928	14164
921.038	14328
921.148	14389
921.258	14043
921.368	13944
921.477	13753
921.587	13780
921.697	13715
921.806	13776
921.916	13594
922.025	13567
922.134	13472
922.244	13445
922.353	13438
922.462	13316
922.571	13285
922.68	13027
922.789	13137
922.898	13065
923.007	13095
923.116	13088
923.224	13088
923.333	13126
923.442	13000
923.55	12920
923.659	12993
923.767	13019
923.876	12875
923.984	13008
924.092	12772
924.201	12829
924.309	12829
924.417	12852
924.525	12890
924.633	12810
924.741	13723
924.849	12570
924.956	12715
925.064	12544
925.172	12513
925.279	12555
925.387	12662
925.494	12513
925.602	12654
925.709	12566
925.816	12448
925.924	12483
926.031	12559
926.138	12494
926.245	12509
926.352	12376
926.459	12475
926.566	12665
926.673	12350
926.779	12266
926.886	12285
926.993	12064
927.099	12083
927.206	12072
927.312	12015
927.419	12133
927.525	12098
927.631	12144
927.737	12022
927.843	11961
927.95	11904
928.056	11954
928.162	11977
928.267	11961
928.373	12563
928.479	11992
928.585	11779
928.69	11870
928.796	11935
928.901	11832
929.007	11615
929.112	11672
929.218	11863
929.323	11646
929.428	11680
929.533	11786
929.638	11596
929.743	11699
929.848	11627
929.953	11642
930.058	11535
930.163	11398
930.267	11391
930.372	11547
930.477	11318
930.581	11558
930.685	11471
930.79	11246
930.894	11250
930.998	11178
931.103	11395
931.207	10995
931.311	11048
931.415	10801
931.519	10702
931.623	10637
