Data from test_V78500241_315.txt Node
Date: Fri Mar 25 15:12:03 CST 2022
User: usil
Spectrometer: V785-0024
Trigger mode: 0
Integration Time (sec): 4.000000E-1
Scans to average: 1
Nonlinearity correction enabled: false
Boxcar width: 0
Storing dark spectrum: false
XAxis mode: Wavelengths
Number of Pixels in Spectrum: 1024
>>>>>Begin Spectral Data<<<<<
801.071	27857
801.214	27823
801.356	27675
801.499	27709
801.641	27526
801.783	27507
801.926	27717
802.068	27424
802.211	27492
802.353	27382
802.496	27245
802.638	27146
802.78	27252
802.923	27036
803.065	27020
803.208	27081
803.35	27047
803.492	27427
803.635	27458
803.777	27074
803.919	27287
804.061	27568
804.204	27420
804.346	27241
804.488	27233
804.63	27332
804.773	27176
804.915	27245
805.057	27424
805.199	27218
805.341	27481
805.483	27519
805.626	27401
805.768	27199
805.91	27351
806.052	27408
806.194	27275
806.336	27416
806.478	27359
806.62	27329
806.762	27485
806.904	27682
807.046	27907
807.188	27682
807.33	27781
807.472	27960
807.614	27603
807.756	27652
807.898	27667
808.04	27622
808.182	27633
808.324	27564
808.465	27652
808.607	27800
808.749	27926
808.891	28086
809.033	28234
809.174	28169
809.316	27876
809.458	28021
809.6	27831
809.741	28044
809.883	28025
810.025	28314
810.166	28329
810.308	28120
810.45	28078
810.591	28120
810.733	27991
810.875	28051
811.016	27819
811.158	27892
811.299	28040
811.441	28196
811.582	28044
811.724	27964
811.865	27987
812.007	28006
812.148	27983
812.29	27918
812.431	28101
812.573	28211
812.714	28504
812.855	28588
812.997	28542
813.138	28717
813.279	28694
813.421	28500
813.562	28504
813.703	28299
813.845	28036
813.986	27861
814.127	27739
814.268	27477
814.41	27625
814.551	27633
814.692	27606
814.833	27549
814.974	27424
815.115	27534
815.256	27370
815.397	27405
815.539	27515
815.68	27439
815.821	27359
815.962	27435
816.103	27351
816.244	27275
816.385	27138
816.526	27233
816.666	26960
816.807	26823
816.948	26853
817.089	26975
817.23	26986
817.371	26914
817.512	26823
817.653	26773
817.793	26716
817.934	26902
818.075	26918
818.216	26868
818.356	26773
818.497	26689
818.638	26537
818.778	26488
818.919	26552
819.06	26655
819.2	26701
819.341	26754
819.481	26944
819.622	26910
819.762	27104
819.903	27081
820.043	26944
820.184	26891
820.324	26925
820.465	27009
820.605	26921
820.746	26956
820.886	26769
821.026	26895
821.167	26807
821.307	26895
821.447	26887
821.588	26762
821.728	26640
821.868	26545
822.008	26301
822.149	26240
822.289	26157
822.429	25955
822.569	25955
822.709	25879
822.849	25772
822.99	25845
823.13	25738
823.27	25765
823.41	25506
823.55	25586
823.69	25597
823.83	25548
823.97	25632
824.11	25320
824.25	25460
824.389	25373
824.529	25434
824.669	25362
824.809	25476
824.949	25567
825.089	25346
825.228	25468
825.368	25320
825.508	25320
825.648	25346
825.787	25236
825.927	25339
826.067	25156
826.206	25198
826.346	25160
826.485	25206
826.625	25194
826.765	25289
826.904	25297
827.044	25015
827.183	24985
827.323	24935
827.462	24939
827.601	24913
827.741	25023
827.88	25004
828.02	24715
828.159	24958
828.298	24920
828.437	24973
828.577	24924
828.716	25084
828.855	24817
828.994	24753
829.134	24650
829.273	24719
829.412	24540
829.551	24475
829.69	24646
829.829	24593
829.968	24829
830.107	24635
830.246	24627
830.385	24608
830.524	24540
830.663	24475
830.802	24361
830.941	24174
831.08	24148
831.219	24315
831.357	24285
831.496	24285
831.635	24270
831.774	24117
831.913	24041
832.051	24057
832.19	23935
832.329	23992
832.467	23927
832.606	23927
832.744	23893
832.883	23908
833.022	23904
833.16	23809
833.299	23984
833.437	23969
833.576	24003
833.714	23973
833.852	24144
833.991	24045
834.129	23988
834.267	24011
834.406	23916
834.544	23901
834.682	24026
834.821	23965
834.959	24045
835.097	23954
835.235	24041
835.373	23901
835.511	23859
835.65	23946
835.788	23748
835.926	23646
836.064	23512
836.202	23543
836.34	23756
836.478	23859
836.615	23783
836.753	23882
836.891	23843
837.029	23805
837.167	23676
837.305	23729
837.443	23668
837.58	23558
837.718	23543
837.856	23756
837.993	23570
838.131	23520
838.269	23509
838.406	23573
838.544	23368
838.681	23227
838.819	23258
838.956	23102
839.094	23147
839.231	23159
839.369	23212
839.506	23524
839.643	23250
839.781	23018
839.918	22976
840.055	23083
840.193	23086
840.33	23022
840.467	22946
840.604	22976
840.742	23303
840.879	22793
841.016	22904
841.153	22862
841.29	23128
841.427	22828
841.564	22915
841.701	22881
841.838	22987
841.975	22927
842.112	22843
842.249	22850
842.385	22790
842.522	22927
842.659	22660
842.796	22668
842.933	22725
843.069	22748
843.206	22702
843.343	22694
843.479	22698
843.616	22687
843.752	22573
843.889	22481
844.025	22615
844.162	22436
844.298	22596
844.435	22512
844.571	22436
844.708	22554
844.844	22634
844.98	22577
845.117	22656
845.253	22485
845.389	22341
845.525	22333
845.661	22375
845.798	22181
845.934	22253
846.07	22192
846.206	22352
846.342	22314
846.478	22143
846.614	21991
846.75	21945
846.886	21899
847.022	22040
847.158	21895
847.294	21941
847.429	21994
847.565	21884
847.701	22150
847.837	21675
847.972	21633
848.108	21728
848.244	21797
848.379	21644
848.515	21534
848.65	21534
848.786	21450
848.921	21599
849.057	21583
849.192	21644
849.328	21477
849.463	21637
849.598	21538
849.734	21382
849.869	21317
850.004	21279
850.14	21264
850.275	21275
850.41	21150
850.545	21112
850.68	21317
850.815	21458
850.95	21302
851.085	21294
851.22	21317
851.355	21241
851.49	21226
851.625	21226
851.76	21256
851.895	21169
852.03	21169
852.165	21283
852.299	21279
852.434	21336
852.569	21363
852.703	21336
852.838	21294
852.973	21378
853.107	21424
853.242	21207
853.376	21176
853.511	20975
853.645	21077
853.78	21199
853.914	21074
854.048	21074
854.183	21100
854.317	21074
854.451	21294
854.585	21123
854.72	21131
854.854	21211
854.988	20963
855.122	21051
855.256	20967
855.39	21001
855.524	21188
855.658	21096
855.792	21077
855.926	21146
856.06	21089
856.194	21207
856.327	21074
856.461	21043
856.595	20956
856.729	21039
856.862	21142
856.996	21176
857.13	21116
857.263	21142
857.397	21112
857.53	21047
857.664	21112
857.797	21108
857.931	21180
858.064	21127
858.197	21157
858.331	21089
858.464	21028
858.597	20899
858.731	20963
858.864	20994
858.997	20990
859.13	20994
859.263	21077
859.396	21032
859.529	21108
859.662	21017
859.795	20998
859.928	20960
860.061	21291
860.194	21264
860.327	21108
860.46	21036
860.592	21195
860.725	21302
860.858	21291
860.99	21214
861.123	20979
861.256	20929
861.388	21055
861.521	21603
861.653	20967
861.786	20906
861.918	20815
862.05	20979
862.183	21024
862.315	21077
862.447	21066
862.58	21047
862.712	20781
862.844	20571
862.976	20910
863.108	20838
863.24	21180
863.372	20792
863.504	20758
863.636	20735
863.768	20891
863.9	20807
864.032	20746
864.164	20765
864.296	20826
864.428	20811
864.559	20727
864.691	20845
864.823	20754
864.954	20739
865.086	20682
865.217	20674
865.349	20621
865.48	20708
865.612	20697
865.743	20773
865.875	20678
866.006	20632
866.137	20655
866.269	20651
866.4	20644
866.531	20686
866.662	20480
866.793	20590
866.924	20568
867.055	20659
867.186	20617
867.317	20564
867.448	20537
867.579	20659
867.71	20514
867.841	20522
867.972	20560
868.103	20526
868.233	20632
868.364	20590
868.495	20724
868.625	20880
868.756	20937
868.886	20804
869.017	20899
869.147	20967
869.278	20902
869.408	20845
869.539	20899
869.669	20891
869.799	20826
869.929	20842
870.06	21020
870.19	21157
870.32	20975
870.45	21195
870.58	21211
870.71	21382
870.84	21287
870.97	21332
871.1	21226
871.23	21435
871.36	21523
871.489	21378
871.619	21325
871.749	21485
871.879	21606
872.008	21466
872.138	21431
872.267	21226
872.397	21329
872.526	21340
872.656	21199
872.785	21336
872.915	21492
873.044	21481
873.173	21622
873.303	21496
873.432	21568
873.561	21580
873.69	21469
873.819	21443
873.948	21587
874.077	21443
874.206	21397
874.335	21431
874.464	21500
874.593	21694
874.722	21614
874.851	21694
874.979	21717
875.108	21724
875.237	21675
875.365	21583
875.494	21675
875.623	21671
875.751	21603
875.88	21641
876.008	21675
876.136	21930
876.265	22139
876.393	22128
876.521	22112
876.65	22166
876.778	22013
876.906	22124
877.034	21975
877.162	22086
877.29	21979
877.418	22048
877.546	22124
877.674	21930
877.802	21968
877.93	22032
878.058	21953
878.185	21915
878.313	21998
878.441	22120
878.568	21850
878.696	21937
878.824	22055
878.951	22070
879.079	22230
879.206	22284
879.333	22318
879.461	21960
879.588	22158
879.715	22200
879.842	22261
879.97	22074
880.097	21869
880.224	21770
880.351	21861
880.478	21861
880.605	21850
880.732	21747
880.859	22101
880.986	21827
881.112	21873
881.239	21831
881.366	21603
881.493	21431
881.619	21454
881.746	21492
881.872	21420
881.999	21359
882.125	21389
882.252	21488
882.378	21302
882.505	21515
882.631	21374
882.757	21123
882.883	21260
883.01	21108
883.136	21074
883.262	21005
883.388	20979
883.514	21165
883.64	21195
883.766	21005
883.892	20918
884.018	21047
884.143	21036
884.269	21184
884.395	20921
884.52	20861
884.646	20682
884.772	20720
884.897	20556
885.023	20830
885.148	20887
885.274	20998
885.399	20819
885.524	20785
885.65	20811
885.775	20750
885.9	20746
886.025	20868
886.15	20834
886.275	20804
886.4	20735
886.525	20682
886.65	20712
886.775	20773
886.9	21024
887.025	20933
887.149	20826
887.274	20488
887.399	20648
887.523	20575
887.648	20530
887.773	20454
887.897	20632
888.021	20480
888.146	20560
888.27	20712
888.395	20678
888.519	20568
888.643	20629
888.767	20568
888.891	20438
889.015	20229
889.139	20404
889.263	20263
889.387	20518
889.511	20545
889.635	20526
889.759	20286
889.883	20244
890.006	20362
890.13	20389
890.254	20252
890.377	20233
890.501	20077
890.624	20088
890.748	20092
890.871	20016
890.995	19830
891.118	19913
891.241	19974
891.364	19947
891.488	20126
891.611	19993
891.734	20012
891.857	20081
891.98	19989
892.103	19944
892.226	19951
892.349	19795
892.471	19761
892.594	19791
892.717	19974
892.839	19719
892.962	19833
893.085	19970
893.207	19841
893.33	19666
893.452	19700
893.575	19890
893.697	19875
893.819	19951
893.941	20031
894.064	19879
894.186	19757
894.308	19753
894.43	19830
894.552	20012
894.674	19913
894.796	19761
894.918	19860
895.04	19605
895.161	19978
895.283	19986
895.405	19772
895.526	19830
895.648	19822
895.769	19928
895.891	19750
896.012	19799
896.134	19898
896.255	19913
896.376	19742
896.498	19841
896.619	19947
896.74	19833
896.861	19902
896.982	20157
897.103	20366
897.224	20244
897.345	20069
897.466	20054
897.587	20050
897.708	20263
897.828	20031
897.949	20005
898.07	19906
898.19	19921
898.311	20058
898.431	20008
898.552	20012
898.672	20069
898.792	20130
898.913	19989
899.033	19917
899.153	19784
899.273	19594
899.393	19647
899.513	19776
899.633	19681
899.753	19795
899.873	19689
899.993	19852
900.113	19788
900.232	19628
900.352	19685
900.472	19635
900.591	19514
900.711	19510
900.83	19525
900.95	19632
901.069	19655
901.189	19506
901.308	19278
901.427	19217
901.546	19171
901.665	19171
901.784	19206
901.904	18947
902.023	18840
902.141	18848
902.26	18726
902.379	18726
902.498	18612
902.617	18517
902.735	18631
902.854	18578
902.973	18692
903.091	18395
903.21	18350
903.328	18445
903.446	18228
903.565	18171
903.683	18201
903.801	18057
903.919	18114
904.038	18083
904.156	17973
904.274	17878
904.392	17889
904.51	17908
904.627	17897
904.745	17984
904.863	17954
904.981	17756
905.098	17657
905.216	17573
905.334	17619
905.451	17634
905.569	17467
905.686	17512
905.803	17627
905.921	17364
906.038	17486
906.155	17410
906.272	17231
906.389	17318
906.506	17052
906.623	17181
906.74	17121
906.857	17075
906.974	16984
907.091	17090
907.208	17235
907.324	17113
907.441	16984
907.557	16816
907.674	16892
907.79	16774
907.907	16778
908.023	16854
908.139	16828
908.256	16698
908.372	16713
908.488	16634
908.604	16527
908.72	16523
908.836	16504
908.952	16546
909.068	16481
909.184	16599
909.3	16535
909.415	16592
909.531	16542
909.647	16249
909.762	16207
909.878	16287
909.993	16166
910.108	16154
910.224	16128
910.339	16299
910.454	16173
910.57	15998
910.685	15922
910.8	16246
910.915	16128
911.03	16017
911.145	15941
911.259	15838
911.374	15865
911.489	15736
911.604	15705
911.718	15584
911.833	15663
911.947	15443
912.062	15386
912.176	15504
912.291	15515
912.405	15603
912.519	15812
912.633	15842
912.748	15606
912.862	15599
912.976	15378
913.09	15256
913.204	15313
913.318	15431
913.431	15481
913.545	15519
913.659	15458
913.772	15291
913.886	15241
914	15256
914.113	15279
914.226	15367
914.34	15264
914.453	15097
914.566	15260
914.68	15119
914.793	15009
914.906	14925
915.019	14823
915.132	14792
915.245	14842
915.358	14902
915.47	14819
915.583	14864
915.696	14883
915.809	14921
915.921	14982
916.034	14811
916.146	14777
916.259	14579
916.371	14785
916.483	14689
916.595	14678
916.708	14648
916.82	14667
916.932	14602
917.044	14579
917.156	14602
917.268	14556
917.38	14522
917.491	14446
917.603	14533
917.715	14575
917.826	14606
917.938	14415
918.049	14396
918.161	14568
918.272	14602
918.384	14522
918.495	14423
918.606	14282
918.717	14145
918.828	14332
918.939	14244
919.05	14164
919.161	14180
919.272	14069
919.383	14081
919.494	14301
919.604	14427
919.715	14195
919.826	14191
919.936	14271
920.047	14267
920.157	14282
920.267	14377
920.378	14309
920.488	14142
920.598	14332
920.708	14454
920.818	14244
920.928	14282
921.038	14339
921.148	14484
921.258	14062
921.368	14096
921.477	13928
921.587	14008
921.697	13849
921.806	13909
921.916	13852
922.025	13685
922.134	13567
922.244	13567
922.353	13639
922.462	13441
922.571	13362
922.68	13198
922.789	13168
922.898	13278
923.007	13209
923.116	13179
923.224	13202
923.333	13209
923.442	13069
923.55	13061
923.659	13038
923.767	13050
923.876	12996
923.984	13095
924.092	13000
924.201	13069
924.309	12996
924.417	12916
924.525	12875
924.633	12913
924.741	13727
924.849	12783
924.956	12814
925.064	12677
925.172	12715
925.279	12612
925.387	12570
925.494	12677
925.602	12810
925.709	12681
925.816	12540
925.924	12597
926.031	12631
926.138	12525
926.245	12623
926.352	12521
926.459	12536
926.566	12662
926.673	12555
926.779	12445
926.886	12456
926.993	12281
927.099	12285
927.206	12190
927.312	12175
927.419	12273
927.525	12270
927.631	12175
927.737	12102
927.843	12030
927.95	11969
928.056	12117
928.162	12087
928.267	12129
928.373	12692
928.479	12235
928.585	11889
928.69	11969
928.796	11999
928.901	11912
929.007	11855
929.112	11935
929.218	11923
929.323	11874
929.428	11851
929.533	11893
929.638	11790
929.743	11691
929.848	11798
929.953	11760
930.058	11581
930.163	11448
930.267	11452
930.372	11532
930.477	11452
930.581	11657
930.685	11539
930.79	11368
930.894	11345
930.998	11292
931.103	11490
931.207	11079
931.311	11056
931.415	10995
931.519	10778
931.623	10752
