Data from test_V78500241_1143.txt Node
Date: Fri Mar 25 15:17:48 CST 2022
User: usil
Spectrometer: V785-0024
Trigger mode: 0
Integration Time (sec): 4.000000E-1
Scans to average: 1
Nonlinearity correction enabled: false
Boxcar width: 0
Storing dark spectrum: false
XAxis mode: Wavelengths
Number of Pixels in Spectrum: 1024
>>>>>Begin Spectral Data<<<<<
801.071	27934
801.214	27747
801.356	27576
801.499	27774
801.641	27382
801.783	27496
801.926	27492
802.068	27420
802.211	27317
802.353	27389
802.496	27081
802.638	27127
802.78	27116
802.923	27066
803.065	27184
803.208	27089
803.35	27230
803.492	27317
803.635	27283
803.777	27150
803.919	27249
804.061	27606
804.204	27412
804.346	27176
804.488	27192
804.63	27256
804.773	27222
804.915	27249
805.057	27466
805.199	27184
805.341	27431
805.483	27412
805.626	27439
805.768	27241
805.91	27488
806.052	27538
806.194	27454
806.336	27519
806.478	27492
806.62	27378
806.762	27618
806.904	27682
807.046	27865
807.188	27781
807.33	27899
807.472	28010
807.614	27736
807.756	27876
807.898	27778
808.04	27717
808.182	27759
808.324	27835
808.465	27816
808.607	28067
808.749	27987
808.891	28055
809.033	28223
809.174	28207
809.316	27930
809.458	28055
809.6	28112
809.741	28150
809.883	28272
810.025	28299
810.166	28295
810.308	28401
810.45	28299
810.591	28253
810.733	28101
810.875	28044
811.016	27953
811.158	27968
811.299	28169
811.441	28215
811.582	28318
811.724	28234
811.865	28173
812.007	28154
812.148	28173
812.29	28242
812.431	28318
812.573	28341
812.714	28557
812.855	28565
812.997	28675
813.138	28790
813.279	28771
813.421	28706
813.562	28580
813.703	28337
813.845	28318
813.986	28093
814.127	27941
814.268	27835
814.41	27960
814.551	27888
814.692	27850
814.833	27888
814.974	27641
815.115	27854
815.256	27629
815.397	27667
815.539	27774
815.68	27473
815.821	27545
815.962	27686
816.103	27530
816.244	27424
816.385	27363
816.526	27351
816.666	27252
816.807	27062
816.948	27199
817.089	27298
817.23	27222
817.371	27150
817.512	27203
817.653	27070
817.793	27005
817.934	27081
818.075	27066
818.216	27165
818.356	27119
818.497	27070
818.638	26864
818.778	26876
818.919	26823
819.06	26891
819.2	27005
819.341	27077
819.481	27104
819.622	27207
819.762	27504
819.903	27374
820.043	27348
820.184	27176
820.324	27256
820.465	27157
820.605	27291
820.746	27165
820.886	27154
821.026	27207
821.167	27192
821.307	27195
821.447	27032
821.588	27001
821.728	26845
821.868	26670
822.008	26724
822.149	26606
822.289	26488
822.429	26434
822.569	26290
822.709	26244
822.849	26161
822.99	26119
823.13	26073
823.27	26054
823.41	25966
823.55	25681
823.69	25947
823.83	26012
823.97	25791
824.11	25681
824.25	25628
824.389	25765
824.529	25772
824.669	25693
824.809	25890
824.949	25993
825.089	25849
825.228	25704
825.368	25734
825.508	25563
825.648	25575
825.787	25601
825.927	25670
826.067	25628
826.206	25590
826.346	25666
826.485	25601
826.625	25548
826.765	25723
826.904	25738
827.044	25430
827.183	25464
827.323	25388
827.462	25441
827.601	25438
827.741	25316
827.88	25362
828.02	25228
828.159	25266
828.298	25331
828.437	25426
828.577	25369
828.716	25320
828.855	25301
828.994	25175
829.134	25202
829.273	25095
829.412	24981
829.551	25133
829.69	25107
829.829	25015
829.968	25004
830.107	25171
830.246	25084
830.385	25015
830.524	25004
830.663	24943
830.802	24745
830.941	24783
831.08	24749
831.219	24821
831.357	24779
831.496	24943
831.635	24741
831.774	24673
831.913	24536
832.051	24547
832.19	24445
832.329	24563
832.467	24361
832.606	24365
832.744	24361
832.883	24376
833.022	24422
833.16	24380
833.299	24498
833.437	24403
833.576	24399
833.714	24407
833.852	24422
833.991	24525
834.129	24563
834.267	24460
834.406	24437
834.544	24452
834.682	24570
834.821	24395
834.959	24753
835.097	24578
835.235	24551
835.373	24456
835.511	24426
835.65	24319
835.788	24327
835.926	24144
836.064	24136
836.202	24194
836.34	24342
836.478	24399
836.615	24251
836.753	24315
836.891	24353
837.029	24315
837.167	24334
837.305	24178
837.443	24186
837.58	24144
837.718	24133
837.856	24026
837.993	24102
838.131	24152
838.269	24026
838.406	24072
838.544	23927
838.681	23745
838.819	23691
838.956	23634
839.094	23615
839.231	23691
839.369	23802
839.506	23996
839.643	23798
839.781	23535
839.918	23630
840.055	23539
840.193	23509
840.33	23429
840.467	23570
840.604	23482
840.742	23764
840.879	23436
841.016	23516
841.153	23433
841.29	23634
841.427	23505
841.564	23554
841.701	23592
841.838	23493
841.975	23467
842.112	23486
842.249	23391
842.385	23318
842.522	23436
842.659	23452
842.796	23311
842.933	23280
843.069	23200
843.206	23387
843.343	23376
843.479	23284
843.616	23197
843.752	23048
843.889	23071
844.025	23334
844.162	23041
844.298	23105
844.435	23140
844.571	22987
844.708	23083
844.844	23197
844.98	23124
845.117	23102
845.253	22984
845.389	22965
845.525	22987
845.661	22953
845.798	22885
845.934	22862
846.07	22896
846.206	22904
846.342	22942
846.478	22641
846.614	22687
846.75	22382
846.886	22485
847.022	22538
847.158	22470
847.294	22462
847.429	22485
847.565	22531
847.701	22797
847.837	22325
847.972	22272
848.108	22318
848.244	22169
848.379	22215
848.515	22090
848.65	22150
848.786	22150
848.921	22162
849.057	22253
849.192	22310
849.328	22204
849.463	22078
849.598	22048
849.734	22112
849.869	21983
850.004	21998
850.14	21941
850.275	21972
850.41	21770
850.545	21793
850.68	21888
850.815	21865
850.95	21903
851.085	21998
851.22	21979
851.355	21937
851.49	21880
851.625	21827
851.76	21884
851.895	21774
852.03	21736
852.165	21865
852.299	21994
852.434	21972
852.569	21945
852.703	21930
852.838	21960
852.973	22086
853.107	21895
853.242	21736
853.376	21819
853.511	21705
853.645	21663
853.78	21880
853.914	21705
854.048	21553
854.183	21724
854.317	21804
854.451	21968
854.585	21667
854.72	21739
854.854	21800
854.988	21648
855.122	21751
855.256	21564
855.39	21728
855.524	21797
855.658	21739
855.792	21705
855.926	21759
856.06	21728
856.194	21732
856.327	21679
856.461	21728
856.595	21671
856.729	21724
856.862	21819
856.996	21835
857.13	21739
857.263	21747
857.397	21755
857.53	21603
857.664	21671
857.797	21739
857.931	21827
858.064	21732
858.197	21857
858.331	21720
858.464	21614
858.597	21709
858.731	21625
858.864	21614
858.997	21698
859.13	21766
859.263	21656
859.396	21812
859.529	21743
859.662	21682
859.795	21583
859.928	21751
860.061	21690
860.194	21800
860.327	21850
860.46	21656
860.592	21869
860.725	21804
860.858	21720
860.99	21724
861.123	21568
861.256	21625
861.388	21667
861.521	22493
861.653	21511
861.786	21538
861.918	21564
862.05	21667
862.183	21618
862.315	21675
862.447	21629
862.58	21720
862.712	21504
862.844	21428
862.976	21519
863.108	21469
863.24	21937
863.372	21367
863.504	21405
863.636	21428
863.768	21458
863.9	21325
864.032	21363
864.164	21397
864.296	21469
864.428	21424
864.559	21481
864.691	21458
864.823	21420
864.954	21428
865.086	21355
865.217	21351
865.349	21256
865.48	21367
865.612	21332
865.743	21389
865.875	21355
866.006	21348
866.137	21287
866.269	21142
866.4	21211
866.531	21268
866.662	21230
866.793	21306
866.924	21173
867.055	21374
867.186	21260
867.317	21226
867.448	21116
867.579	21294
867.71	21100
867.841	21127
867.972	21184
868.103	21211
868.233	21150
868.364	21203
868.495	21344
868.625	21374
868.756	21412
868.886	21412
869.017	21553
869.147	21599
869.278	21439
869.408	21473
869.539	21549
869.669	21488
869.799	21435
869.929	21583
870.06	21580
870.19	21717
870.32	21819
870.45	21884
870.58	21785
870.71	21903
870.84	21899
870.97	21850
871.1	21903
871.23	21964
871.36	22093
871.489	21991
871.619	21964
871.749	22044
871.879	22070
872.008	22272
872.138	22097
872.267	22150
872.397	21979
872.526	21922
872.656	21895
872.785	21960
872.915	22181
873.044	22166
873.173	22154
873.303	22143
873.432	22131
873.561	22234
873.69	22150
873.819	22013
873.948	22268
874.077	22044
874.206	22025
874.335	21979
874.464	22120
874.593	22314
874.722	22272
874.851	22291
874.979	22417
875.108	22432
875.237	22166
875.365	22238
875.494	22261
875.623	22367
875.751	22196
875.88	22337
876.008	22386
876.136	22603
876.265	22725
876.393	22904
876.521	22618
876.65	22866
876.778	22713
876.906	22683
877.034	22626
877.162	22599
877.29	22679
877.418	22615
877.546	22675
877.674	22649
877.802	22729
877.93	22607
878.058	22599
878.185	22542
878.313	22622
878.441	22645
878.568	22390
878.696	22550
878.824	22736
878.951	22755
879.079	22736
879.206	22949
879.333	22820
879.461	22694
879.588	22683
879.715	22801
879.842	22896
879.97	22698
880.097	22402
880.224	22398
880.351	22508
880.478	22417
880.605	22306
880.732	22409
880.859	22634
880.986	22596
881.112	22615
881.239	22497
881.366	22181
881.493	22116
881.619	22040
881.746	22044
881.872	22082
881.999	22006
882.125	22025
882.252	22036
882.378	22025
882.505	22154
882.631	21945
882.757	21762
882.883	21846
883.01	21778
883.136	21637
883.262	21652
883.388	21568
883.514	21846
883.64	21793
883.766	21819
883.892	21500
884.018	21622
884.143	21591
884.269	21751
884.395	21481
884.52	21272
884.646	21363
884.772	21329
884.897	21272
885.023	21443
885.148	21367
885.274	21500
885.399	21500
885.524	21340
885.65	21336
885.775	21386
885.9	21256
886.025	21504
886.15	21439
886.275	21275
886.4	21287
886.525	21389
886.65	21287
886.775	21397
886.9	21492
887.025	21637
887.149	21272
887.274	21214
887.399	21203
887.523	21169
887.648	21173
887.773	21104
887.897	21165
888.021	21100
888.146	21081
888.27	21241
888.395	21325
888.519	21184
888.643	21222
888.767	21195
888.891	20990
889.015	20910
889.139	20948
889.263	20739
889.387	21108
889.511	21157
889.635	21131
889.759	21005
889.883	20906
890.006	20902
890.13	21009
890.254	20929
890.377	20906
890.501	20594
890.624	20712
890.748	20811
890.871	20552
890.995	20507
891.118	20415
891.241	20381
891.364	20530
891.488	20636
891.611	20412
891.734	20507
891.857	20545
891.98	20526
892.103	20503
892.226	20537
892.349	20320
892.471	20286
892.594	20339
892.717	20412
892.839	20377
892.962	20374
893.085	20415
893.207	20347
893.33	20332
893.452	20324
893.575	20412
893.697	20305
893.819	20457
893.941	20609
894.064	20492
894.186	20317
894.308	20263
894.43	20393
894.552	20545
894.674	20560
894.796	20305
894.918	20351
895.04	20351
895.161	20473
895.283	20503
895.405	20271
895.526	20412
895.648	20347
895.769	20389
895.891	20427
896.012	20431
896.134	20396
896.255	20294
896.376	20309
896.498	20442
896.619	20404
896.74	20366
896.861	20355
896.982	20743
897.103	20826
897.224	20625
897.345	20568
897.466	20507
897.587	20613
897.708	20708
897.828	20541
897.949	20446
898.07	20492
898.19	20476
898.311	20590
898.431	20434
898.552	20636
898.672	20686
898.792	20518
898.913	20594
899.033	20469
899.153	20427
899.273	20256
899.393	20431
899.513	20309
899.633	20313
899.753	20370
899.873	20294
899.993	20339
900.113	20271
900.232	20233
900.352	20199
900.472	20096
900.591	20027
900.711	20008
900.83	19989
900.95	20130
901.069	20142
901.189	19955
901.308	19700
901.427	19750
901.546	19700
901.665	19784
901.784	19681
901.904	19499
902.023	19483
902.141	19316
902.26	19259
902.379	19324
902.498	19282
902.617	19141
902.735	19187
902.854	19270
902.973	19107
903.091	18916
903.21	18951
903.328	18875
903.446	18787
903.565	18681
903.683	18700
903.801	18650
903.919	18486
904.038	18696
904.156	18536
904.274	18509
904.392	18437
904.51	18467
904.627	18342
904.745	18445
904.863	18460
904.981	18163
905.098	17969
905.216	18129
905.334	18167
905.451	18167
905.569	17916
905.686	18064
905.803	18133
905.921	17942
906.038	18072
906.155	17885
906.272	17851
906.389	17832
906.506	17661
906.623	17668
906.74	17566
906.857	17558
906.974	17657
907.091	17767
907.208	17741
907.324	17627
907.441	17604
907.557	17398
907.674	17444
907.79	17284
907.907	17497
908.023	17326
908.139	17467
908.256	17326
908.372	17254
908.488	17174
908.604	17216
908.72	17075
908.836	17090
908.952	17056
909.068	17147
909.184	17178
909.3	17075
909.415	17220
909.531	17014
909.647	16820
909.762	16812
909.878	16736
909.993	16828
910.108	16759
910.224	16729
910.339	16748
910.454	16698
910.57	16653
910.685	16664
910.8	16831
910.915	16710
911.03	16691
911.145	16508
911.259	16379
911.374	16249
911.489	16314
911.604	16219
911.718	16162
911.833	16090
911.947	16013
912.062	15888
912.176	16131
912.291	16135
912.405	15991
912.519	16276
912.633	16333
912.748	16162
912.862	16181
912.976	15945
913.09	15804
913.204	15915
913.318	15918
913.431	16071
913.545	15934
913.659	16010
913.772	15895
913.886	15698
914	15789
914.113	15812
914.226	15918
914.34	15800
914.453	15652
914.566	15819
914.68	15660
914.793	15679
914.906	15389
915.019	15336
915.132	15317
915.245	15336
915.358	15355
915.47	15279
915.583	15344
915.696	15447
915.809	15447
915.921	15416
916.034	15222
916.146	15226
916.259	15249
916.371	15302
916.483	15252
916.595	15184
916.708	15188
916.82	15222
916.932	15154
917.044	15138
917.156	15058
917.268	15051
917.38	15013
917.491	14986
917.603	15005
917.715	15154
917.826	15085
917.938	14929
918.049	14811
918.161	14960
918.272	15097
918.384	15070
918.495	14971
918.606	14845
918.717	14743
918.828	14708
918.939	14731
919.05	14716
919.161	14800
919.272	14606
919.383	14514
919.494	14746
919.604	14944
919.715	14640
919.826	14621
919.936	14640
920.047	14785
920.157	14659
920.267	14819
920.378	14731
920.488	14705
920.598	14918
920.708	14982
920.818	14891
920.928	14781
921.038	15039
921.148	14853
921.258	14674
921.368	14530
921.477	14511
921.587	14450
921.697	14237
921.806	14328
921.916	14248
922.025	14107
922.134	14096
922.244	14100
922.353	14126
922.462	13947
922.571	13902
922.68	13727
922.789	13776
922.898	13761
923.007	13651
923.116	13727
923.224	13655
923.333	13731
923.442	13594
923.55	13556
923.659	13578
923.767	13658
923.876	13518
923.984	13670
924.092	13346
924.201	13506
924.309	13445
924.417	13480
924.525	13369
924.633	13308
924.741	14317
924.849	13126
924.956	13304
925.064	13110
925.172	13122
925.279	13110
925.387	13160
925.494	13137
925.602	13255
925.709	13225
925.816	13031
925.924	13088
926.031	13152
926.138	13019
926.245	13061
926.352	12943
926.459	13088
926.566	13168
926.673	13031
926.779	12913
926.886	12932
926.993	12684
927.099	12745
927.206	12639
927.312	12597
927.419	12707
927.525	12677
927.631	12795
927.737	12582
927.843	12429
927.95	12388
928.056	12544
928.162	12494
928.267	12566
928.373	13012
928.479	12631
928.585	12422
928.69	12399
928.796	12585
928.901	12410
929.007	12175
929.112	12330
929.218	12399
929.323	12243
929.428	12258
929.533	12251
929.638	12175
929.743	12209
929.848	12273
929.953	12194
930.058	12034
930.163	11809
930.267	11935
930.372	12095
930.477	11771
930.581	12091
930.685	11942
930.79	11813
930.894	11752
930.998	11733
931.103	11859
931.207	11562
931.311	11452
931.415	11372
931.519	11239
931.623	11159
