Data from test_V78500241_1034.txt Node
Date: Fri Mar 25 15:17:03 CST 2022
User: usil
Spectrometer: V785-0024
Trigger mode: 0
Integration Time (sec): 4.000000E-1
Scans to average: 1
Nonlinearity correction enabled: false
Boxcar width: 0
Storing dark spectrum: false
XAxis mode: Wavelengths
Number of Pixels in Spectrum: 1024
>>>>>Begin Spectral Data<<<<<
801.071	28143
801.214	27998
801.356	27838
801.499	27709
801.641	27580
801.783	27625
801.926	27663
802.068	27675
802.211	27534
802.353	27439
802.496	27336
802.638	27279
802.78	27150
802.923	27252
803.065	27154
803.208	27317
803.35	27351
803.492	27340
803.635	27294
803.777	27294
803.919	27435
804.061	27789
804.204	27485
804.346	27329
804.488	27275
804.63	27393
804.773	27355
804.915	27500
805.057	27568
805.199	27420
805.341	27530
805.483	27762
805.626	27523
805.768	27534
805.91	27466
806.052	27526
806.194	27462
806.336	27709
806.478	27633
806.62	27515
806.762	27701
806.904	27926
807.046	28101
807.188	28051
807.33	27899
807.472	28025
807.614	27930
807.756	27937
807.898	27930
808.04	27854
808.182	27835
808.324	27823
808.465	27899
808.607	28112
808.749	28272
808.891	28192
809.033	28462
809.174	28440
809.316	28219
809.458	28371
809.6	28188
809.741	28470
809.883	28462
810.025	28512
810.166	28535
810.308	28584
810.45	28523
810.591	28504
810.733	28284
810.875	28246
811.016	28207
811.158	28131
811.299	28200
811.441	28478
811.582	28261
811.724	28196
811.865	28074
812.007	28230
812.148	28154
812.29	28257
812.431	28409
812.573	28584
812.714	28679
812.855	28767
812.997	28866
813.138	28953
813.279	28866
813.421	28896
813.562	28744
813.703	28664
813.845	28432
813.986	28196
814.127	28048
814.268	27949
814.41	27991
814.551	27857
814.692	27994
814.833	27838
814.974	27869
815.115	27869
815.256	27808
815.397	27800
815.539	27819
815.68	27751
815.821	27667
815.962	27838
816.103	27850
816.244	27599
816.385	27443
816.526	27599
816.666	27294
816.807	27203
816.948	27355
817.089	27272
817.23	27317
817.371	27283
817.512	27439
817.653	27173
817.793	27188
817.934	27180
818.075	27218
818.216	27245
818.356	27386
818.497	27192
818.638	26914
818.778	26948
818.919	27058
819.06	27180
819.2	27135
819.341	27325
819.481	27256
819.622	27355
819.762	27644
819.903	27427
820.043	27504
820.184	27291
820.324	27310
820.465	27374
820.605	27340
820.746	27302
820.886	27306
821.026	27313
821.167	27332
821.307	27332
821.447	27222
821.588	26967
821.728	27043
821.868	26781
822.008	26727
822.149	26693
822.289	26693
822.429	26396
822.569	26347
822.709	26336
822.849	26142
822.99	26199
823.13	26271
823.27	26305
823.41	26187
823.55	25921
823.69	26161
823.83	26107
823.97	25890
824.11	25871
824.25	25940
824.389	25879
824.529	26012
824.669	25959
824.809	25966
824.949	26031
825.089	25966
825.228	25944
825.368	25875
825.508	25928
825.648	25849
825.787	25856
825.927	25784
826.067	25624
826.206	25750
826.346	25966
826.485	25780
826.625	25734
826.765	25856
826.904	25860
827.044	25548
827.183	25578
827.323	25548
827.462	25540
827.601	25567
827.741	25472
827.88	25597
828.02	25407
828.159	25445
828.298	25563
828.437	25556
828.577	25381
828.716	25514
828.855	25396
828.994	25175
829.134	25228
829.273	25118
829.412	25175
829.551	25141
829.69	25126
829.829	25202
829.968	25426
830.107	25327
830.246	25194
830.385	25099
830.524	25080
830.663	24981
830.802	24962
830.941	24768
831.08	24897
831.219	24825
831.357	25008
831.496	25027
831.635	24821
831.774	24631
831.913	24654
832.051	24669
832.19	24696
832.329	24604
832.467	24505
832.606	24330
832.744	24589
832.883	24525
833.022	24483
833.16	24365
833.299	24509
833.437	24456
833.576	24540
833.714	24471
833.852	24677
833.991	24540
834.129	24585
834.267	24623
834.406	24604
834.544	24661
834.682	24483
834.821	24403
834.959	24719
835.097	24494
835.235	24631
835.373	24429
835.511	24760
835.65	24426
835.788	24483
835.926	24300
836.064	24357
836.202	24308
836.34	24376
836.478	24486
836.615	24334
836.753	24407
836.891	24494
837.029	24422
837.167	24342
837.305	24429
837.443	24251
837.58	24247
837.718	24239
837.856	24232
837.993	24205
838.131	24251
838.269	24087
838.406	24186
838.544	24076
838.681	23992
838.819	23942
838.956	23748
839.094	23737
839.231	23680
839.369	23893
839.506	24015
839.643	23893
839.781	23790
839.918	23665
840.055	23809
840.193	23581
840.33	23638
840.467	23566
840.604	23642
840.742	23855
840.879	23455
841.016	23680
841.153	23554
841.29	23737
841.427	23668
841.564	23722
841.701	23642
841.838	23596
841.975	23665
842.112	23516
842.249	23471
842.385	23391
842.522	23497
842.659	23387
842.796	23326
842.933	23368
843.069	23345
843.206	23391
843.343	23440
843.479	23398
843.616	23493
843.752	23231
843.889	23227
844.025	23250
844.162	23197
844.298	23250
844.435	23155
844.571	23083
844.708	23273
844.844	23349
844.98	23143
845.117	23364
845.253	23185
845.389	23075
845.525	23025
845.661	22881
845.798	22809
845.934	23018
846.07	22877
846.206	22934
846.342	22980
846.478	22957
846.614	22679
846.75	22634
846.886	22660
847.022	22755
847.158	22538
847.294	22641
847.429	22607
847.565	22683
847.701	22831
847.837	22390
847.972	22371
848.108	22348
848.244	22421
848.379	22223
848.515	22287
848.65	22276
848.786	22185
848.921	22253
849.057	22299
849.192	22249
849.328	22207
849.463	22196
849.598	22150
849.734	22116
849.869	22013
850.004	21930
850.14	21934
850.275	22040
850.41	22017
850.545	21991
850.68	21880
850.815	21998
850.95	21907
851.085	22147
851.22	22131
851.355	22021
851.49	21998
851.625	21956
851.76	21930
851.895	21930
852.03	21827
852.165	21884
852.299	22067
852.434	21937
852.569	22101
852.703	22013
852.838	21869
852.973	22181
853.107	22196
853.242	21873
853.376	21911
853.511	21736
853.645	21831
853.78	21873
853.914	21800
854.048	21622
854.183	21835
854.317	21747
854.451	21876
854.585	21812
854.72	21800
854.854	21861
854.988	21785
855.122	21747
855.256	21610
855.39	21625
855.524	21911
855.658	21827
855.792	21705
855.926	21785
856.06	21888
856.194	21918
856.327	21751
856.461	21816
856.595	21732
856.729	21762
856.862	21922
856.996	21835
857.13	21899
857.263	21983
857.397	21857
857.53	21774
857.664	21797
857.797	21831
857.931	21865
858.064	21785
858.197	21907
858.331	21861
858.464	21698
858.597	21713
858.731	21743
858.864	21835
858.997	21785
859.13	21797
859.263	21762
859.396	21827
859.529	21747
859.662	21762
859.795	21747
859.928	21747
860.061	21998
860.194	21861
860.327	21743
860.46	21835
860.592	21846
860.725	21953
860.858	21880
860.99	21819
861.123	21766
861.256	21759
861.388	21869
861.521	22470
861.653	21667
861.786	21519
861.918	21682
862.05	21671
862.183	21660
862.315	21720
862.447	21751
862.58	21709
862.712	21466
862.844	21359
862.976	21576
863.108	21591
863.24	21911
863.372	21439
863.504	21549
863.636	21618
863.768	21606
863.9	21420
864.032	21507
864.164	21447
864.296	21492
864.428	21466
864.559	21523
864.691	21591
864.823	21405
864.954	21523
865.086	21458
865.217	21363
865.349	21325
865.48	21351
865.612	21458
865.743	21454
865.875	21439
866.006	21329
866.137	21393
866.269	21329
866.4	21439
866.531	21306
866.662	21370
866.793	21359
866.924	21386
867.055	21389
867.186	21473
867.317	21321
867.448	21287
867.579	21351
867.71	21135
867.841	21279
867.972	21321
868.103	21275
868.233	21233
868.364	21351
868.495	21450
868.625	21580
868.756	21583
868.886	21336
869.017	21568
869.147	21580
869.278	21736
869.408	21739
869.539	21549
869.669	21610
869.799	21523
869.929	21667
870.06	21770
870.19	21819
870.32	21823
870.45	21915
870.58	21922
870.71	22029
870.84	21975
870.97	21888
871.1	21949
871.23	22082
871.36	22215
871.489	22131
871.619	22265
871.749	21983
871.879	22223
872.008	22253
872.138	22268
872.267	22268
872.397	21888
872.526	22017
872.656	21907
872.785	21987
872.915	22295
873.044	22284
873.173	22158
873.303	22185
873.432	22287
873.561	22223
873.69	22181
873.819	22116
873.948	22238
874.077	22093
874.206	22063
874.335	22196
874.464	22329
874.593	22413
874.722	22386
874.851	22402
874.979	22432
875.108	22428
875.237	22299
875.365	22348
875.494	22329
875.623	22424
875.751	22249
875.88	22466
876.008	22485
876.136	22478
876.265	22748
876.393	22919
876.521	22805
876.65	22835
876.778	22820
876.906	22733
877.034	22668
877.162	22847
877.29	22653
877.418	22797
877.546	22790
877.674	22809
877.802	22752
877.93	22653
878.058	22740
878.185	22550
878.313	22710
878.441	22687
878.568	22519
878.696	22641
878.824	22793
878.951	22843
879.079	22805
879.206	23220
879.333	22873
879.461	22725
879.588	22866
879.715	22877
879.842	23003
879.97	22854
880.097	22470
880.224	22611
880.351	22649
880.478	22565
880.605	22523
880.732	22459
880.859	22748
880.986	22512
881.112	22493
881.239	22394
881.366	22188
881.493	22185
881.619	22135
881.746	22188
881.872	22215
881.999	22074
882.125	22112
882.252	22131
882.378	22112
882.505	22253
882.631	21968
882.757	21854
882.883	21895
883.01	21793
883.136	21781
883.262	21823
883.388	21671
883.514	21789
883.64	21778
883.766	21690
883.892	21625
884.018	21698
884.143	21831
884.269	21915
884.395	21477
884.52	21397
884.646	21469
884.772	21332
884.897	21439
885.023	21519
885.148	21526
885.274	21496
885.399	21599
885.524	21511
885.65	21576
885.775	21443
885.9	21355
886.025	21435
886.15	21526
886.275	21313
886.4	21302
886.525	21454
886.65	21355
886.775	21408
886.9	21504
887.025	21622
887.149	21363
887.274	21355
887.399	21249
887.523	21123
887.648	21188
887.773	21116
887.897	21412
888.021	21161
888.146	21237
888.27	21214
888.395	21291
888.519	21310
888.643	21138
888.767	21249
888.891	21096
889.015	20975
889.139	21070
889.263	21104
889.387	21165
889.511	21252
889.635	21116
889.759	21017
889.883	21085
890.006	21009
890.13	21123
890.254	21112
890.377	20952
890.501	20739
890.624	20712
890.748	20777
890.871	20705
890.995	20648
891.118	20590
891.241	20587
891.364	20644
891.488	20708
891.611	20583
891.734	20663
891.857	20644
891.98	20640
892.103	20526
892.226	20598
892.349	20495
892.471	20320
892.594	20579
892.717	20526
892.839	20431
892.962	20495
893.085	20488
893.207	20442
893.33	20381
893.452	20571
893.575	20396
893.697	20568
893.819	20613
893.941	20716
894.064	20602
894.186	20370
894.308	20423
894.43	20442
894.552	20621
894.674	20655
894.796	20282
894.918	20454
895.04	20457
895.161	20469
895.283	20465
895.405	20442
895.526	20545
895.648	20480
895.769	20446
895.891	20454
896.012	20480
896.134	20602
896.255	20484
896.376	20377
896.498	20434
896.619	20484
896.74	20507
896.861	20495
896.982	20853
897.103	20883
897.224	20617
897.345	20708
897.466	20583
897.587	20602
897.708	20804
897.828	20594
897.949	20701
898.07	20385
898.19	20568
898.311	20724
898.431	20549
898.552	20663
898.672	20777
898.792	20754
898.913	20621
899.033	20617
899.153	20518
899.273	20442
899.393	20507
899.513	20446
899.633	20476
899.753	20446
899.873	20355
899.993	20492
900.113	20290
900.232	20442
900.352	20305
900.472	20294
900.591	20130
900.711	20180
900.83	20096
900.95	20286
901.069	20309
901.189	20069
901.308	19925
901.427	19799
901.546	19727
901.665	19913
901.784	19814
901.904	19594
902.023	19472
902.141	19381
902.26	19301
902.379	19419
902.498	19304
902.617	19350
902.735	19331
902.854	19164
902.973	19133
903.091	18947
903.21	19023
903.328	18943
903.446	18833
903.565	18650
903.683	18779
903.801	18711
903.919	18650
904.038	18719
904.156	18536
904.274	18669
904.392	18479
904.51	18517
904.627	18570
904.745	18426
904.863	18486
904.981	18330
905.098	18224
905.216	18190
905.334	18220
905.451	18190
905.569	18144
905.686	18228
905.803	18098
905.921	18079
906.038	17984
906.155	18117
906.272	17908
906.389	17870
906.506	17805
906.623	17714
906.74	17710
906.857	17543
906.974	17733
907.091	17737
907.208	17859
907.324	17748
907.441	17497
907.557	17444
907.674	17463
907.79	17387
907.907	17330
908.023	17467
908.139	17356
908.256	17277
908.372	17284
908.488	17330
908.604	17155
908.72	17151
908.836	17143
908.952	17143
909.068	17056
909.184	17197
909.3	17098
909.415	17193
909.531	17140
909.647	16946
909.762	16790
909.878	16691
909.993	16908
910.108	16828
910.224	16885
910.339	16801
910.454	16637
910.57	16599
910.685	16531
910.8	16862
910.915	16816
911.03	16710
911.145	16443
911.259	16432
911.374	16371
911.489	16379
911.604	16363
911.718	16295
911.833	16093
911.947	16067
912.062	16006
912.176	16169
912.291	16177
912.405	16128
912.519	16295
912.633	16360
912.748	16200
912.862	16124
912.976	16006
913.09	15899
913.204	15926
913.318	16025
913.431	16093
913.545	16059
913.659	16036
913.772	15964
913.886	15808
914	15778
914.113	15816
914.226	15831
914.34	15747
914.453	15797
914.566	15842
914.68	15690
914.793	15641
914.906	15496
915.019	15428
915.132	15313
915.245	15416
915.358	15412
915.47	15428
915.583	15401
915.696	15332
915.809	15450
915.921	15492
916.034	15351
916.146	15272
916.259	15192
916.371	15439
916.483	15283
916.595	15211
916.708	15146
916.82	15131
916.932	15150
917.044	15195
917.156	15252
917.268	15119
917.38	14937
917.491	15024
917.603	14956
917.715	14967
917.826	15097
917.938	14956
918.049	14910
918.161	14994
918.272	15036
918.384	15127
918.495	15013
918.606	14739
918.717	14727
918.828	14849
918.939	14731
919.05	14724
919.161	14773
919.272	14674
919.383	14644
919.494	14788
919.604	14921
919.715	14804
919.826	14594
919.936	14743
920.047	14842
920.157	14648
920.267	14925
920.378	14705
920.488	14701
920.598	14952
920.708	15032
920.818	14918
920.928	14845
921.038	15017
921.148	14933
921.258	14701
921.368	14610
921.477	14495
921.587	14518
921.697	14317
921.806	14461
921.916	14434
922.025	14248
922.134	14107
922.244	14035
922.353	14164
922.462	14046
922.571	14001
922.68	13803
922.789	13803
922.898	13719
923.007	13677
923.116	13742
923.224	13719
923.333	13624
923.442	13567
923.55	13662
923.659	13605
923.767	13639
923.876	13510
923.984	13586
924.092	13514
924.201	13499
924.309	13521
924.417	13483
924.525	13460
924.633	13362
924.741	14336
924.849	13236
924.956	13289
925.064	13076
925.172	13126
925.279	13110
925.387	13171
925.494	13129
925.602	13293
925.709	13228
925.816	13053
925.924	13000
926.031	13179
926.138	13065
926.245	13126
926.352	12939
926.459	13042
926.566	13133
926.673	13042
926.779	12935
926.886	12802
926.993	12745
927.099	12779
927.206	12688
927.312	12639
927.419	12741
927.525	12703
927.631	12741
927.737	12521
927.843	12532
927.95	12418
928.056	12570
928.162	12525
928.267	12513
928.373	13103
928.479	12627
928.585	12323
928.69	12418
928.796	12502
928.901	12361
929.007	12220
929.112	12456
929.218	12292
929.323	12254
929.428	12277
929.533	12426
929.638	12273
929.743	12102
929.848	12273
929.953	12125
930.058	12022
930.163	11859
930.267	11866
930.372	12015
930.477	11882
930.581	12133
930.685	11920
930.79	11821
930.894	11809
930.998	11695
931.103	11923
931.207	11566
931.311	11452
931.415	11497
931.519	11216
931.623	11174
