Data from test_V78500241_307.txt Node
Date: Fri Mar 25 15:11:59 CST 2022
User: usil
Spectrometer: V785-0024
Trigger mode: 0
Integration Time (sec): 4.000000E-1
Scans to average: 1
Nonlinearity correction enabled: false
Boxcar width: 0
Storing dark spectrum: false
XAxis mode: Wavelengths
Number of Pixels in Spectrum: 1024
>>>>>Begin Spectral Data<<<<<
801.071	27363
801.214	27252
801.356	27081
801.499	27005
801.641	26906
801.783	26864
801.926	26994
802.068	26861
802.211	26925
802.353	26758
802.496	26526
802.638	26537
802.78	26636
802.923	26511
803.065	26362
803.208	26393
803.35	26568
803.492	26640
803.635	26461
803.777	26438
803.919	26564
804.061	27005
804.204	26788
804.346	26590
804.488	26488
804.63	26564
804.773	26415
804.915	26503
805.057	26807
805.199	26644
805.341	26758
805.483	26667
805.626	26667
805.768	26492
805.91	26632
806.052	26857
806.194	26617
806.336	26921
806.478	26648
806.62	26594
806.762	26819
806.904	26948
807.046	27241
807.188	27218
807.33	27104
807.472	27108
807.614	26925
807.756	26982
807.898	26906
808.04	26849
808.182	26940
808.324	26940
808.465	26899
808.607	27138
808.749	27142
808.891	27378
809.033	27458
809.174	27332
809.316	27351
809.458	27222
809.6	27237
809.741	27272
809.883	27378
810.025	27530
810.166	27424
810.308	27427
810.45	27485
810.591	27443
810.733	27256
810.875	27218
811.016	27150
811.158	27150
811.299	27203
811.441	27313
811.582	27321
811.724	27237
811.865	27119
812.007	27055
812.148	27169
812.29	27165
812.431	27302
812.573	27523
812.714	27701
812.855	27625
812.997	27778
813.138	28040
813.279	27819
813.421	27797
813.562	27641
813.703	27545
813.845	27424
813.986	27093
814.127	26971
814.268	26952
814.41	26872
814.551	26804
814.692	26906
814.833	26727
814.974	26834
815.115	26899
815.256	26583
815.397	26609
815.539	26617
815.68	26480
815.821	26609
815.962	26609
816.103	26663
816.244	26431
816.385	26404
816.526	26366
816.666	26259
816.807	26001
816.948	26138
817.089	26164
817.23	26210
817.371	26088
817.512	25909
817.653	26065
817.793	26024
817.934	26107
818.075	26084
818.216	25974
818.356	26077
818.497	25868
818.638	25670
818.778	25750
818.919	25704
819.06	25799
819.2	25845
819.341	26035
819.481	26039
819.622	26145
819.762	26385
819.903	26214
820.043	26263
820.184	26039
820.324	26027
820.465	26153
820.605	26115
820.746	26020
820.886	25913
821.026	25966
821.167	26039
821.307	26233
821.447	26031
821.588	25940
821.728	25734
821.868	25632
822.008	25438
822.149	25483
822.289	25453
822.429	25190
822.569	25217
822.709	24970
822.849	24970
822.99	24894
823.13	24810
823.27	24856
823.41	24715
823.55	24650
823.69	24665
823.83	24722
823.97	24768
824.11	24509
824.25	24528
824.389	24544
824.529	24738
824.669	24559
824.809	24726
824.949	24589
825.089	24612
825.228	24597
825.368	24467
825.508	24422
825.648	24353
825.787	24391
825.927	24403
826.067	24429
826.206	24395
826.346	24361
826.485	24315
826.625	24270
826.765	24441
826.904	24528
827.044	24159
827.183	24106
827.323	24095
827.462	24110
827.601	24201
827.741	24034
827.88	24057
828.02	24076
828.159	24136
828.298	24121
828.437	24110
828.577	23977
828.716	24228
828.855	23992
828.994	23775
829.134	23733
829.273	23878
829.412	23802
829.551	23646
829.69	23855
829.829	23836
829.968	23809
830.107	23901
830.246	23805
830.385	23756
830.524	23764
830.663	23535
830.802	23592
830.941	23482
831.08	23318
831.219	23478
831.357	23444
831.496	23585
831.635	23551
831.774	23417
831.913	23311
832.051	23258
832.19	23242
832.329	23105
832.467	23018
832.606	23064
832.744	23064
832.883	23102
833.022	23052
833.16	23083
833.299	23083
833.437	23079
833.576	23162
833.714	23136
833.852	23261
833.991	23128
834.129	23307
834.267	23124
834.406	23132
834.544	23094
834.682	23071
834.821	22980
834.959	23322
835.097	23018
835.235	23200
835.373	23003
835.511	23010
835.65	22946
835.788	22957
835.926	22816
836.064	22736
836.202	22771
836.34	23071
836.478	23014
836.615	22976
836.753	22953
836.891	23056
837.029	23060
837.167	22904
837.305	22854
837.443	22881
837.58	22881
837.718	22843
837.856	22812
837.993	22763
838.131	22740
838.269	22721
838.406	22660
838.544	22504
838.681	22413
838.819	22322
838.956	22249
839.094	22352
839.231	22405
839.369	22432
839.506	22611
839.643	22516
839.781	22291
839.918	22207
840.055	22226
840.193	22226
840.33	22173
840.467	22128
840.604	22074
840.742	22466
840.879	22192
841.016	22131
841.153	21987
841.29	22196
841.427	22177
841.564	22356
841.701	22162
841.838	22128
841.975	22093
842.112	22055
842.249	22025
842.385	21937
842.522	22036
842.659	21968
842.796	21926
842.933	21949
843.069	21888
843.206	21850
843.343	21998
843.479	22044
843.616	21918
843.752	21728
843.889	21770
844.025	21949
844.162	21675
844.298	21724
844.435	21713
844.571	21641
844.708	21679
844.844	21819
844.98	21949
845.117	21781
845.253	21580
845.389	21641
845.525	21534
845.661	21515
845.798	21420
845.934	21424
846.07	21363
846.206	21264
846.342	21500
846.478	21344
846.614	21249
846.75	21089
846.886	21089
847.022	21329
847.158	21199
847.294	21135
847.429	21188
847.565	21051
847.701	21420
847.837	20895
847.972	20842
848.108	20902
848.244	20956
848.379	20823
848.515	20598
848.65	20785
848.786	20663
848.921	20758
849.057	20838
849.192	20891
849.328	20743
849.463	20655
849.598	20613
849.734	20480
849.869	20613
850.004	20480
850.14	20552
850.275	20579
850.41	20446
850.545	20492
850.68	20446
850.815	20442
850.95	20412
851.085	20602
851.22	20678
851.355	20423
851.49	20419
851.625	20339
851.76	20412
851.895	20351
852.03	20290
852.165	20503
852.299	20507
852.434	20625
852.569	20530
852.703	20450
852.838	20511
852.973	20648
853.107	20533
853.242	20590
853.376	20282
853.511	20214
853.645	20252
853.78	20507
853.914	20317
854.048	20240
854.183	20259
854.317	20313
854.451	20415
854.585	20275
854.72	20286
854.854	20374
854.988	20218
855.122	20374
855.256	20164
855.39	20313
855.524	20408
855.658	20305
855.792	20244
855.926	20393
856.06	20336
856.194	20499
856.327	20320
856.461	20191
856.595	20263
856.729	20248
856.862	20400
856.996	20351
857.13	20309
857.263	20446
857.397	20412
857.53	20225
857.664	20286
857.797	20328
857.931	20381
858.064	20286
858.197	20309
858.331	20393
858.464	20240
858.597	20134
858.731	20305
858.864	20271
858.997	20237
859.13	20454
859.263	20290
859.396	20336
859.529	20142
859.662	20305
859.795	20161
859.928	20328
860.061	20419
860.194	20431
860.327	20347
860.46	20206
860.592	20396
860.725	20461
860.858	20446
860.99	20195
861.123	20202
861.256	20157
861.388	20263
861.521	20887
861.653	20256
861.786	20073
861.918	20107
862.05	20096
862.183	20259
862.315	20259
862.447	20332
862.58	20267
862.712	20073
862.844	20062
862.976	20176
863.108	20069
863.24	20450
863.372	19772
863.504	20020
863.636	20077
863.768	19951
863.9	20065
864.032	19932
864.164	19951
864.296	20020
864.428	20001
864.559	20035
864.691	20092
864.823	19982
864.954	19967
865.086	19906
865.217	19989
865.349	19837
865.48	19868
865.612	20016
865.743	20145
865.875	19902
866.006	19921
866.137	19928
866.269	19803
866.4	19864
866.531	19849
866.662	19670
866.793	19818
866.924	19830
867.055	19932
867.186	19753
867.317	19795
867.448	19753
867.579	19875
867.71	19788
867.841	19658
867.972	19856
868.103	19860
868.233	19928
868.364	19879
868.495	19936
868.625	20084
868.756	20214
868.886	19928
869.017	20046
869.147	20084
869.278	20183
869.408	20107
869.539	20020
869.669	20062
869.799	20069
869.929	20286
870.06	20115
870.19	20305
870.32	20252
870.45	20442
870.58	20309
870.71	20564
870.84	20568
870.97	20457
871.1	20381
871.23	20678
871.36	20754
871.489	20598
871.619	20708
871.749	20636
871.879	20819
872.008	20743
872.138	20670
872.267	20533
872.397	20522
872.526	20556
872.656	20594
872.785	20434
872.915	20602
873.044	20781
873.173	20739
873.303	20602
873.432	20883
873.561	20872
873.69	20640
873.819	20568
873.948	20811
874.077	20708
874.206	20659
874.335	20720
874.464	20891
874.593	21001
874.722	20785
874.851	20838
874.979	21039
875.108	20921
875.237	20849
875.365	20899
875.494	20982
875.623	20971
875.751	21028
875.88	20994
876.008	21074
876.136	21009
876.265	21336
876.393	21526
876.521	21351
876.65	21420
876.778	21313
876.906	21321
877.034	21195
877.162	21260
877.29	21310
877.418	21382
877.546	21310
877.674	21237
877.802	21260
877.93	21283
878.058	21226
878.185	21188
878.313	21226
878.441	21287
878.568	21154
878.696	21207
878.824	21351
878.951	21416
879.079	21538
879.206	21606
879.333	21500
879.461	21447
879.588	21469
879.715	21428
879.842	21564
879.97	21431
880.097	21233
880.224	21081
880.351	21195
880.478	21325
880.605	21123
880.732	21184
880.859	21355
880.986	21226
881.112	21146
881.239	21013
881.366	20921
881.493	20868
881.619	20689
881.746	20705
881.872	20716
881.999	20739
882.125	20845
882.252	20720
882.378	20731
882.505	20823
882.631	20571
882.757	20476
882.883	20552
883.01	20427
883.136	20412
883.262	20454
883.388	20347
883.514	20419
883.64	20358
883.766	20419
883.892	20240
884.018	20305
884.143	20511
884.269	20621
884.395	20233
884.52	20077
884.646	20126
884.772	20092
884.897	20164
885.023	20138
885.148	20164
885.274	20278
885.399	20240
885.524	20065
885.65	20199
885.775	20081
885.9	20126
886.025	20305
886.15	20172
886.275	20081
886.4	20065
886.525	20157
886.65	20035
886.775	20020
886.9	20202
887.025	20309
887.149	20092
887.274	19974
887.399	19864
887.523	19906
887.648	19814
887.773	19776
887.897	19982
888.021	19925
888.146	19860
888.27	19898
888.395	20024
888.519	19879
888.643	19925
888.767	19890
888.891	19727
889.015	19628
889.139	19742
889.263	19696
889.387	19731
889.511	19837
889.635	19830
889.759	19761
889.883	19674
890.006	19769
890.13	19788
890.254	19670
890.377	19582
890.501	19552
890.624	19403
890.748	19510
890.871	19381
890.995	19282
891.118	19244
891.241	19217
891.364	19232
891.488	19400
891.611	19316
891.734	19312
891.857	19297
891.98	19304
892.103	19327
892.226	19206
892.349	19240
892.471	19038
892.594	19114
892.717	19293
892.839	19148
892.962	19194
893.085	19225
893.207	19206
893.33	19114
893.452	19175
893.575	19259
893.697	19099
893.819	19285
893.941	19320
894.064	19373
894.186	19171
894.308	19168
894.43	19331
894.552	19422
894.674	19187
894.796	19091
894.918	19221
895.04	19175
895.161	19122
895.283	19156
895.405	19061
895.526	19236
895.648	19118
895.769	19278
895.891	19209
896.012	19316
896.134	19297
896.255	19289
896.376	19225
896.498	19221
896.619	19236
896.74	19225
896.861	19285
896.982	19548
897.103	19635
897.224	19548
897.345	19533
897.466	19422
897.587	19567
897.708	19670
897.828	19582
897.949	19460
898.07	19270
898.19	19464
898.311	19578
898.431	19392
898.552	19388
898.672	19438
898.792	19533
898.913	19411
899.033	19400
899.153	19187
899.273	19194
899.393	19129
899.513	19236
899.633	19259
899.753	19236
899.873	19225
899.993	19228
900.113	19232
900.232	19228
900.352	19099
900.472	19046
900.591	18996
900.711	19019
900.83	18886
900.95	19019
901.069	19198
901.189	18882
901.308	18661
901.427	18604
901.546	18544
901.665	18631
901.784	18483
901.904	18525
902.023	18361
902.141	18251
902.26	18110
902.379	18213
902.498	18117
902.617	18049
902.735	18182
902.854	18053
902.973	18011
903.091	17714
903.21	17805
903.328	17836
903.446	17714
903.565	17558
903.683	17573
903.801	17482
903.919	17554
904.038	17474
904.156	17406
904.274	17379
904.392	17372
904.51	17402
904.627	17349
904.745	17395
904.863	17421
904.981	17231
905.098	17006
905.216	17048
905.334	17155
905.451	17162
905.569	17128
905.686	17037
905.803	17045
905.921	16812
906.038	16946
906.155	16828
906.272	16752
906.389	16771
906.506	16687
906.623	16615
906.74	16618
906.857	16573
906.974	16516
907.091	16653
907.208	16729
907.324	16615
907.441	16592
907.557	16325
907.674	16417
907.79	16268
907.907	16257
908.023	16356
908.139	16348
908.256	16276
908.372	16211
908.488	16166
908.604	16105
908.72	15926
908.836	16093
908.952	15964
909.068	16032
909.184	16055
909.3	16101
909.415	16002
909.531	15987
909.647	15759
909.762	15671
909.878	15625
909.993	15717
910.108	15667
910.224	15747
910.339	15614
910.454	15553
910.57	15705
910.685	15534
910.8	15778
910.915	15709
911.03	15481
911.145	15382
911.259	15370
911.374	15249
911.489	15363
911.604	15279
911.718	15043
911.833	15055
911.947	15017
912.062	14952
912.176	15058
912.291	14990
912.405	15066
912.519	15237
912.633	15233
912.748	15077
912.862	15066
912.976	14872
913.09	14804
913.204	14823
913.318	14925
913.431	14960
913.545	14868
913.659	14937
913.772	14769
913.886	14644
914	14678
914.113	14785
914.226	14678
914.34	14785
914.453	14621
914.566	14716
914.68	14564
914.793	14610
914.906	14389
915.019	14267
915.132	14351
915.245	14210
915.358	14309
915.47	14476
915.583	14294
915.696	14370
915.809	14419
915.921	14427
916.034	14240
916.146	14195
916.259	14248
916.371	14301
916.483	14343
916.595	14069
916.708	14180
916.82	14218
916.932	14100
917.044	14115
917.156	14039
917.268	13959
917.38	14046
917.491	13955
917.603	13936
917.715	14176
917.826	14225
917.938	13909
918.049	13795
918.161	13963
918.272	14168
918.384	14065
918.495	13989
918.606	13803
918.717	13814
918.828	13776
918.939	13826
919.05	13685
919.161	13761
919.272	13613
919.383	13647
919.494	13700
919.604	14035
919.715	13837
919.826	13620
919.936	13689
920.047	13780
920.157	13753
920.267	13925
920.378	13788
920.488	13658
920.598	13982
920.708	14008
920.818	13974
920.928	13830
921.038	14016
921.148	13951
921.258	13693
921.368	13693
921.477	13460
921.587	13510
921.697	13415
921.806	13601
921.916	13449
922.025	13236
922.134	13255
922.244	13126
922.353	13133
922.462	13057
922.571	12989
922.68	12783
922.789	12779
922.898	12814
923.007	12726
923.116	12863
923.224	12779
923.333	12802
923.442	12677
923.55	12700
923.659	12662
923.767	12688
923.876	12540
923.984	12646
924.092	12517
924.201	12513
924.309	12578
924.417	12563
924.525	12494
924.633	12490
924.741	13240
924.849	12292
924.956	12490
925.064	12243
925.172	12266
925.279	12213
925.387	12277
925.494	12292
925.602	12414
925.709	12266
925.816	12190
925.924	12213
926.031	12353
926.138	12216
926.245	12213
926.352	12102
926.459	12292
926.566	12304
926.673	12220
926.779	12159
926.886	12057
926.993	11893
927.099	11939
927.206	11783
927.312	11798
927.419	11889
927.525	11885
927.631	11950
927.737	11767
927.843	11764
927.95	11570
928.056	11710
928.162	11691
928.267	11760
928.373	12388
928.479	11684
928.585	11528
928.69	11630
928.796	11627
928.901	11600
929.007	11379
929.112	11551
929.218	11509
929.323	11414
929.428	11406
929.533	11516
929.638	11341
929.743	11372
929.848	11387
929.953	11376
930.058	11216
930.163	11147
930.267	11140
930.372	11216
930.477	11075
930.581	11258
930.685	11162
930.79	11025
930.894	11075
930.998	11056
931.103	11105
931.207	10721
931.311	10725
931.415	10558
931.519	10459
931.623	10474
