Data from test_V78500241_1806.txt Node
Date: Fri Mar 25 15:22:25 CST 2022
User: usil
Spectrometer: V785-0024
Trigger mode: 0
Integration Time (sec): 4.000000E-1
Scans to average: 1
Nonlinearity correction enabled: false
Boxcar width: 0
Storing dark spectrum: false
XAxis mode: Wavelengths
Number of Pixels in Spectrum: 1024
>>>>>Begin Spectral Data<<<<<
801.071	27941
801.214	27709
801.356	27583
801.499	27568
801.641	27336
801.783	27321
801.926	27500
802.068	27348
802.211	27427
802.353	27291
802.496	27294
802.638	26952
802.78	27009
802.923	27013
803.065	27039
803.208	26925
803.35	27055
803.492	27116
803.635	27222
803.777	27127
803.919	27222
804.061	27561
804.204	27294
804.346	27237
804.488	27135
804.63	27291
804.773	27146
804.915	27310
805.057	27405
805.199	27165
805.341	27374
805.483	27469
805.626	27329
805.768	27355
805.91	27325
806.052	27363
806.194	27287
806.336	27515
806.478	27382
806.62	27386
806.762	27477
806.904	27629
807.046	27838
807.188	27743
807.33	27812
807.472	27899
807.614	27800
807.756	27682
807.898	27663
808.04	27641
808.182	27549
808.324	27675
808.465	27610
808.607	27926
808.749	28048
808.891	28101
809.033	28147
809.174	28010
809.316	28013
809.458	27937
809.6	27975
809.741	28093
809.883	28173
810.025	28226
810.166	28284
810.308	28280
810.45	28280
810.591	28177
810.733	28055
810.875	27945
811.016	27827
811.158	27930
811.299	27991
811.441	28166
811.582	28013
811.724	27964
811.865	27937
812.007	27975
812.148	27949
812.29	28078
812.431	28177
812.573	28322
812.714	28470
812.855	28459
812.997	28493
813.138	28611
813.279	28588
813.421	28348
813.562	28466
813.703	28356
813.845	28112
813.986	27949
814.127	27808
814.268	27762
814.41	27823
814.551	27591
814.692	27701
814.833	27755
814.974	27819
815.115	27660
815.256	27515
815.397	27667
815.539	27713
815.68	27454
815.821	27424
815.962	27610
816.103	27538
816.244	27431
816.385	27340
816.526	27230
816.666	27176
816.807	27096
816.948	26967
817.089	27222
817.23	27055
817.371	27001
817.512	26910
817.653	26815
817.793	26960
817.934	26960
818.075	26963
818.216	26986
818.356	26876
818.497	26785
818.638	26621
818.778	26667
818.919	26716
819.06	26914
819.2	26864
819.341	27005
819.481	27070
819.622	27066
819.762	27226
819.903	27245
820.043	27203
820.184	27116
820.324	27131
820.465	27218
820.605	27085
820.746	27047
820.886	26979
821.026	26929
821.167	27001
821.307	27100
821.447	26952
821.588	26857
821.728	26724
821.868	26640
822.008	26408
822.149	26511
822.289	26423
822.429	26202
822.569	26153
822.709	26119
822.849	25970
822.99	25970
823.13	25917
823.27	25860
823.41	25731
823.55	25601
823.69	25986
823.83	25795
823.97	25719
824.11	25616
824.25	25597
824.389	25632
824.529	25856
824.669	25514
824.809	25719
824.949	25639
825.089	25708
825.228	25856
825.368	25479
825.508	25479
825.648	25502
825.787	25438
825.927	25575
826.067	25594
826.206	25419
826.346	25525
826.485	25525
826.625	25487
826.765	25651
826.904	25556
827.044	25289
827.183	25304
827.323	25202
827.462	25187
827.601	25324
827.741	25107
827.88	25145
828.02	25190
828.159	25171
828.298	25198
828.437	25270
828.577	25107
828.716	25198
828.855	25122
828.994	25008
829.134	24844
829.273	25061
829.412	24875
829.551	24814
829.69	24935
829.829	24878
829.968	25004
830.107	24901
830.246	24871
830.385	24932
830.524	24726
830.663	24753
830.802	24688
830.941	24566
831.08	24437
831.219	24658
831.357	24658
831.496	24783
831.635	24486
831.774	24612
831.913	24380
832.051	24247
832.19	24422
832.329	24247
832.467	24323
832.606	24140
832.744	24125
832.883	24167
833.022	24167
833.16	24152
833.299	24216
833.437	24178
833.576	24254
833.714	24232
833.852	24399
833.991	24277
834.129	24380
834.267	24319
834.406	24247
834.544	24277
834.682	24281
834.821	24376
834.959	24467
835.097	24277
835.235	24304
835.373	24372
835.511	24270
835.65	24194
835.788	24125
835.926	23901
836.064	24079
836.202	24095
836.34	23980
836.478	24152
836.615	24072
836.753	24148
836.891	24243
837.029	24133
837.167	24045
837.305	24026
837.443	24003
837.58	24026
837.718	24022
837.856	24083
837.993	23874
838.131	23790
838.269	23927
838.406	23798
838.544	23779
838.681	23520
838.819	23691
838.956	23448
839.094	23448
839.231	23497
839.369	23680
839.506	23798
839.643	23756
839.781	23433
839.918	23455
840.055	23474
840.193	23414
840.33	23383
840.467	23315
840.604	23277
840.742	23665
840.879	23200
841.016	23303
841.153	23254
841.29	23448
841.427	23303
841.564	23379
841.701	23486
841.838	23368
841.975	23140
842.112	23223
842.249	23105
842.385	23060
842.522	23391
842.659	23181
842.796	23185
842.933	23181
843.069	23067
843.206	23060
843.343	23132
843.479	23242
843.616	23086
843.752	22923
843.889	22923
844.025	22999
844.162	22831
844.298	23029
844.435	22850
844.571	22858
844.708	23014
844.844	23079
844.98	23037
845.117	22972
845.253	22778
845.389	22649
845.525	22839
845.661	22717
845.798	22672
845.934	22759
846.07	22637
846.206	22588
846.342	22740
846.478	22687
846.614	22478
846.75	22348
846.886	22253
847.022	22455
847.158	22382
847.294	22363
847.429	22459
847.565	22295
847.701	22512
847.837	21994
847.972	22128
848.108	22154
848.244	22192
848.379	21899
848.515	21991
848.65	21926
848.786	21998
848.921	22025
849.057	22013
849.192	22029
849.328	22002
849.463	21880
849.598	21865
849.734	21873
849.869	21736
850.004	21770
850.14	21797
850.275	21717
850.41	21511
850.545	21652
850.68	21732
850.815	21633
850.95	21778
851.085	21850
851.22	21793
851.355	21793
851.49	21732
851.625	21656
851.76	21599
851.895	21606
852.03	21633
852.165	21751
852.299	21701
852.434	21701
852.569	21713
852.703	21652
852.838	21720
852.973	21869
853.107	21926
853.242	21652
853.376	21507
853.511	21485
853.645	21511
853.78	21564
853.914	21496
854.048	21530
854.183	21454
854.317	21530
854.451	21698
854.585	21610
854.72	21481
854.854	21595
854.988	21545
855.122	21507
855.256	21370
855.39	21348
855.524	21576
855.658	21568
855.792	21561
855.926	21564
856.06	21504
856.194	21614
856.327	21504
856.461	21431
856.595	21538
856.729	21656
856.862	21648
856.996	21469
857.13	21542
857.263	21667
857.397	21618
857.53	21576
857.664	21572
857.797	21515
857.931	21629
858.064	21652
858.197	21656
858.331	21511
858.464	21393
858.597	21435
858.731	21416
858.864	21526
858.997	21462
859.13	21610
859.263	21572
859.396	21644
859.529	21382
859.662	21458
859.795	21481
859.928	21439
860.061	21679
860.194	21717
860.327	21686
860.46	21595
860.592	21629
860.725	21739
860.858	21728
860.99	21576
861.123	21545
861.256	21504
861.388	21587
861.521	22063
861.653	21363
861.786	21313
861.918	21386
862.05	21447
862.183	21454
862.315	21477
862.447	21542
862.58	21549
862.712	21241
862.844	21180
862.976	21378
863.108	21279
863.24	21641
863.372	21287
863.504	21336
863.636	21195
863.768	21207
863.9	21252
864.032	21150
864.164	21207
864.296	21272
864.428	21275
864.559	21355
864.691	21241
864.823	21348
864.954	21291
865.086	21207
865.217	21146
865.349	21024
865.48	21043
865.612	21165
865.743	21192
865.875	21173
866.006	21089
866.137	21077
866.269	21135
866.4	21252
866.531	21077
866.662	21013
866.793	21100
866.924	21112
867.055	21093
867.186	21100
867.317	20952
867.448	21074
867.579	21032
867.71	20899
867.841	20941
867.972	20956
868.103	21077
868.233	21081
868.364	21036
868.495	21119
868.625	21256
868.756	21310
868.886	21230
869.017	21192
869.147	21416
869.278	21469
869.408	21294
869.539	21306
869.669	21336
869.799	21393
869.929	21348
870.06	21382
870.19	21523
870.32	21591
870.45	21713
870.58	21603
870.71	21804
870.84	21770
870.97	21641
871.1	21766
871.23	21934
871.36	21857
871.489	21812
871.619	21903
871.749	21895
871.879	21994
872.008	22036
872.138	21930
872.267	21964
872.397	21808
872.526	21679
872.656	21660
872.785	21728
872.915	21838
873.044	22021
873.173	21994
873.303	21903
873.432	21850
873.561	22044
873.69	21892
873.819	21987
873.948	21918
874.077	22044
874.206	21804
874.335	21915
874.464	22086
874.593	22147
874.722	22074
874.851	22128
874.979	22162
875.108	22185
875.237	22067
875.365	22055
875.494	22162
875.623	22268
875.751	22135
875.88	22181
876.008	22299
876.136	22455
876.265	22478
876.393	22668
876.521	22660
876.65	22653
876.778	22592
876.906	22573
877.034	22451
877.162	22485
877.29	22504
877.418	22622
877.546	22611
877.674	22447
877.802	22519
877.93	22493
878.058	22512
878.185	22382
878.313	22481
878.441	22546
878.568	22382
878.696	22470
878.824	22618
878.951	22516
879.079	22588
879.206	22938
879.333	22679
879.461	22584
879.588	22592
879.715	22656
879.842	22683
879.97	22634
880.097	22341
880.224	22421
880.351	22424
880.478	22402
880.605	22192
880.732	22337
880.859	22565
880.986	22280
881.112	22413
881.239	22196
881.366	22185
881.493	22093
881.619	22021
881.746	22002
881.872	21930
881.999	21869
882.125	21823
882.252	21869
882.378	21873
882.505	21975
882.631	21827
882.757	21667
882.883	21682
883.01	21709
883.136	21515
883.262	21519
883.388	21431
883.514	21580
883.64	21542
883.766	21492
883.892	21332
884.018	21511
884.143	21629
884.269	21686
884.395	21424
884.52	21188
884.646	21294
884.772	21119
884.897	21230
885.023	21272
885.148	21363
885.274	21370
885.399	21355
885.524	21279
885.65	21218
885.775	21154
885.9	21287
886.025	21340
886.15	21260
886.275	21252
886.4	21154
886.525	21241
886.65	21252
886.775	21188
886.9	21351
887.025	21462
887.149	21252
887.274	21100
887.399	21024
887.523	21055
887.648	21020
887.773	20960
887.897	21043
888.021	21039
888.146	20952
888.27	21161
888.395	21032
888.519	21154
888.643	21043
888.767	21017
888.891	20861
889.015	20804
889.139	20906
889.263	20765
889.387	20800
889.511	20876
889.635	20933
889.759	20807
889.883	20716
890.006	20800
890.13	20834
890.254	20659
890.377	20716
890.501	20583
890.624	20549
890.748	20625
890.871	20495
890.995	20476
891.118	20370
891.241	20518
891.364	20446
891.488	20587
891.611	20374
891.734	20400
891.857	20427
891.98	20408
892.103	20320
892.226	20396
892.349	20415
892.471	20161
892.594	20290
892.717	20271
892.839	20294
892.962	20309
893.085	20237
893.207	20282
893.33	20122
893.452	20252
893.575	20374
893.697	20168
893.819	20366
893.941	20446
894.064	20431
894.186	20119
894.308	20195
894.43	20454
894.552	20339
894.674	20385
894.796	20214
894.918	20275
895.04	20218
895.161	20343
895.283	20370
895.405	20294
895.526	20313
895.648	20256
895.769	20202
895.891	20290
896.012	20442
896.134	20370
896.255	20237
896.376	20191
896.498	20339
896.619	20206
896.74	20259
896.861	20305
896.982	20537
897.103	20678
897.224	20514
897.345	20552
897.466	20415
897.587	20518
897.708	20590
897.828	20530
897.949	20324
898.07	20328
898.19	20438
898.311	20484
898.431	20351
898.552	20537
898.672	20427
898.792	20621
898.913	20492
899.033	20457
899.153	20256
899.273	20202
899.393	20157
899.513	20229
899.633	20336
899.753	20248
899.873	20077
899.993	20286
900.113	20111
900.232	20172
900.352	20077
900.472	20107
900.591	19944
900.711	19951
900.83	19864
900.95	20096
901.069	20088
901.189	19940
901.308	19563
901.427	19521
901.546	19567
901.665	19613
901.784	19632
901.904	19499
902.023	19255
902.141	19190
902.26	18947
902.379	19175
902.498	19160
902.617	19053
902.735	19107
902.854	18993
902.973	18916
903.091	18783
903.21	18757
903.328	18734
903.446	18692
903.565	18471
903.683	18486
903.801	18422
903.919	18445
904.038	18623
904.156	18380
904.274	18490
904.392	18369
904.51	18311
904.627	18251
904.745	18395
904.863	18437
904.981	18186
905.098	18144
905.216	17992
905.334	18091
905.451	17973
905.569	17939
905.686	18148
905.803	17931
905.921	17824
906.038	17828
906.155	17897
906.272	17672
906.389	17596
906.506	17528
906.623	17562
906.74	17467
906.857	17448
906.974	17395
907.091	17649
907.208	17615
907.324	17611
907.441	17440
907.557	17303
907.674	17258
907.79	17155
907.907	17284
908.023	17166
908.139	17132
908.256	17189
908.372	17075
908.488	17143
908.604	16987
908.72	16987
908.836	16987
908.952	16976
909.068	16953
909.184	17136
909.3	16904
909.415	16938
909.531	16968
909.647	16611
909.762	16729
909.878	16580
909.993	16656
910.108	16660
910.224	16519
910.339	16660
910.454	16516
910.57	16504
910.685	16478
910.8	16729
910.915	16573
911.03	16413
911.145	16352
911.259	16143
911.374	16329
911.489	16181
911.604	16139
911.718	16135
911.833	15956
911.947	15956
912.062	15857
912.176	15922
912.291	16021
912.405	15956
912.519	16215
912.633	16173
912.748	16059
912.862	15987
912.976	15812
913.09	15724
913.204	15728
913.318	15781
913.431	15979
913.545	15964
913.659	15937
913.772	15785
913.886	15633
914	15641
914.113	15682
914.226	15698
914.34	15679
914.453	15538
914.566	15633
914.68	15466
914.793	15538
914.906	15306
915.019	15340
915.132	15252
915.245	15245
915.358	15146
915.47	15241
915.583	15192
915.696	15272
915.809	15298
915.921	15382
916.034	15188
916.146	15161
916.259	15161
916.371	15207
916.483	15154
916.595	15055
916.708	15047
916.82	15081
916.932	15085
917.044	14967
917.156	14899
917.268	14883
917.38	14849
917.491	14804
917.603	14925
917.715	15020
917.826	15013
917.938	14754
918.049	14724
918.161	14895
918.272	15005
918.384	14929
918.495	14849
918.606	14739
918.717	14610
918.828	14613
918.939	14674
919.05	14549
919.161	14594
919.272	14503
919.383	14560
919.494	14674
919.604	14792
919.715	14522
919.826	14518
919.936	14575
920.047	14613
920.157	14533
920.267	14762
920.378	14571
920.488	14503
920.598	14792
920.708	14967
920.818	14693
920.928	14724
921.038	14925
921.148	14868
921.258	14625
921.368	14480
921.477	14298
921.587	14317
921.697	14271
921.806	14252
921.916	14206
922.025	14008
922.134	14065
922.244	13963
922.353	13993
922.462	13837
922.571	13799
922.68	13772
922.789	13655
922.898	13624
923.007	13548
923.116	13609
923.224	13540
923.333	13544
923.442	13480
923.55	13453
923.659	13506
923.767	13510
923.876	13354
923.984	13476
924.092	13365
924.201	13381
924.309	13384
924.417	13377
924.525	13301
924.633	13244
924.741	14271
924.849	12962
924.956	13225
925.064	13061
925.172	13057
925.279	13004
925.387	13034
925.494	13069
925.602	13091
925.709	13023
925.816	12932
925.924	13031
926.031	13031
926.138	13023
926.245	12958
926.352	12913
926.459	12970
926.566	13053
926.673	12981
926.779	12810
926.886	12806
926.993	12642
927.099	12627
927.206	12555
927.312	12502
927.419	12658
927.525	12528
927.631	12604
927.737	12490
927.843	12494
927.95	12338
928.056	12410
928.162	12422
928.267	12471
928.373	13031
928.479	12471
928.585	12239
928.69	12319
928.796	12418
928.901	12296
929.007	12194
929.112	12254
929.218	12197
929.323	12178
929.428	12034
929.533	12270
929.638	12049
929.743	12095
929.848	12095
929.953	12060
930.058	11942
930.163	11767
930.267	11821
930.372	12026
930.477	11771
930.581	11980
930.685	11916
930.79	11722
930.894	11646
930.998	11688
931.103	11859
931.207	11455
931.311	11246
931.415	11341
931.519	11136
931.623	11143
