Data from test_V78500241_2241.txt Node
Date: Fri Mar 25 15:25:27 CST 2022
User: usil
Spectrometer: V785-0024
Trigger mode: 0
Integration Time (sec): 4.000000E-1
Scans to average: 1
Nonlinearity correction enabled: false
Boxcar width: 0
Storing dark spectrum: false
XAxis mode: Wavelengths
Number of Pixels in Spectrum: 1024
>>>>>Begin Spectral Data<<<<<
801.071	27854
801.214	27682
801.356	27397
801.499	27545
801.641	27389
801.783	27431
801.926	27329
802.068	27332
802.211	27287
802.353	27207
802.496	26986
802.638	27051
802.78	26918
802.923	27119
803.065	26952
803.208	27001
803.35	26994
803.492	27237
803.635	27116
803.777	27096
803.919	27116
804.061	27405
804.204	27214
804.346	27135
804.488	27150
804.63	27138
804.773	27138
804.915	27195
805.057	27332
805.199	27009
805.341	27313
805.483	27420
805.626	27351
805.768	27226
805.91	27313
806.052	27264
806.194	27096
806.336	27504
806.478	27306
806.62	27226
806.762	27306
806.904	27667
807.046	27922
807.188	27682
807.33	27637
807.472	27690
807.614	27789
807.756	27660
807.898	27682
808.04	27450
808.182	27652
808.324	27610
808.465	27580
808.607	27686
808.749	27888
808.891	28044
809.033	28166
809.174	28040
809.316	27850
809.458	27770
809.6	28025
809.741	27979
809.883	28116
810.025	28234
810.166	28169
810.308	28261
810.45	28181
810.591	28044
810.733	27934
810.875	27842
811.016	27899
811.158	27873
811.299	27953
811.441	28120
811.582	28086
811.724	27930
811.865	28025
812.007	27926
812.148	27987
812.29	27934
812.431	28063
812.573	28314
812.714	28303
812.855	28500
812.997	28713
813.138	28744
813.279	28516
813.421	28459
813.562	28382
813.703	28322
813.845	28112
813.986	27888
814.127	27759
814.268	27583
814.41	27701
814.551	27622
814.692	27751
814.833	27526
814.974	27481
815.115	27648
815.256	27469
815.397	27534
815.539	27481
815.68	27469
815.821	27367
815.962	27401
816.103	27355
816.244	27283
816.385	27226
816.526	27116
816.666	27032
816.807	26876
816.948	26933
817.089	26887
817.23	27024
817.371	26838
817.512	26899
817.653	26807
817.793	26857
817.934	26849
818.075	26796
818.216	26842
818.356	26876
818.497	26750
818.638	26568
818.778	26609
818.919	26609
819.06	26663
819.2	26796
819.341	26788
819.481	26895
819.622	26982
819.762	27138
819.903	27112
820.043	27001
820.184	27028
820.324	27013
820.465	27119
820.605	26948
820.746	27017
820.886	26880
821.026	26948
821.167	26845
821.307	27051
821.447	26891
821.588	26853
821.728	26678
821.868	26408
822.008	26286
822.149	26278
822.289	26450
822.429	25989
822.569	26031
822.709	26077
822.849	25860
822.99	25868
823.13	25822
823.27	25742
823.41	25681
823.55	25616
823.69	25712
823.83	25655
823.97	25556
824.11	25441
824.25	25377
824.389	25297
824.529	25525
824.669	25575
824.809	25734
824.949	25590
825.089	25476
825.228	25445
825.368	25464
825.508	25244
825.648	25419
825.787	25407
825.927	25381
826.067	25426
826.206	25453
826.346	25316
826.485	25354
826.625	25365
826.765	25396
826.904	25240
827.044	25103
827.183	25126
827.323	25069
827.462	25141
827.601	25141
827.741	24962
827.88	25012
828.02	24890
828.159	24943
828.298	25107
828.437	25019
828.577	24981
828.716	25095
828.855	24970
828.994	24654
829.134	24795
829.273	24783
829.412	24764
829.551	24673
829.69	24745
829.829	24760
829.968	24856
830.107	24768
830.246	24749
830.385	24730
830.524	24681
830.663	24627
830.802	24353
830.941	24346
831.08	24228
831.219	24456
831.357	24388
831.496	24566
831.635	24376
831.774	24353
831.913	24178
832.051	24190
832.19	24030
832.329	24186
832.467	24087
832.606	24022
832.744	24057
832.883	23984
833.022	24076
833.16	23996
833.299	24167
833.437	24171
833.576	24053
833.714	23988
833.852	24045
833.991	24098
834.129	24163
834.267	24174
834.406	24064
834.544	24102
834.682	24026
834.821	24087
834.959	24380
835.097	23885
835.235	24190
835.373	24133
835.511	24121
835.65	23958
835.788	23973
835.926	23760
836.064	23737
836.202	23733
836.34	23893
836.478	23980
836.615	23904
836.753	23977
836.891	23935
837.029	23912
837.167	23950
837.305	23771
837.443	23779
837.58	23752
837.718	23874
837.856	23836
837.993	23665
838.131	23653
838.269	23714
838.406	23718
838.544	23459
838.681	23383
838.819	23486
838.956	23269
839.094	23280
839.231	23311
839.369	23429
839.506	23585
839.643	23467
839.781	23216
839.918	23075
840.055	23231
840.193	23235
840.33	23197
840.467	23159
840.604	23140
840.742	23406
840.879	23022
841.016	23090
841.153	23022
841.29	23227
841.427	23121
841.564	23254
841.701	23067
841.838	23140
841.975	23056
842.112	23056
842.249	22987
842.385	22911
842.522	23105
842.659	22915
842.796	22915
842.933	22965
843.069	22809
843.206	22915
843.343	23052
843.479	22930
843.616	22976
843.752	22546
843.889	22698
844.025	22812
844.162	22645
844.298	22839
844.435	22527
844.571	22531
844.708	22664
844.844	22774
844.98	22748
845.117	22683
845.253	22713
845.389	22523
845.525	22527
845.661	22542
845.798	22432
845.934	22485
846.07	22322
846.206	22333
846.342	22519
846.478	22447
846.614	22169
846.75	22158
846.886	22207
847.022	22204
847.158	22230
847.294	22223
847.429	22280
847.565	22215
847.701	22390
847.837	21800
847.972	21838
848.108	21846
848.244	21960
848.379	21850
848.515	21686
848.65	21713
848.786	21705
848.921	21732
849.057	21857
849.192	21743
849.328	21778
849.463	21671
849.598	21637
849.734	21671
849.869	21637
850.004	21485
850.14	21488
850.275	21587
850.41	21401
850.545	21424
850.68	21443
850.815	21519
850.95	21458
851.085	21675
851.22	21599
851.355	21511
851.49	21504
851.625	21481
851.76	21431
851.895	21344
852.03	21344
852.165	21477
852.299	21378
852.434	21572
852.569	21447
852.703	21538
852.838	21557
852.973	21599
853.107	21545
853.242	21405
853.376	21283
853.511	21256
853.645	21359
853.78	21378
853.914	21291
854.048	21268
854.183	21351
854.317	21405
854.451	21473
854.585	21367
854.72	21241
854.854	21431
854.988	21317
855.122	21424
855.256	21252
855.39	21370
855.524	21340
855.658	21408
855.792	21431
855.926	21279
856.06	21272
856.194	21359
856.327	21260
856.461	21203
856.595	21310
856.729	21374
856.862	21454
856.996	21397
857.13	21401
857.263	21355
857.397	21428
857.53	21195
857.664	21294
857.797	21443
857.931	21397
858.064	21325
858.197	21302
858.331	21386
858.464	21279
858.597	21233
858.731	21180
858.864	21256
858.997	21355
859.13	21359
859.263	21389
859.396	21485
859.529	21287
859.662	21184
859.795	21245
859.928	21287
860.061	21507
860.194	21488
860.327	21351
860.46	21226
860.592	21424
860.725	21382
860.858	21386
860.99	21325
861.123	21252
861.256	21256
861.388	21329
861.521	22070
861.653	21169
861.786	21135
861.918	21165
862.05	21180
862.183	21272
862.315	21249
862.447	21214
862.58	21192
862.712	20979
862.844	21013
862.976	21119
863.108	21131
863.24	21428
863.372	20887
863.504	21066
863.636	20979
863.768	20952
863.9	20895
864.032	21047
864.164	20948
864.296	21017
864.428	21108
864.559	21074
864.691	21116
864.823	21032
864.954	21028
865.086	20998
865.217	20956
865.349	20967
865.48	20910
865.612	20933
865.743	21096
865.875	20880
866.006	20716
866.137	20921
866.269	20845
866.4	20861
866.531	20933
866.662	20769
866.793	20842
866.924	20842
867.055	20792
867.186	20792
867.317	20895
867.448	20739
867.579	20727
867.71	20644
867.841	20727
867.972	20960
868.103	20842
868.233	20895
868.364	20823
868.495	20838
868.625	21104
868.756	21157
868.886	21020
869.017	21089
869.147	21241
869.278	21180
869.408	20952
869.539	21142
869.669	21192
869.799	21131
869.929	21233
870.06	21104
870.19	21332
870.32	21291
870.45	21382
870.58	21477
870.71	21523
870.84	21431
870.97	21367
871.1	21492
871.23	21618
871.36	21614
871.489	21504
871.619	21709
871.749	21622
871.879	21682
872.008	21774
872.138	21724
872.267	21572
872.397	21580
872.526	21416
872.656	21568
872.785	21538
872.915	21781
873.044	21816
873.173	21728
873.303	21663
873.432	21648
873.561	21736
873.69	21835
873.819	21705
873.948	21720
874.077	21705
874.206	21591
874.335	21629
874.464	21739
874.593	21998
874.722	21873
874.851	21953
874.979	21903
875.108	21895
875.237	21739
875.365	21861
875.494	21823
875.623	21994
875.751	21865
875.88	21892
876.008	22010
876.136	22116
876.265	22413
876.393	22413
876.521	22303
876.65	22443
876.778	22173
876.906	22268
877.034	22249
877.162	22265
877.29	22287
877.418	22333
877.546	22367
877.674	22177
877.802	22268
877.93	22200
878.058	22207
878.185	22196
878.313	22093
878.441	22143
878.568	22204
878.696	22257
878.824	22318
878.951	22447
879.079	22360
879.206	22481
879.333	22398
879.461	22360
879.588	22276
879.715	22337
879.842	22744
879.97	22455
880.097	22086
880.224	22131
880.351	22067
880.478	22253
880.605	22090
880.732	22082
880.859	22402
880.986	22112
881.112	22059
881.239	21869
881.366	21899
881.493	21694
881.619	21717
881.746	21709
881.872	21759
881.999	21507
882.125	21667
882.252	21675
882.378	21595
882.505	21701
882.631	21526
882.757	21428
882.883	21428
883.01	21469
883.136	21428
883.262	21112
883.388	21275
883.514	21405
883.64	21378
883.766	21325
883.892	21096
884.018	21264
884.143	21355
884.269	21462
884.395	21211
884.52	21036
884.646	21104
884.772	21039
884.897	21020
885.023	21104
885.148	21047
885.274	21142
885.399	21100
885.524	21085
885.65	21081
885.775	20948
885.9	20998
886.025	21112
886.15	21089
886.275	21009
886.4	20880
886.525	20906
886.65	20990
886.775	21024
886.9	21127
887.025	21127
887.149	20967
887.274	20785
887.399	20777
887.523	20891
887.648	20648
887.773	20613
887.897	20758
888.021	20765
888.146	20754
888.27	20788
888.395	20834
888.519	20880
888.643	20910
888.767	20670
888.891	20750
889.015	20450
889.139	20659
889.263	20571
889.387	20716
889.511	20792
889.635	20663
889.759	20556
889.883	20625
890.006	20625
890.13	20746
890.254	20594
890.377	20564
890.501	20233
890.624	20332
890.748	20286
890.871	20240
890.995	20130
891.118	20058
891.241	20077
891.364	20157
891.488	20206
891.611	20202
891.734	20122
891.857	20134
891.98	20115
892.103	20168
892.226	20130
892.349	19978
892.471	20054
892.594	19989
892.717	20100
892.839	19993
892.962	20092
893.085	20081
893.207	20107
893.33	19974
893.452	19997
893.575	20062
893.697	20008
893.819	20233
893.941	20180
894.064	20088
894.186	20020
894.308	20043
894.43	20054
894.552	20218
894.674	20046
894.796	19982
894.918	20130
895.04	19959
895.161	20035
895.283	20225
895.405	20081
895.526	20058
895.648	20084
895.769	19963
895.891	20058
896.012	20130
896.134	20119
896.255	20107
896.376	20088
896.498	20157
896.619	20077
896.74	20008
896.861	20142
896.982	20393
897.103	20537
897.224	20358
897.345	20328
897.466	20202
897.587	20358
897.708	20309
897.828	20347
897.949	20267
898.07	20062
898.19	20218
898.311	20377
898.431	20168
898.552	20347
898.672	20305
898.792	20419
898.913	20282
899.033	20187
899.153	20191
899.273	20062
899.393	20172
899.513	20138
899.633	20111
899.753	20119
899.873	20069
899.993	20077
900.113	20065
900.232	20020
900.352	20001
900.472	19875
900.591	19849
900.711	19818
900.83	19818
900.95	19841
901.069	19860
901.189	19849
901.308	19487
901.427	19453
901.546	19396
901.665	19548
901.784	19491
901.904	19308
902.023	19118
902.141	19000
902.26	18966
902.379	19107
902.498	18989
902.617	18973
902.735	19076
902.854	18890
902.973	18768
903.091	18623
903.21	18563
903.328	18646
903.446	18486
903.565	18376
903.683	18429
903.801	18228
903.919	18194
904.038	18433
904.156	18155
904.274	18266
904.392	18159
904.51	18232
904.627	18140
904.745	18209
904.863	18243
904.981	17904
905.098	17950
905.216	17832
905.334	17866
905.451	17832
905.569	17840
905.686	17828
905.803	17786
905.921	17577
906.038	17813
906.155	17630
906.272	17577
906.389	17547
906.506	17341
906.623	17414
906.74	17376
906.857	17216
906.974	17284
907.091	17452
907.208	17516
907.324	17429
907.441	17269
907.557	17220
907.674	17045
907.79	17029
907.907	17098
908.023	17147
908.139	17045
908.256	17102
908.372	17037
908.488	17022
908.604	16843
908.72	16793
908.836	16869
908.952	16847
909.068	16854
909.184	16900
909.3	16835
909.415	16752
909.531	16797
909.647	16622
909.762	16531
909.878	16493
909.993	16489
910.108	16478
910.224	16485
910.339	16341
910.454	16447
910.57	16291
910.685	16322
910.8	16516
910.915	16447
911.03	16310
911.145	16169
911.259	16109
911.374	16143
911.489	16086
911.604	16063
911.718	15880
911.833	15846
911.947	15797
912.062	15686
912.176	15816
912.291	15873
912.405	15816
912.519	15991
912.633	16002
912.748	15895
912.862	15831
912.976	15652
913.09	15545
913.204	15648
913.318	15667
913.431	15720
913.545	15762
913.659	15816
913.772	15652
913.886	15534
914	15462
914.113	15542
914.226	15682
914.34	15603
914.453	15367
914.566	15481
914.68	15477
914.793	15317
914.906	15104
915.019	15199
915.132	15017
915.245	15070
915.358	15161
915.47	15081
915.583	15028
915.696	15058
915.809	15180
915.921	15233
916.034	15032
916.146	14941
916.259	14941
916.371	15085
916.483	15017
916.595	14921
916.708	14979
916.82	14986
916.932	14861
917.044	14819
917.156	14838
917.268	14689
917.38	14788
917.491	14758
917.603	14762
917.715	14891
917.826	14864
917.938	14636
918.049	14640
918.161	14682
918.272	14796
918.384	14796
918.495	14648
918.606	14461
918.717	14545
918.828	14473
918.939	14545
919.05	14381
919.161	14480
919.272	14259
919.383	14351
919.494	14488
919.604	14720
919.715	14511
919.826	14431
919.936	14366
920.047	14488
920.157	14442
920.267	14636
920.378	14465
920.488	14408
920.598	14674
920.708	14762
920.818	14598
920.928	14530
921.038	14800
921.148	14735
921.258	14514
921.368	14366
921.477	14244
921.587	14225
921.697	14073
921.806	14191
921.916	14054
922.025	13875
922.134	13883
922.244	13780
922.353	13860
922.462	13582
922.571	13700
922.68	13544
922.789	13453
922.898	13582
923.007	13411
923.116	13499
923.224	13476
923.333	13510
923.442	13350
923.55	13331
923.659	13419
923.767	13407
923.876	13251
923.984	13369
924.092	13255
924.201	13232
924.309	13179
924.417	13183
924.525	13168
924.633	13175
924.741	13883
924.849	12897
924.956	13110
925.064	13004
925.172	12913
925.279	12787
925.387	12859
925.494	12928
925.602	13053
925.709	12875
925.816	12795
925.924	12856
926.031	13023
926.138	12840
926.245	12905
926.352	12757
926.459	12924
926.566	12897
926.673	12730
926.779	12616
926.886	12639
926.993	12471
927.099	12433
927.206	12483
927.312	12448
927.419	12582
927.525	12467
927.631	12540
927.737	12304
927.843	12304
927.95	12228
928.056	12323
928.162	12277
928.267	12342
928.373	12951
928.479	12369
928.585	12163
928.69	12209
928.796	12254
928.901	12194
929.007	12015
929.112	12091
929.218	12098
929.323	11961
929.428	11984
929.533	12144
929.638	11969
929.743	12007
929.848	12007
929.953	11969
930.058	11874
930.163	11646
930.267	11699
930.372	11821
930.477	11642
930.581	11961
930.685	11790
930.79	11573
930.894	11558
930.998	11562
931.103	11726
931.207	11376
931.311	11280
931.415	11151
931.519	11071
931.623	11003
