Data from test_V78500241_74.txt Node
Date: Fri Mar 25 15:10:22 CST 2022
User: usil
Spectrometer: V785-0024
Trigger mode: 0
Integration Time (sec): 4.000000E-1
Scans to average: 1
Nonlinearity correction enabled: false
Boxcar width: 0
Storing dark spectrum: false
XAxis mode: Wavelengths
Number of Pixels in Spectrum: 1024
>>>>>Begin Spectral Data<<<<<
801.071	28561
801.214	28645
801.356	28421
801.499	28303
801.641	28044
801.783	28116
801.926	28204
802.068	28078
802.211	27827
802.353	28013
802.496	27793
802.638	27682
802.78	27660
802.923	27576
803.065	27633
803.208	27618
803.35	27591
803.492	27713
803.635	27880
803.777	27857
803.919	27899
804.061	28090
804.204	27857
804.346	27679
804.488	27663
804.63	27728
804.773	27644
804.915	27842
805.057	28067
805.199	27682
805.341	27774
805.483	27914
805.626	27789
805.768	27759
805.91	27838
806.052	28059
806.194	27633
806.336	28067
806.478	27926
806.62	27861
806.762	27846
806.904	28010
807.046	28405
807.188	28211
807.33	28242
807.472	28173
807.614	28025
807.756	28120
807.898	28006
808.04	28070
808.182	27857
808.324	27979
808.465	27934
808.607	28101
808.749	28253
808.891	28508
809.033	28481
809.174	28272
809.316	28360
809.458	28367
809.6	28219
809.741	28432
809.883	28443
810.025	28580
810.166	28512
810.308	28660
810.45	28413
810.591	28527
810.733	28306
810.875	28185
811.016	28185
811.158	28181
811.299	28284
811.441	28428
811.582	28523
811.724	28272
811.865	28166
812.007	28299
812.148	28310
812.29	28375
812.431	28375
812.573	28542
812.714	28660
812.855	28873
812.997	28911
813.138	28938
813.279	28828
813.421	28771
813.562	28767
813.703	28596
813.845	28401
813.986	28246
814.127	28017
814.268	27804
814.41	27880
814.551	27846
814.692	27991
814.833	27899
814.974	27873
815.115	27888
815.256	27667
815.397	27778
815.539	27648
815.68	27633
815.821	27591
815.962	27629
816.103	27633
816.244	27553
816.385	27378
816.526	27287
816.666	27104
816.807	26967
816.948	27051
817.089	27256
817.23	26994
817.371	27005
817.512	27039
817.653	26960
817.793	26948
817.934	26933
818.075	27017
818.216	27013
818.356	26956
818.497	26872
818.638	26883
818.778	26739
818.919	26632
819.06	26800
819.2	26857
819.341	26834
819.481	26834
819.622	27020
819.762	27180
819.903	27169
820.043	26982
820.184	26914
820.324	27089
820.465	27112
820.605	27051
820.746	27017
820.886	26811
821.026	26944
821.167	27028
821.307	26994
821.447	26929
821.588	26811
821.728	26564
821.868	26415
822.008	26370
822.149	26537
822.289	26389
822.429	26062
822.569	26020
822.709	26039
822.849	25928
822.99	25693
823.13	25788
823.27	25700
823.41	25647
823.55	25632
823.69	25666
823.83	25601
823.97	25483
824.11	25240
824.25	25441
824.389	25312
824.529	25514
824.669	25381
824.809	25529
824.949	25407
825.089	25476
825.228	25540
825.368	25126
825.508	25171
825.648	25232
825.787	25206
825.927	25373
826.067	25114
826.206	25148
826.346	25171
826.485	25145
826.625	25129
826.765	25308
826.904	25152
827.044	24920
827.183	24901
827.323	24764
827.462	24882
827.601	24848
827.741	24833
827.88	24867
828.02	24749
828.159	24905
828.298	24783
828.437	24776
828.577	24795
828.716	24848
828.855	24791
828.994	24570
829.134	24414
829.273	24635
829.412	24384
829.551	24490
829.69	24388
829.829	24642
829.968	24559
830.107	24559
830.246	24502
830.385	24513
830.524	24311
830.663	24292
830.802	24205
830.941	24148
831.08	24049
831.219	24190
831.357	24186
831.496	24197
831.635	24057
831.774	24018
831.913	23828
832.051	23794
832.19	23882
832.329	23870
832.467	23741
832.606	23634
832.744	23585
832.883	23653
833.022	23741
833.16	23520
833.299	23665
833.437	23733
833.576	23889
833.714	23767
833.852	23745
833.991	23691
834.129	23832
834.267	23687
834.406	23672
834.544	23707
834.682	23764
834.821	23684
834.959	23764
835.097	23665
835.235	23634
835.373	23680
835.511	23543
835.65	23509
835.788	23471
835.926	23429
836.064	23345
836.202	23311
836.34	23474
836.478	23695
836.615	23429
836.753	23566
836.891	23573
837.029	23547
837.167	23505
837.305	23493
837.443	23490
837.58	23284
837.718	23516
837.856	23383
837.993	23265
838.131	23280
838.269	23273
838.406	23204
838.544	23079
838.681	22968
838.819	22873
838.956	22892
839.094	22679
839.231	22873
839.369	22995
839.506	23242
839.643	23060
839.781	22767
839.918	22702
840.055	22721
840.193	22706
840.33	22626
840.467	22694
840.604	22649
840.742	22869
840.879	22504
841.016	22519
841.153	22584
841.29	22679
841.427	22580
841.564	22717
841.701	22592
841.838	22672
841.975	22531
842.112	22493
842.249	22348
842.385	22325
842.522	22626
842.659	22363
842.796	22405
842.933	22379
843.069	22303
843.206	22303
843.343	22360
843.479	22318
843.616	22333
843.752	22158
843.889	21991
844.025	22139
844.162	22067
844.298	22223
844.435	22074
844.571	22131
844.708	22029
844.844	22105
844.98	22253
845.117	22040
845.253	22021
845.389	21880
845.525	21930
845.661	21819
845.798	21701
845.934	21827
846.07	21850
846.206	21854
846.342	21915
846.478	21842
846.614	21599
846.75	21428
846.886	21504
847.022	21603
847.158	21416
847.294	21587
847.429	21614
847.565	21386
847.701	21770
847.837	21195
847.972	21142
848.108	21291
848.244	21351
848.379	21161
848.515	21005
848.65	21009
848.786	21074
848.921	21066
849.057	21085
849.192	21176
849.328	21028
849.463	21131
849.598	20933
849.734	21005
849.869	20883
850.004	20963
850.14	20895
850.275	20823
850.41	20754
850.545	20739
850.68	20754
850.815	20872
850.95	20708
851.085	20887
851.22	20864
851.355	20800
851.49	20815
851.625	20746
851.76	20727
851.895	20735
852.03	20727
852.165	20735
852.299	20807
852.434	20781
852.569	20914
852.703	20902
852.838	20834
852.973	20979
853.107	20899
853.242	20716
853.376	20636
853.511	20522
853.645	20617
853.78	20712
853.914	20636
854.048	20541
854.183	20541
854.317	20598
854.451	20845
854.585	20499
854.72	20518
854.854	20693
854.988	20511
855.122	20617
855.256	20488
855.39	20545
855.524	20640
855.658	20621
855.792	20522
855.926	20556
856.06	20735
856.194	20705
856.327	20617
856.461	20442
856.595	20621
856.729	20545
856.862	20602
856.996	20708
857.13	20670
857.263	20670
857.397	20674
857.53	20492
857.664	20549
857.797	20670
857.931	20560
858.064	20530
858.197	20655
858.331	20560
858.464	20385
858.597	20332
858.731	20492
858.864	20465
858.997	20503
859.13	20533
859.263	20564
859.396	20651
859.529	20488
859.662	20492
859.795	20434
859.928	20492
860.061	20598
860.194	20617
860.327	20465
860.46	20507
860.592	20583
860.725	20625
860.858	20552
860.99	20454
861.123	20339
861.256	20518
861.388	20492
861.521	21047
861.653	20374
861.786	20332
861.918	20396
862.05	20461
862.183	20480
862.315	20571
862.447	20545
862.58	20587
862.712	20305
862.844	20233
862.976	20351
863.108	20282
863.24	20708
863.372	20073
863.504	20240
863.636	20202
863.768	20275
863.9	20202
864.032	20214
864.164	20172
864.296	20142
864.428	20214
864.559	20389
864.691	20206
864.823	20111
864.954	20195
865.086	20134
865.217	20157
865.349	20153
865.48	20008
865.612	20122
865.743	20214
865.875	20191
866.006	20100
866.137	20187
866.269	20050
866.4	20126
866.531	20077
866.662	19986
866.793	20027
866.924	20035
867.055	20130
867.186	19982
867.317	20058
867.448	19864
867.579	19932
867.71	19845
867.841	20077
867.972	20027
868.103	20081
868.233	20031
868.364	19974
868.495	20145
868.625	20206
868.756	20343
868.886	20115
869.017	20305
869.147	20419
869.278	20427
869.408	20339
869.539	20347
869.669	20351
869.799	20210
869.929	20457
870.06	20393
870.19	20579
870.32	20659
870.45	20575
870.58	20758
870.71	20651
870.84	20743
870.97	20705
871.1	20564
871.23	20921
871.36	20788
871.489	20712
871.619	20796
871.749	20849
871.879	20929
872.008	20902
872.138	20876
872.267	20910
872.397	20716
872.526	20632
872.656	20670
872.785	20632
872.915	20830
873.044	20834
873.173	20842
873.303	20902
873.432	20982
873.561	20948
873.69	20853
873.819	20883
873.948	20925
874.077	20906
874.206	20887
874.335	21005
874.464	21047
874.593	21108
874.722	21039
874.851	21207
874.979	21195
875.108	21195
875.237	21013
875.365	21161
875.494	21127
875.623	21165
875.751	21058
875.88	21207
876.008	21211
876.136	21306
876.265	21492
876.393	21606
876.521	21701
876.65	21553
876.778	21466
876.906	21481
877.034	21431
877.162	21469
877.29	21374
877.418	21591
877.546	21431
877.674	21511
877.802	21481
877.93	21519
878.058	21507
878.185	21272
878.313	21401
878.441	21481
878.568	21268
878.696	21393
878.824	21595
878.951	21401
879.079	21656
879.206	21831
879.333	21637
879.461	21549
879.588	21679
879.715	21580
879.842	21743
879.97	21492
880.097	21363
880.224	21321
880.351	21302
880.478	21306
880.605	21256
880.732	21252
880.859	21523
880.986	21264
881.112	21294
881.239	21211
881.366	21001
881.493	20963
881.619	20811
881.746	20918
881.872	20906
881.999	20895
882.125	20857
882.252	20948
882.378	20861
882.505	21036
882.631	20807
882.757	20712
882.883	20716
883.01	20686
883.136	20552
883.262	20484
883.388	20450
883.514	20674
883.64	20754
883.766	20640
883.892	20393
884.018	20537
884.143	20590
884.269	20659
884.395	20393
884.52	20351
884.646	20336
884.772	20313
884.897	20157
885.023	20336
885.148	20396
885.274	20438
885.399	20381
885.524	20336
885.65	20233
885.775	20294
885.9	20313
886.025	20286
886.15	20282
886.275	20195
886.4	20225
886.525	20202
886.65	20180
886.775	20092
886.9	20301
887.025	20492
887.149	20286
887.274	20043
887.399	20046
887.523	20073
887.648	20012
887.773	20062
887.897	20035
888.021	20092
888.146	19890
888.27	20058
888.395	20153
888.519	20039
888.643	20065
888.767	19963
888.891	19837
889.015	19883
889.139	19921
889.263	19890
889.387	19967
889.511	20077
889.635	19887
889.759	19841
889.883	19715
890.006	19856
890.13	19967
890.254	19670
890.377	19643
890.501	19601
890.624	19487
890.748	19548
890.871	19358
890.995	19460
891.118	19206
891.241	19426
891.364	19415
891.488	19586
891.611	19392
891.734	19415
891.857	19518
891.98	19362
892.103	19354
892.226	19453
892.349	19274
892.471	19278
892.594	19331
892.717	19358
892.839	19301
892.962	19320
893.085	19438
893.207	19373
893.33	19221
893.452	19259
893.575	19335
893.697	19289
893.819	19499
893.941	19495
894.064	19453
894.186	19213
894.308	19088
894.43	19400
894.552	19426
894.674	19350
894.796	19289
894.918	19362
895.04	19339
895.161	19301
895.283	19472
895.405	19263
895.526	19274
895.648	19274
895.769	19426
895.891	19285
896.012	19426
896.134	19266
896.255	19445
896.376	19274
896.498	19362
896.619	19521
896.74	19263
896.861	19464
896.982	19738
897.103	19868
897.224	19647
897.345	19495
897.466	19529
897.587	19578
897.708	19681
897.828	19590
897.949	19537
898.07	19377
898.19	19453
898.311	19658
898.431	19529
898.552	19601
898.672	19620
898.792	19708
898.913	19689
899.033	19392
899.153	19327
899.273	19247
899.393	19251
899.513	19331
899.633	19263
899.753	19236
899.873	19278
899.993	19213
900.113	19168
900.232	19213
900.352	19133
900.472	19114
900.591	18909
900.711	19164
900.83	19091
900.95	19152
901.069	19255
901.189	19004
901.308	18681
901.427	18741
901.546	18779
901.665	18703
901.784	18806
901.904	18513
902.023	18494
902.141	18163
902.26	18148
902.379	18262
902.498	18235
902.617	18140
902.735	18129
902.854	18224
902.973	18087
903.091	17851
903.21	17859
903.328	17821
903.446	17691
903.565	17703
903.683	17748
903.801	17642
903.919	17661
904.038	17684
904.156	17398
904.274	17558
904.392	17414
904.51	17433
904.627	17376
904.745	17474
904.863	17512
904.981	17254
905.098	17132
905.216	17162
905.334	17102
905.451	17124
905.569	17170
905.686	17098
905.803	17003
905.921	16869
906.038	17064
906.155	16885
906.272	16771
906.389	16809
906.506	16596
906.623	16771
906.74	16694
906.857	16512
906.974	16622
907.091	16584
907.208	16744
907.324	16634
907.441	16653
907.557	16390
907.674	16379
907.79	16265
907.907	16223
908.023	16352
908.139	16329
908.256	16306
908.372	16192
908.488	16169
908.604	16112
908.72	15899
908.836	16067
908.952	16017
909.068	16071
909.184	16025
909.3	15930
909.415	16040
909.531	16040
909.647	15850
909.762	15720
909.878	15663
909.993	15682
910.108	15610
910.224	15633
910.339	15736
910.454	15561
910.57	15545
910.685	15397
910.8	15701
910.915	15717
911.03	15473
911.145	15329
911.259	15393
911.374	15348
911.489	15245
911.604	15192
911.718	15119
911.833	15097
911.947	14910
912.062	14929
912.176	15089
912.291	15028
912.405	14910
912.519	15100
912.633	15207
912.748	15013
912.862	15005
912.976	14937
913.09	14754
913.204	14830
913.318	14929
913.431	14941
913.545	14918
913.659	14967
913.772	14883
913.886	14667
914	14739
914.113	14826
914.226	14830
914.34	14788
914.453	14632
914.566	14864
914.68	14568
914.793	14606
914.906	14320
915.019	14336
915.132	14393
915.245	14324
915.358	14336
915.47	14320
915.583	14343
915.696	14339
915.809	14400
915.921	14454
916.034	14294
916.146	14225
916.259	14191
916.371	14237
916.483	14294
916.595	14142
916.708	14119
916.82	14210
916.932	14115
917.044	14161
917.156	14081
917.268	14008
917.38	14096
917.491	13986
917.603	14069
917.715	13978
917.826	14130
917.938	13913
918.049	13864
918.161	14077
918.272	14073
918.384	14054
918.495	13887
918.606	13871
918.717	13750
918.828	13795
918.939	13799
919.05	13647
919.161	13734
919.272	13518
919.383	13636
919.494	13677
919.604	13890
919.715	13788
919.826	13567
919.936	13765
920.047	13746
920.157	13712
920.267	13906
920.378	13769
920.488	13677
920.598	13906
920.708	13982
920.818	13841
920.928	13879
921.038	14084
921.148	13921
921.258	13632
921.368	13628
921.477	13419
921.587	13476
921.697	13346
921.806	13445
921.916	13316
922.025	13213
922.134	13107
922.244	13088
922.353	13152
922.462	13008
922.571	12916
922.68	12821
922.789	12738
922.898	12779
923.007	12673
923.116	12700
923.224	12722
923.333	12738
923.442	12559
923.55	12589
923.659	12601
923.767	12627
923.876	12604
923.984	12608
924.092	12479
924.201	12589
924.309	12467
924.417	12509
924.525	12437
924.633	12547
924.741	13240
924.849	12319
924.956	12437
925.064	12296
925.172	12194
925.279	12110
925.387	12315
925.494	12182
925.602	12357
925.709	12285
925.816	12197
925.924	12243
926.031	12365
926.138	12201
926.245	12159
926.352	12171
926.459	12209
926.566	12304
926.673	12053
926.779	11961
926.886	12045
926.993	11885
927.099	11824
927.206	11760
927.312	11809
927.419	11916
927.525	11904
927.631	11847
927.737	11752
927.843	11695
927.95	11562
928.056	11642
928.162	11703
928.267	11741
928.373	12216
928.479	11813
928.585	11535
928.69	11581
928.796	11642
928.901	11512
929.007	11497
929.112	11577
929.218	11566
929.323	11417
929.428	11379
929.533	11524
929.638	11364
929.743	11341
929.848	11490
929.953	11387
930.058	11239
930.163	11090
930.267	11132
930.372	11292
930.477	11075
930.581	11322
930.685	11136
930.79	10942
930.894	11086
930.998	10980
931.103	11121
931.207	10702
931.311	10626
931.415	10626
931.519	10363
931.623	10333
