Data from test_V78500241_1418.txt Node
Date: Fri Mar 25 15:19:43 CST 2022
User: usil
Spectrometer: V785-0024
Trigger mode: 0
Integration Time (sec): 4.000000E-1
Scans to average: 1
Nonlinearity correction enabled: false
Boxcar width: 0
Storing dark spectrum: false
XAxis mode: Wavelengths
Number of Pixels in Spectrum: 1024
>>>>>Begin Spectral Data<<<<<
801.071	28120
801.214	28150
801.356	27785
801.499	27751
801.641	27622
801.783	27599
801.926	27606
802.068	27637
802.211	27488
802.353	27397
802.496	27359
802.638	27340
802.78	27256
802.923	27275
803.065	27287
803.208	27287
803.35	27241
803.492	27416
803.635	27561
803.777	27427
803.919	27450
804.061	27755
804.204	27389
804.346	27408
804.488	27374
804.63	27534
804.773	27348
804.915	27439
805.057	27500
805.199	27564
805.341	27751
805.483	27709
805.626	27595
805.768	27507
805.91	27637
806.052	27633
806.194	27629
806.336	27846
806.478	27701
806.62	27778
806.762	27850
806.904	27846
807.046	28166
807.188	27914
807.33	28086
807.472	28120
807.614	27880
807.756	27968
807.898	27930
808.04	27850
808.182	27827
808.324	27998
808.465	27911
808.607	28181
808.749	28215
808.891	28398
809.033	28344
809.174	28333
809.316	28382
809.458	28280
809.6	28223
809.741	28348
809.883	28432
810.025	28660
810.166	28603
810.308	28672
810.45	28474
810.591	28542
810.733	28341
810.875	28386
811.016	28276
811.158	28215
811.299	28234
811.441	28443
811.582	28421
811.724	28303
811.865	28242
812.007	28188
812.148	28207
812.29	28375
812.431	28314
812.573	28557
812.714	28778
812.855	28888
812.997	28881
813.138	29033
813.279	29029
813.421	28839
813.562	28809
813.703	28725
813.845	28577
813.986	28329
814.127	28280
814.268	27975
814.41	28097
814.551	27895
814.692	28067
814.833	27983
814.974	27991
815.115	28048
815.256	27956
815.397	27865
815.539	27846
815.68	27895
815.821	27766
815.962	27956
816.103	27690
816.244	27751
816.385	27561
816.526	27450
816.666	27317
816.807	27306
816.948	27321
817.089	27317
817.23	27382
817.371	27226
817.512	27283
817.653	27256
817.793	27203
817.934	27389
818.075	27359
818.216	27370
818.356	27203
818.497	27176
818.638	27093
818.778	27089
818.919	26925
819.06	27214
819.2	27279
819.341	27249
819.481	27313
819.622	27447
819.762	27667
819.903	27526
820.043	27545
820.184	27431
820.324	27435
820.465	27515
820.605	27412
820.746	27348
820.886	27302
821.026	27154
821.167	27382
821.307	27496
821.447	27306
821.588	27321
821.728	27055
821.868	26883
822.008	26743
822.149	26925
822.289	26632
822.429	26431
822.569	26427
822.709	26495
822.849	26324
822.99	26263
823.13	26122
823.27	26259
823.41	26088
823.55	25989
823.69	26180
823.83	26058
823.97	26100
824.11	26005
824.25	25890
824.389	25868
824.529	25982
824.669	25883
824.809	25932
824.949	25928
825.089	25947
825.228	25913
825.368	25769
825.508	25738
825.648	25841
825.787	25860
825.927	25826
826.067	25704
826.206	25685
826.346	25871
826.485	25807
826.625	25799
826.765	25913
826.904	25769
827.044	25556
827.183	25479
827.323	25464
827.462	25491
827.601	25559
827.741	25479
827.88	25651
828.02	25403
828.159	25537
828.298	25339
828.437	25613
828.577	25453
828.716	25613
828.855	25453
828.994	25183
829.134	25148
829.273	25263
829.412	25088
829.551	25282
829.69	25107
829.829	25358
829.968	25346
830.107	25278
830.246	25293
830.385	25209
830.524	25050
830.663	25019
830.802	24954
830.941	24878
831.08	24658
831.219	24821
831.357	25004
831.496	25046
831.635	24821
831.774	24665
831.913	24646
832.051	24623
832.19	24574
832.329	24574
832.467	24498
832.606	24448
832.744	24319
832.883	24460
833.022	24350
833.16	24357
833.299	24429
833.437	24532
833.576	24505
833.714	24498
833.852	24639
833.991	24505
834.129	24551
834.267	24665
834.406	24555
834.544	24426
834.682	24448
834.821	24521
834.959	24661
835.097	24521
835.235	24563
835.373	24464
835.511	24536
835.65	24251
835.788	24327
835.926	24239
836.064	24159
836.202	24194
836.34	24403
836.478	24369
836.615	24273
836.753	24426
836.891	24426
837.029	24365
837.167	24308
837.305	24144
837.443	24178
837.58	24224
837.718	24224
837.856	24102
837.993	24095
838.131	24117
838.269	24003
838.406	24087
838.544	24018
838.681	23786
838.819	23790
838.956	23756
839.094	23649
839.231	23737
839.369	23809
839.506	24003
839.643	23840
839.781	23589
839.918	23493
840.055	23657
840.193	23577
840.33	23573
840.467	23627
840.604	23391
840.742	23813
840.879	23360
841.016	23353
841.153	23296
841.29	23665
841.427	23558
841.564	23539
841.701	23547
841.838	23414
841.975	23512
842.112	23433
842.249	23273
842.385	23193
842.522	23417
842.659	23326
842.796	23269
842.933	23227
843.069	23258
843.206	23128
843.343	23421
843.479	23193
843.616	23341
843.752	23029
843.889	23025
844.025	23162
844.162	23060
844.298	23086
844.435	22972
844.571	23006
844.708	23124
844.844	23292
844.98	23170
845.117	23220
845.253	23010
845.389	23006
845.525	22949
845.661	22927
845.798	22843
845.934	22854
846.07	22831
846.206	22873
846.342	22858
846.478	22687
846.614	22592
846.75	22485
846.886	22599
847.022	22596
847.158	22538
847.294	22565
847.429	22485
847.565	22413
847.701	22839
847.837	22268
847.972	22150
848.108	22470
848.244	22363
848.379	22105
848.515	22070
848.65	22059
848.786	22173
848.921	22116
849.057	22200
849.192	22265
849.328	22204
849.463	22246
849.598	22139
849.734	21983
849.869	21880
850.004	21911
850.14	21876
850.275	21960
850.41	21911
850.545	21785
850.68	21781
850.815	21956
850.95	21755
851.085	22124
851.22	22032
851.355	21850
851.49	21797
851.625	21736
851.76	21774
851.895	21728
852.03	21793
852.165	21865
852.299	21888
852.434	22059
852.569	21949
852.703	21873
852.838	21895
852.973	21926
853.107	21998
853.242	21854
853.376	21667
853.511	21561
853.645	21625
853.78	21857
853.914	21720
854.048	21751
854.183	21682
854.317	21789
854.451	21861
854.585	21561
854.72	21713
854.854	21774
854.988	21709
855.122	21720
855.256	21466
855.39	21705
855.524	21724
855.658	21732
855.792	21679
855.926	21713
856.06	21686
856.194	21743
856.327	21686
856.461	21644
856.595	21610
856.729	21705
856.862	21789
856.996	21713
857.13	21694
857.263	21899
857.397	21785
857.53	21755
857.664	21709
857.797	21701
857.931	21713
858.064	21778
858.197	21717
858.331	21667
858.464	21599
858.597	21545
858.731	21660
858.864	21648
858.997	21580
859.13	21633
859.263	21755
859.396	21755
859.529	21686
859.662	21519
859.795	21663
859.928	21671
860.061	21861
860.194	21755
860.327	21793
860.46	21648
860.592	21679
860.725	21793
860.858	21785
860.99	21637
861.123	21595
861.256	21671
861.388	21739
861.521	22253
861.653	21682
861.786	21420
861.918	21545
862.05	21542
862.183	21637
862.315	21591
862.447	21701
862.58	21523
862.712	21435
862.844	21382
862.976	21412
863.108	21374
863.24	21857
863.372	21336
863.504	21336
863.636	21405
863.768	21454
863.9	21389
864.032	21332
864.164	21344
864.296	21382
864.428	21553
864.559	21454
864.691	21412
864.823	21416
864.954	21412
865.086	21458
865.217	21249
865.349	21264
865.48	21283
865.612	21279
865.743	21424
865.875	21340
866.006	21188
866.137	21306
866.269	21260
866.4	21317
866.531	21180
866.662	21245
866.793	21123
866.924	21207
867.055	21188
867.186	21222
867.317	21252
867.448	21077
867.579	21127
867.71	21104
867.841	21165
867.972	21195
868.103	21123
868.233	21298
868.364	21203
868.495	21329
868.625	21443
868.756	21622
868.886	21439
869.017	21462
869.147	21519
869.278	21454
869.408	21477
869.539	21496
869.669	21568
869.799	21549
869.929	21656
870.06	21660
870.19	21812
870.32	21732
870.45	21838
870.58	21918
870.71	21930
870.84	21930
870.97	21899
871.1	21842
871.23	21972
871.36	21987
871.489	21934
871.619	22017
871.749	22173
871.879	22109
872.008	22177
872.138	22120
872.267	21956
872.397	21941
872.526	21797
872.656	21808
872.785	21838
872.915	22070
873.044	21983
873.173	22044
873.303	22128
873.432	22101
873.561	22112
873.69	22086
873.819	22063
873.948	21975
874.077	22116
874.206	21998
874.335	21983
874.464	22143
874.593	22284
874.722	22310
874.851	22169
874.979	22276
875.108	22390
875.237	22196
875.365	22261
875.494	22207
875.623	22287
875.751	22284
875.88	22379
876.008	22382
876.136	22531
876.265	22599
876.393	22694
876.521	22664
876.65	22850
876.778	22675
876.906	22637
877.034	22550
877.162	22725
877.29	22603
877.418	22637
877.546	22748
877.674	22630
877.802	22584
877.93	22626
878.058	22645
878.185	22622
878.313	22649
878.441	22588
878.568	22462
878.696	22523
878.824	22630
878.951	22782
879.079	22885
879.206	22778
879.333	22835
879.461	22736
879.588	22733
879.715	22801
879.842	22782
879.97	22649
880.097	22386
880.224	22504
880.351	22531
880.478	22417
880.605	22367
880.732	22512
880.859	22706
880.986	22592
881.112	22538
881.239	22348
881.366	22204
881.493	21994
881.619	22116
881.746	22063
881.872	22120
881.999	21953
882.125	21991
882.252	22093
882.378	22029
882.505	22287
882.631	21876
882.757	21770
882.883	21778
883.01	21774
883.136	21774
883.262	21507
883.388	21625
883.514	21637
883.64	21766
883.766	21603
883.892	21515
884.018	21629
884.143	21641
884.269	21625
884.395	21511
884.52	21313
884.646	21416
884.772	21279
884.897	21264
885.023	21389
885.148	21454
885.274	21477
885.399	21435
885.524	21298
885.65	21405
885.775	21264
885.9	21241
886.025	21507
886.15	21454
886.275	21313
886.4	21207
886.525	21291
886.65	21313
886.775	21218
886.9	21481
887.025	21561
887.149	21302
887.274	21241
887.399	21096
887.523	21116
887.648	21116
887.773	20967
887.897	21222
888.021	21184
888.146	21127
888.27	21146
888.395	21150
888.519	21329
888.643	21039
888.767	21157
888.891	20986
889.015	20842
889.139	20948
889.263	20891
889.387	20967
889.511	21131
889.635	21013
889.759	20921
889.883	20929
890.006	20956
890.13	20971
890.254	20887
890.377	20845
890.501	20655
890.624	20651
890.748	20727
890.871	20606
890.995	20568
891.118	20381
891.241	20389
891.364	20476
891.488	20682
891.611	20434
891.734	20442
891.857	20480
891.98	20492
892.103	20480
892.226	20476
892.349	20370
892.471	20248
892.594	20313
892.717	20492
892.839	20393
892.962	20381
893.085	20488
893.207	20317
893.33	20248
893.452	20180
893.575	20427
893.697	20263
893.819	20488
893.941	20488
894.064	20488
894.186	20396
894.308	20294
894.43	20514
894.552	20488
894.674	20442
894.796	20191
894.918	20400
895.04	20278
895.161	20400
895.283	20412
895.405	20214
895.526	20256
895.648	20347
895.769	20324
895.891	20396
896.012	20446
896.134	20385
896.255	20450
896.376	20294
896.498	20381
896.619	20328
896.74	20423
896.861	20419
896.982	20617
897.103	20777
897.224	20575
897.345	20621
897.466	20613
897.587	20556
897.708	20613
897.828	20583
897.949	20518
898.07	20309
898.19	20499
898.311	20590
898.431	20613
898.552	20469
898.672	20644
898.792	20594
898.913	20606
899.033	20541
899.153	20473
899.273	20210
899.393	20362
899.513	20301
899.633	20377
899.753	20450
899.873	20332
899.993	20339
900.113	20233
900.232	20244
900.352	20286
900.472	20119
900.591	19978
900.711	20130
900.83	20016
900.95	20214
901.069	20328
901.189	20050
901.308	19811
901.427	19613
901.546	19662
901.665	19658
901.784	19609
901.904	19540
902.023	19495
902.141	19251
902.26	19137
902.379	19221
902.498	19255
902.617	19198
902.735	19403
902.854	19080
902.973	19095
903.091	18897
903.21	18920
903.328	18913
903.446	18829
903.565	18738
903.683	18601
903.801	18475
903.919	18566
904.038	18623
904.156	18441
904.274	18441
904.392	18403
904.51	18388
904.627	18426
904.745	18407
904.863	18365
904.981	18159
905.098	18117
905.216	18098
905.334	18083
905.451	18129
905.569	18057
905.686	18163
905.803	18064
905.921	17885
906.038	18060
906.155	17942
906.272	17832
906.389	17802
906.506	17718
906.623	17661
906.74	17596
906.857	17524
906.974	17589
907.091	17623
907.208	17737
907.324	17661
907.441	17444
907.557	17391
907.674	17402
907.79	17269
907.907	17372
908.023	17448
908.139	17364
908.256	17326
908.372	17170
908.488	17208
908.604	17064
908.72	17003
908.836	17090
908.952	16938
909.068	17147
909.184	17235
909.3	16961
909.415	17094
909.531	17037
909.647	16839
909.762	16797
909.878	16854
909.993	16752
910.108	16763
910.224	16725
910.339	16820
910.454	16626
910.57	16656
910.685	16523
910.8	16759
910.915	16782
911.03	16493
911.145	16371
911.259	16276
911.374	16333
911.489	16322
911.604	16196
911.718	16147
911.833	16196
911.947	15960
912.062	15953
912.176	16032
912.291	15994
912.405	16051
912.519	16253
912.633	16314
912.748	16116
912.862	16090
912.976	15888
913.09	15759
913.204	15804
913.318	15945
913.431	15994
913.545	15865
913.659	16025
913.772	15876
913.886	15686
914	15675
914.113	15778
914.226	15739
914.34	15667
914.453	15595
914.566	15812
914.68	15648
914.793	15595
914.906	15336
915.019	15405
915.132	15256
915.245	15321
915.358	15336
915.47	15336
915.583	15298
915.696	15363
915.809	15439
915.921	15481
916.034	15294
916.146	15214
916.259	15192
916.371	15294
916.483	15252
916.595	15195
916.708	15085
916.82	15131
916.932	15097
917.044	15036
917.156	14982
917.268	15024
917.38	14857
917.491	15013
917.603	15005
917.715	14990
917.826	15020
917.938	15032
918.049	14750
918.161	14853
918.272	15020
918.384	15032
918.495	14887
918.606	14735
918.717	14636
918.828	14735
918.939	14735
919.05	14613
919.161	14701
919.272	14495
919.383	14575
919.494	14701
919.604	14891
919.715	14663
919.826	14689
919.936	14640
920.047	14777
920.157	14560
920.267	14918
920.378	14674
920.488	14636
920.598	14811
920.708	14925
920.818	14804
920.928	14785
921.038	14944
921.148	14960
921.258	14701
921.368	14526
921.477	14465
921.587	14343
921.697	14282
921.806	14419
921.916	14294
922.025	14126
922.134	14142
922.244	13951
922.353	14100
922.462	13868
922.571	13921
922.68	13689
922.789	13746
922.898	13727
923.007	13662
923.116	13719
923.224	13590
923.333	13647
923.442	13613
923.55	13506
923.659	13510
923.767	13636
923.876	13400
923.984	13575
924.092	13422
924.201	13453
924.309	13400
924.417	13384
924.525	13438
924.633	13377
924.741	14126
924.849	13118
924.956	13259
925.064	13053
925.172	13069
925.279	13050
925.387	13080
925.494	13095
925.602	13160
925.709	13061
925.816	13023
925.924	12966
926.031	13137
926.138	13053
926.245	13034
926.352	12954
926.459	13080
926.566	13095
926.673	13004
926.779	12837
926.886	12878
926.993	12730
927.099	12623
927.206	12582
927.312	12601
927.419	12578
927.525	12585
927.631	12604
927.737	12498
927.843	12551
927.95	12330
928.056	12498
928.162	12574
928.267	12479
928.373	13164
928.479	12593
928.585	12285
928.69	12410
928.796	12479
928.901	12277
929.007	12159
929.112	12319
929.218	12254
929.323	12155
929.428	12213
929.533	12289
929.638	12091
929.743	12228
929.848	12178
929.953	12155
930.058	12091
930.163	11874
930.267	11840
930.372	11969
930.477	11912
930.581	12034
930.685	11954
930.79	11661
930.894	11798
930.998	11741
931.103	11809
931.207	11444
931.311	11474
931.415	11296
931.519	11155
931.623	11124
