Data from test_V78500241_1884.txt Node
Date: Fri Mar 25 15:22:58 CST 2022
User: usil
Spectrometer: V785-0024
Trigger mode: 0
Integration Time (sec): 4.000000E-1
Scans to average: 1
Nonlinearity correction enabled: false
Boxcar width: 0
Storing dark spectrum: false
XAxis mode: Wavelengths
Number of Pixels in Spectrum: 1024
>>>>>Begin Spectral Data<<<<<
801.071	27873
801.214	27671
801.356	27572
801.499	27610
801.641	27443
801.783	27416
801.926	27515
802.068	27401
802.211	27306
802.353	27389
802.496	26979
802.638	27142
802.78	26944
802.923	26967
803.065	26891
803.208	26906
803.35	27093
803.492	27249
803.635	27207
803.777	27043
803.919	27252
804.061	27431
804.204	27310
804.346	27112
804.488	27112
804.63	27154
804.773	27180
804.915	27279
805.057	27150
805.199	27249
805.341	27291
805.483	27378
805.626	27302
805.768	27226
805.91	27317
806.052	27408
806.194	27294
806.336	27519
806.478	27420
806.62	27386
806.762	27458
806.904	27583
807.046	27755
807.188	27781
807.33	27888
807.472	27759
807.614	27800
807.756	27633
807.898	27671
808.04	27526
808.182	27412
808.324	27705
808.465	27686
808.607	27857
808.749	27937
808.891	28055
809.033	28063
809.174	28128
809.316	27884
809.458	27918
809.6	27960
809.741	28055
809.883	28139
810.025	28158
810.166	28356
810.308	28360
810.45	28314
810.591	28116
810.733	27968
810.875	27956
811.016	27930
811.158	27854
811.299	28109
811.441	27972
811.582	28048
811.724	27911
811.865	27960
812.007	28067
812.148	27892
812.29	28059
812.431	28223
812.573	28386
812.714	28367
812.855	28550
812.997	28592
813.138	28694
813.279	28588
813.421	28451
813.562	28417
813.703	28375
813.845	28185
813.986	27964
814.127	27876
814.268	27629
814.41	27679
814.551	27599
814.692	27690
814.833	27679
814.974	27526
815.115	27732
815.256	27564
815.397	27466
815.539	27496
815.68	27466
815.821	27329
815.962	27580
816.103	27549
816.244	27321
816.385	27291
816.526	27093
816.666	27017
816.807	26990
816.948	26914
817.089	27077
817.23	27112
817.371	26906
817.512	26956
817.653	26857
817.793	26804
817.934	26937
818.075	26815
818.216	26921
818.356	26857
818.497	26849
818.638	26492
818.778	26644
818.919	26651
819.06	26811
819.2	26807
819.341	26891
819.481	26952
819.622	26948
819.762	27211
819.903	27268
820.043	27096
820.184	27180
820.324	27096
820.465	27173
820.605	27013
820.746	27096
820.886	26967
821.026	27119
821.167	26998
821.307	27085
821.447	26944
821.588	26758
821.728	26663
821.868	26636
822.008	26495
822.149	26347
822.289	26366
822.429	26153
822.569	26062
822.709	25993
822.849	25917
822.99	26008
823.13	25852
823.27	25742
823.41	25750
823.55	25666
823.69	25689
823.83	25894
823.97	25666
824.11	25468
824.25	25472
824.389	25582
824.529	25677
824.669	25605
824.809	25677
824.949	25685
825.089	25521
825.228	25723
825.368	25506
825.508	25320
825.648	25453
825.787	25426
825.927	25434
826.067	25445
826.206	25403
826.346	25590
826.485	25419
826.625	25369
826.765	25533
826.904	25529
827.044	25141
827.183	25293
827.323	25110
827.462	25190
827.601	25217
827.741	25148
827.88	25255
828.02	24920
828.159	25122
828.298	25198
828.437	25107
828.577	25122
828.716	25327
828.855	25084
828.994	24916
829.134	24825
829.273	24981
829.412	24692
829.551	24757
829.69	24760
829.829	24992
829.968	24962
830.107	24859
830.246	24897
830.385	24722
830.524	24719
830.663	24688
830.802	24616
830.941	24513
831.08	24544
831.219	24730
831.357	24696
831.496	24745
831.635	24445
831.774	24494
831.913	24426
832.051	24201
832.19	24159
832.329	24384
832.467	24224
832.606	24136
832.744	24011
832.883	24178
833.022	24106
833.16	24106
833.299	24171
833.437	24197
833.576	24186
833.714	24213
833.852	24239
833.991	24388
834.129	24407
834.267	24216
834.406	24254
834.544	24258
834.682	24319
834.821	24220
834.959	24277
835.097	24129
835.235	24334
835.373	24216
835.511	24136
835.65	24102
835.788	24087
835.926	23965
836.064	23882
836.202	24007
836.34	24152
836.478	24117
836.615	23954
836.753	24072
836.891	24125
837.029	24110
837.167	24114
837.305	24011
837.443	24022
837.58	23916
837.718	23984
837.856	23916
837.993	23726
838.131	23809
838.269	23707
838.406	23897
838.544	23680
838.681	23589
838.819	23665
838.956	23368
839.094	23402
839.231	23490
839.369	23589
839.506	23897
839.643	23596
839.781	23273
839.918	23254
840.055	23474
840.193	23349
840.33	23322
840.467	23337
840.604	23417
840.742	23554
840.879	23128
841.016	23159
841.153	23284
841.29	23322
841.427	23299
841.564	23322
841.701	23220
841.838	23277
841.975	23113
842.112	23208
842.249	23098
842.385	23155
842.522	23181
842.659	23079
842.796	23181
842.933	23136
843.069	23048
843.206	22968
843.343	23166
843.479	23147
843.616	23014
843.752	22953
843.889	22915
844.025	23071
844.162	22889
844.298	22976
844.435	22862
844.571	22790
844.708	22839
844.844	23041
844.98	23037
845.117	22881
845.253	22702
845.389	22683
845.525	22850
845.661	22580
845.798	22721
845.934	22573
846.07	22466
846.206	22596
846.342	22550
846.478	22516
846.614	22382
846.75	22196
846.886	22470
847.022	22303
847.158	22276
847.294	22352
847.429	22386
847.565	22253
847.701	22573
847.837	22006
847.972	21922
848.108	22169
848.244	22158
848.379	21956
848.515	21819
848.65	21880
848.786	21812
848.921	21876
849.057	21926
849.192	21987
849.328	21964
849.463	21964
849.598	21819
849.734	21789
849.869	21728
850.004	21686
850.14	21660
850.275	21606
850.41	21686
850.545	21610
850.68	21622
850.815	21633
850.95	21671
851.085	21869
851.22	21804
851.355	21629
851.49	21648
851.625	21641
851.76	21568
851.895	21561
852.03	21466
852.165	21660
852.299	21587
852.434	21606
852.569	21637
852.703	21629
852.838	21720
852.973	21861
853.107	21838
853.242	21663
853.376	21492
853.511	21359
853.645	21447
853.78	21622
853.914	21378
854.048	21450
854.183	21454
854.317	21545
854.451	21728
854.585	21542
854.72	21519
854.854	21568
854.988	21325
855.122	21420
855.256	21359
855.39	21458
855.524	21553
855.658	21568
855.792	21542
855.926	21428
856.06	21583
856.194	21519
856.327	21507
856.461	21473
856.595	21272
856.729	21424
856.862	21496
856.996	21542
857.13	21530
857.263	21576
857.397	21534
857.53	21408
857.664	21469
857.797	21629
857.931	21629
858.064	21542
858.197	21450
858.331	21443
858.464	21473
858.597	21389
858.731	21450
858.864	21572
858.997	21485
859.13	21416
859.263	21587
859.396	21583
859.529	21431
859.662	21447
859.795	21416
859.928	21469
860.061	21694
860.194	21648
860.327	21534
860.46	21454
860.592	21538
860.725	21629
860.858	21576
860.99	21557
861.123	21431
861.256	21401
861.388	21485
861.521	22055
861.653	21306
861.786	21233
861.918	21348
862.05	21222
862.183	21382
862.315	21431
862.447	21454
862.58	21317
862.712	21135
862.844	21211
862.976	21203
863.108	21241
863.24	21496
863.372	21256
863.504	21302
863.636	21127
863.768	21192
863.9	21157
864.032	21127
864.164	21180
864.296	21195
864.428	21351
864.559	21222
864.691	21268
864.823	21157
864.954	21161
865.086	21123
865.217	21104
865.349	20941
865.48	21104
865.612	21081
865.743	21298
865.875	21100
866.006	20944
866.137	21146
866.269	21066
866.4	21081
866.531	20902
866.662	21119
866.793	21081
866.924	21009
867.055	21081
867.186	20986
867.317	20929
867.448	20815
867.579	20921
867.71	20853
867.841	20956
867.972	21058
868.103	20979
868.233	21047
868.364	21013
868.495	21138
868.625	21272
868.756	21321
868.886	21146
869.017	21222
869.147	21241
869.278	21355
869.408	21310
869.539	21302
869.669	21351
869.799	21306
869.929	21329
870.06	21370
870.19	21488
870.32	21591
870.45	21637
870.58	21675
870.71	21797
870.84	21724
870.97	21686
871.1	21781
871.23	21781
871.36	21880
871.489	21884
871.619	21800
871.749	21781
871.879	21846
872.008	21934
872.138	21778
872.267	21869
872.397	21698
872.526	21603
872.656	21686
872.785	21743
872.915	21819
873.044	21884
873.173	21876
873.303	21724
873.432	21842
873.561	21972
873.69	21998
873.819	21831
873.948	21949
874.077	21865
874.206	21774
874.335	21861
874.464	22093
874.593	22051
874.722	21926
874.851	22017
874.979	22059
875.108	22109
875.237	22128
875.365	21941
875.494	22074
875.623	22090
875.751	22120
875.88	22040
876.008	22188
876.136	22242
876.265	22497
876.393	22542
876.521	22478
876.65	22481
876.778	22573
876.906	22428
877.034	22360
877.162	22436
877.29	22348
877.418	22390
877.546	22478
877.674	22447
877.802	22466
877.93	22382
878.058	22398
878.185	22325
878.313	22436
878.441	22375
878.568	22303
878.696	22352
878.824	22447
878.951	22611
879.079	22531
879.206	22713
879.333	22694
879.461	22561
879.588	22554
879.715	22478
879.842	22668
879.97	22504
880.097	22268
880.224	22287
880.351	22261
880.478	22204
880.605	22280
880.732	22318
880.859	22497
880.986	22147
881.112	22303
881.239	22223
881.366	22055
881.493	21934
881.619	21857
881.746	21686
881.872	21823
881.999	21774
882.125	21918
882.252	21915
882.378	21800
882.505	21888
882.631	21736
882.757	21625
882.883	21599
883.01	21462
883.136	21576
883.262	21466
883.388	21359
883.514	21526
883.64	21580
883.766	21557
883.892	21211
884.018	21412
884.143	21359
884.269	21545
884.395	21233
884.52	21077
884.646	21157
884.772	21123
884.897	21013
885.023	21199
885.148	21154
885.274	21260
885.399	21214
885.524	21119
885.65	21116
885.775	21188
885.9	21192
886.025	21279
886.15	21317
886.275	21222
886.4	21058
886.525	21017
886.65	21188
886.775	20982
886.9	21268
887.025	21386
887.149	21039
887.274	20986
887.399	20910
887.523	20834
887.648	20815
887.773	20815
887.897	21100
888.021	20883
888.146	20864
888.27	20944
888.395	21138
888.519	21013
888.643	20990
888.767	21009
888.891	20750
889.015	20701
889.139	20792
889.263	20830
889.387	20746
889.511	20952
889.635	20914
889.759	20655
889.883	20731
890.006	20845
890.13	20918
890.254	20659
890.377	20621
890.501	20526
890.624	20381
890.748	20545
890.871	20385
890.995	20393
891.118	20294
891.241	20381
891.364	20431
891.488	20507
891.611	20328
891.734	20328
891.857	20305
891.98	20343
892.103	20286
892.226	20374
892.349	20362
892.471	20229
892.594	20233
892.717	20233
892.839	20271
892.962	20237
893.085	20317
893.207	20149
893.33	20149
893.452	20062
893.575	20237
893.697	20172
893.819	20438
893.941	20469
894.064	20328
894.186	20221
894.308	20176
894.43	20305
894.552	20393
894.674	20290
894.796	20103
894.918	20225
895.04	20122
895.161	20286
895.283	20153
895.405	20100
895.526	20202
895.648	20084
895.769	20172
895.891	20339
896.012	20320
896.134	20233
896.255	20263
896.376	20130
896.498	20225
896.619	20172
896.74	20195
896.861	20320
896.982	20423
897.103	20606
897.224	20431
897.345	20336
897.466	20332
897.587	20454
897.708	20571
897.828	20381
897.949	20256
898.07	20244
898.19	20332
898.311	20377
898.431	20476
898.552	20408
898.672	20298
898.792	20473
898.913	20469
899.033	20328
899.153	20088
899.273	20031
899.393	20149
899.513	20065
899.633	20065
899.753	20176
899.873	20092
899.993	20115
900.113	20046
900.232	20122
900.352	20054
900.472	19936
900.591	19830
900.711	19970
900.83	19841
900.95	20069
901.069	20100
901.189	19795
901.308	19552
901.427	19506
901.546	19544
901.665	19540
901.784	19521
901.904	19339
902.023	19339
902.141	18970
902.26	19050
902.379	19103
902.498	19069
902.617	18958
902.735	19110
902.854	18924
902.973	18852
903.091	18776
903.21	18768
903.328	18673
903.446	18544
903.565	18551
903.683	18563
903.801	18445
903.919	18426
904.038	18410
904.156	18304
904.274	18369
904.392	18232
904.51	18285
904.627	18087
904.745	18281
904.863	18311
904.981	17988
905.098	17885
905.216	17920
905.334	18079
905.451	17939
905.569	17958
905.686	17984
905.803	17908
905.921	17737
906.038	17828
906.155	17684
906.272	17600
906.389	17649
906.506	17398
906.623	17547
906.74	17524
906.857	17379
906.974	17326
907.091	17547
907.208	17562
907.324	17474
907.441	17379
907.557	17227
907.674	17185
907.79	17162
907.907	17010
908.023	17174
908.139	17174
908.256	17227
908.372	17124
908.488	17029
908.604	16972
908.72	16831
908.836	16919
908.952	16953
909.068	16847
909.184	17075
909.3	16869
909.415	16908
909.531	16961
909.647	16561
909.762	16580
909.878	16508
909.993	16584
910.108	16584
910.224	16653
910.339	16592
910.454	16527
910.57	16470
910.685	16348
910.8	16653
910.915	16538
911.03	16310
911.145	16185
911.259	16215
911.374	16234
911.489	16086
911.604	16013
911.718	15888
911.833	15994
911.947	15854
912.062	15766
912.176	15918
912.291	15823
912.405	15934
912.519	16109
912.633	16093
912.748	15949
912.862	15835
912.976	15720
913.09	15713
913.204	15701
913.318	15728
913.431	15857
913.545	15808
913.659	15922
913.772	15690
913.886	15572
914	15606
914.113	15739
914.226	15766
914.34	15656
914.453	15408
914.566	15656
914.68	15348
914.793	15416
914.906	15245
915.019	15226
915.132	15097
915.245	15192
915.358	15192
915.47	15169
915.583	15150
915.696	15207
915.809	15332
915.921	15287
916.034	15135
916.146	15039
916.259	14979
916.371	15112
916.483	15036
916.595	15039
916.708	15077
916.82	15112
916.932	14902
917.044	14921
917.156	14853
917.268	14800
917.38	14758
917.491	14788
917.603	14845
917.715	14948
917.826	14933
917.938	14674
918.049	14579
918.161	14731
918.272	14800
918.384	14887
918.495	14750
918.606	14617
918.717	14522
918.828	14537
918.939	14499
919.05	14522
919.161	14454
919.272	14248
919.383	14298
919.494	14602
919.604	14686
919.715	14575
919.826	14457
919.936	14492
920.047	14644
920.157	14537
920.267	14750
920.378	14533
920.488	14450
920.598	14727
920.708	14853
920.818	14629
920.928	14629
921.038	14857
921.148	14830
921.258	14450
921.368	14381
921.477	14206
921.587	14210
921.697	14027
921.806	14244
921.916	14119
922.025	13986
922.134	13830
922.244	13791
922.353	13970
922.462	13769
922.571	13753
922.68	13681
922.789	13540
922.898	13521
923.007	13525
923.116	13578
923.224	13537
923.333	13495
923.442	13430
923.55	13384
923.659	13453
923.767	13430
923.876	13384
923.984	13453
924.092	13244
924.201	13369
924.309	13373
924.417	13289
924.525	13221
924.633	13198
924.741	14161
924.849	13061
924.956	13190
925.064	12916
925.172	12947
925.279	12943
925.387	13034
925.494	12981
925.602	13126
925.709	12943
925.816	12875
925.924	12935
926.031	12985
926.138	12848
926.245	12993
926.352	12825
926.459	13000
926.566	13031
926.673	12821
926.779	12669
926.886	12711
926.993	12658
927.099	12521
927.206	12506
927.312	12517
927.419	12513
927.525	12551
927.631	12570
927.737	12441
927.843	12304
927.95	12273
928.056	12414
928.162	12388
928.267	12437
928.373	12916
928.479	12384
928.585	12216
928.69	12251
928.796	12327
928.901	12213
929.007	12060
929.112	12254
929.218	12163
929.323	12038
929.428	12083
929.533	12235
929.638	12034
929.743	12030
929.848	12110
929.953	11973
930.058	11992
930.163	11741
930.267	11710
930.372	11897
930.477	11722
930.581	12011
930.685	11813
930.79	11604
930.894	11615
930.998	11627
931.103	11771
931.207	11402
931.311	11299
931.415	11181
931.519	11010
931.623	11060
