Data from test_V78500241_2065.txt Node
Date: Fri Mar 25 15:24:14 CST 2022
User: usil
Spectrometer: V785-0024
Trigger mode: 0
Integration Time (sec): 4.000000E-1
Scans to average: 1
Nonlinearity correction enabled: false
Boxcar width: 0
Storing dark spectrum: false
XAxis mode: Wavelengths
Number of Pixels in Spectrum: 1024
>>>>>Begin Spectral Data<<<<<
801.071	27690
801.214	27629
801.356	27439
801.499	27340
801.641	27287
801.783	27188
801.926	27195
802.068	27252
802.211	27233
802.353	27218
802.496	26967
802.638	27001
802.78	26864
802.923	26880
803.065	26838
803.208	26864
803.35	27009
803.492	26971
803.635	27104
803.777	26986
803.919	27157
804.061	27275
804.204	27093
804.346	27017
804.488	27020
804.63	27093
804.773	26998
804.915	27070
805.057	27218
805.199	27131
805.341	27074
805.483	27195
805.626	27245
805.768	27165
805.91	27306
806.052	27184
806.194	27211
806.336	27405
806.478	27310
806.62	27237
806.762	27355
806.904	27416
807.046	27876
807.188	27587
807.33	27724
807.472	27675
807.614	27648
807.756	27549
807.898	27431
808.04	27466
808.182	27534
808.324	27481
808.465	27622
808.607	27770
808.749	27842
808.891	27994
809.033	27888
809.174	27926
809.316	27812
809.458	27816
809.6	27804
809.741	27914
809.883	27991
810.025	28131
810.166	28135
810.308	28116
810.45	27994
810.591	27949
810.733	27914
810.875	27789
811.016	27622
811.158	27618
811.299	27823
811.441	27930
811.582	27937
811.724	27724
811.865	27888
812.007	27766
812.148	27804
812.29	27827
812.431	28002
812.573	28143
812.714	28131
812.855	28280
812.997	28367
813.138	28592
813.279	28459
813.421	28234
813.562	28204
813.703	28097
813.845	28169
813.986	27812
814.127	27618
814.268	27690
814.41	27530
814.551	27462
814.692	27488
814.833	27355
814.974	27538
815.115	27549
815.256	27237
815.397	27447
815.539	27450
815.68	27317
815.821	27317
815.962	27310
816.103	27264
816.244	27123
816.385	27055
816.526	26967
816.666	26929
816.807	26804
816.948	26819
817.089	27013
817.23	26689
817.371	26788
817.512	26712
817.653	26724
817.793	26659
817.934	26754
818.075	26796
818.216	26838
818.356	26705
818.497	26625
818.638	26473
818.778	26537
818.919	26484
819.06	26663
819.2	26682
819.341	26697
819.481	26720
819.622	26925
819.762	26887
819.903	26982
820.043	26861
820.184	26864
820.324	26906
820.465	27013
820.605	26880
820.746	26834
820.886	26727
821.026	26895
821.167	26667
821.307	26925
821.447	26697
821.588	26777
821.728	26594
821.868	26404
822.008	26206
822.149	26256
822.289	26309
822.429	25959
822.569	25928
822.709	25890
822.849	25795
822.99	25757
823.13	25765
823.27	25666
823.41	25662
823.55	25434
823.69	25624
823.83	25597
823.97	25476
824.11	25419
824.25	25282
824.389	25384
824.529	25491
824.669	25430
824.809	25449
824.949	25449
825.089	25369
825.228	25438
825.368	25274
825.508	25175
825.648	25297
825.787	25266
825.927	25187
826.067	25156
826.206	25293
826.346	25285
826.485	25282
826.625	25145
826.765	25202
826.904	25434
827.044	25122
827.183	25065
827.323	24962
827.462	24920
827.601	24966
827.741	24905
827.88	24897
828.02	24856
828.159	25015
828.298	24905
828.437	24958
828.577	25027
828.716	25137
828.855	24970
828.994	24696
829.134	24669
829.273	24681
829.412	24570
829.551	24715
829.69	24540
829.829	24795
829.968	24753
830.107	24627
830.246	24582
830.385	24555
830.524	24597
830.663	24445
830.802	24372
830.941	24254
831.08	24281
831.219	24437
831.357	24285
831.496	24498
831.635	24418
831.774	24266
831.913	24220
832.051	24102
832.19	23988
832.329	23870
832.467	24026
832.606	23786
832.744	23863
832.883	23958
833.022	23828
833.16	23885
833.299	24003
833.437	23999
833.576	23965
833.714	24045
833.852	24129
833.991	24079
834.129	23984
834.267	24155
834.406	24148
834.544	24030
834.682	23904
834.821	23866
834.959	24087
835.097	24015
835.235	24148
835.373	23878
835.511	23969
835.65	23866
835.788	23904
835.926	23764
836.064	23653
836.202	23703
836.34	23764
836.478	23874
836.615	23866
836.753	23737
836.891	23828
837.029	23885
837.167	23969
837.305	23684
837.443	23737
837.58	23748
837.718	23592
837.856	23657
837.993	23722
838.131	23592
838.269	23547
838.406	23665
838.544	23589
838.681	23406
838.819	23284
838.956	23098
839.094	23014
839.231	23250
839.369	23334
839.506	23482
839.643	23459
839.781	23128
839.918	23086
840.055	23143
840.193	23200
840.33	23117
840.467	23178
840.604	23075
840.742	23212
840.879	22850
841.016	23029
841.153	23029
841.29	23185
841.427	23147
841.564	23109
841.701	22938
841.838	23113
841.975	22805
842.112	23044
842.249	22938
842.385	22839
842.522	23003
842.659	22847
842.796	22793
842.933	22961
843.069	22801
843.206	22771
843.343	22877
843.479	22995
843.616	22869
843.752	22698
843.889	22675
844.025	22694
844.162	22538
844.298	22656
844.435	22527
844.571	22493
844.708	22538
844.844	22744
844.98	22782
845.117	22641
845.253	22519
845.389	22481
845.525	22382
845.661	22451
845.798	22299
845.934	22322
846.07	22356
846.206	22344
846.342	22462
846.478	22246
846.614	22169
846.75	21945
846.886	22063
847.022	22139
847.158	22135
847.294	22006
847.429	22032
847.565	22090
847.701	22223
847.837	21800
847.972	21759
848.108	21854
848.244	21823
848.379	21633
848.515	21652
848.65	21583
848.786	21660
848.921	21759
849.057	21785
849.192	21728
849.328	21656
849.463	21660
849.598	21625
849.734	21496
849.869	21515
850.004	21412
850.14	21485
850.275	21374
850.41	21264
850.545	21359
850.68	21378
850.815	21355
850.95	21317
851.085	21652
851.22	21568
851.355	21462
851.49	21332
851.625	21386
851.76	21416
851.895	21329
852.03	21329
852.165	21359
852.299	21439
852.434	21477
852.569	21458
852.703	21374
852.838	21405
852.973	21420
853.107	21477
853.242	21359
853.376	21192
853.511	21157
853.645	21089
853.78	21291
853.914	21237
854.048	21036
854.183	21222
854.317	21252
854.451	21386
854.585	21180
854.72	21157
854.854	21408
854.988	21093
855.122	21249
855.256	21157
855.39	21112
855.524	21237
855.658	21252
855.792	21233
855.926	21329
856.06	21256
856.194	21199
856.327	21211
856.461	21180
856.595	21184
856.729	21260
856.862	21169
856.996	21245
857.13	21279
857.263	21363
857.397	21241
857.53	21173
857.664	21306
857.797	21272
857.931	21374
858.064	21344
858.197	21256
858.331	21230
858.464	21226
858.597	21169
858.731	21226
858.864	21138
858.997	21154
859.13	21321
859.263	21325
859.396	21203
859.529	21207
859.662	21169
859.795	21260
859.928	21241
860.061	21389
860.194	21332
860.327	21332
860.46	21355
860.592	21332
860.725	21431
860.858	21348
860.99	21245
861.123	21256
861.256	21176
861.388	21241
861.521	21804
861.653	21112
861.786	21009
861.918	21051
862.05	21195
862.183	21211
862.315	21237
862.447	21272
862.58	21195
862.712	20914
862.844	20925
862.976	20963
863.108	20891
863.24	21355
863.372	20895
863.504	20929
863.636	20944
863.768	20857
863.9	20891
864.032	20796
864.164	20883
864.296	21001
864.428	20967
864.559	20948
864.691	21028
864.823	20910
864.954	20948
865.086	20807
865.217	20838
865.349	20674
865.48	20872
865.612	20887
865.743	20994
865.875	20811
866.006	20823
866.137	20868
866.269	20868
866.4	20800
866.531	20712
866.662	20667
866.793	20731
866.924	20765
867.055	20849
867.186	20876
867.317	20670
867.448	20594
867.579	20746
867.71	20686
867.841	20743
867.972	20708
868.103	20587
868.233	20792
868.364	20739
868.495	20815
868.625	20887
868.756	21127
868.886	20914
869.017	20998
869.147	21096
869.278	21188
869.408	21017
869.539	21043
869.669	21131
869.799	21077
869.929	21135
870.06	21169
870.19	21355
870.32	21310
870.45	21302
870.58	21351
870.71	21549
870.84	21462
870.97	21450
871.1	21473
871.23	21622
871.36	21492
871.489	21466
871.619	21625
871.749	21382
871.879	21690
872.008	21709
872.138	21561
872.267	21606
872.397	21507
872.526	21447
872.656	21488
872.785	21496
872.915	21667
873.044	21686
873.173	21637
873.303	21656
873.432	21599
873.561	21698
873.69	21656
873.819	21557
873.948	21641
874.077	21682
874.206	21583
874.335	21561
874.464	21755
874.593	21876
874.722	21747
874.851	21793
874.979	21861
875.108	21972
875.237	21838
875.365	21865
875.494	21816
875.623	21892
875.751	21819
875.88	21907
876.008	21899
876.136	22086
876.265	22284
876.393	22348
876.521	22333
876.65	22272
876.778	22272
876.906	22150
877.034	22120
877.162	22135
877.29	22268
877.418	22371
877.546	22090
877.674	22230
877.802	22291
877.93	22291
878.058	22105
878.185	22025
878.313	22078
878.441	22124
878.568	22055
878.696	22074
878.824	22314
878.951	22162
879.079	22310
879.206	22516
879.333	22379
879.461	22188
879.588	22246
879.715	22318
879.842	22485
879.97	22367
880.097	22135
880.224	22059
880.351	22169
880.478	22040
880.605	22013
880.732	22048
880.859	22352
880.986	21964
881.112	21934
881.239	21918
881.366	21759
881.493	21583
881.619	21553
881.746	21648
881.872	21557
881.999	21534
882.125	21568
882.252	21572
882.378	21667
882.505	21728
882.631	21397
882.757	21340
882.883	21370
883.01	21416
883.136	21272
883.262	21074
883.388	21100
883.514	21321
883.64	21428
883.766	21199
883.892	21001
884.018	21104
884.143	21252
884.269	21336
884.395	20990
884.52	20975
884.646	20891
884.772	20914
884.897	20864
885.023	20914
885.148	21020
885.274	20967
885.399	20990
885.524	20868
885.65	20960
885.775	20899
885.9	20948
886.025	21009
886.15	21024
886.275	20804
886.4	20811
886.525	20902
886.65	20925
886.775	20765
886.9	20967
887.025	21009
887.149	20986
887.274	20727
887.399	20735
887.523	20640
887.648	20644
887.773	20720
887.897	20731
888.021	20834
888.146	20636
888.27	20735
888.395	20842
888.519	20785
888.643	20765
888.767	20746
888.891	20727
889.015	20503
889.139	20621
889.263	20454
889.387	20606
889.511	20716
889.635	20655
889.759	20374
889.883	20564
890.006	20556
890.13	20552
890.254	20400
890.377	20454
890.501	20225
890.624	20172
890.748	20358
890.871	20100
890.995	19974
891.118	20031
891.241	20100
891.364	20122
891.488	20119
891.611	20054
891.734	20126
891.857	20278
891.98	20027
892.103	20206
892.226	20103
892.349	19959
892.471	19902
892.594	19955
892.717	20081
892.839	19986
892.962	20046
893.085	20069
893.207	19982
893.33	19883
893.452	20016
893.575	20065
893.697	20016
893.819	19955
893.941	20130
894.064	20077
894.186	19925
894.308	19982
894.43	20024
894.552	20039
894.674	20092
894.796	19902
894.918	19970
895.04	19978
895.161	20027
895.283	20081
895.405	19928
895.526	19963
895.648	19902
895.769	19986
895.891	20050
896.012	20050
896.134	19959
896.255	19967
896.376	19951
896.498	20035
896.619	20054
896.74	20046
896.861	20035
896.982	20362
897.103	20427
897.224	20259
897.345	20267
897.466	20149
897.587	20305
897.708	20358
897.828	20134
897.949	20088
898.07	20065
898.19	20107
898.311	20176
898.431	20168
898.552	20214
898.672	20358
898.792	20237
898.913	20275
899.033	20100
899.153	20024
899.273	19902
899.393	20088
899.513	20031
899.633	19936
899.753	19982
899.873	19833
899.993	19967
900.113	19803
900.232	19906
900.352	19830
900.472	19670
900.591	19681
900.711	19780
900.83	19681
900.95	19769
901.069	19780
901.189	19559
901.308	19415
901.427	19232
901.546	19388
901.665	19354
901.784	19392
901.904	19217
902.023	19137
902.141	18958
902.26	18779
902.379	18859
902.498	18920
902.617	18772
902.735	18833
902.854	18825
902.973	18753
903.091	18540
903.21	18490
903.328	18525
903.446	18452
903.565	18319
903.683	18334
903.801	18125
903.919	18247
904.038	18239
904.156	18045
904.274	18194
904.392	18049
904.51	18079
904.627	18083
904.745	18110
904.863	18140
904.981	17999
905.098	17722
905.216	17783
905.334	17771
905.451	17828
905.569	17657
905.686	17703
905.803	17672
905.921	17577
906.038	17562
906.155	17707
906.272	17391
906.389	17471
906.506	17200
906.623	17174
906.74	17292
906.857	17235
906.974	17147
907.091	17311
907.208	17364
907.324	17265
907.441	17159
907.557	17037
907.674	16850
907.79	16908
907.907	17010
908.023	17045
908.139	17041
908.256	16828
908.372	16930
908.488	16923
908.604	16733
908.72	16771
908.836	16771
908.952	16618
909.068	16778
909.184	16736
909.3	16615
909.415	16748
909.531	16683
909.647	16481
909.762	16542
909.878	16398
909.993	16447
910.108	16398
910.224	16409
910.339	16379
910.454	16348
910.57	16249
910.685	16280
910.8	16459
910.915	16356
911.03	16238
911.145	16059
911.259	16063
911.374	15945
911.489	15994
911.604	15915
911.718	15797
911.833	15785
911.947	15732
912.062	15519
912.176	15739
912.291	15759
912.405	15781
912.519	15926
912.633	15960
912.748	15793
912.862	15789
912.976	15633
913.09	15504
913.204	15519
913.318	15591
913.431	15747
913.545	15747
913.659	15682
913.772	15599
913.886	15382
914	15412
914.113	15481
914.226	15561
914.34	15523
914.453	15287
914.566	15485
914.68	15283
914.793	15218
914.906	15108
915.019	15047
915.132	14982
915.245	14990
915.358	15039
915.47	14975
915.583	15020
915.696	15039
915.809	15058
915.921	15093
916.034	14979
916.146	14887
916.259	14902
916.371	14921
916.483	14944
916.595	14777
916.708	14815
916.82	14857
916.932	14785
917.044	14735
917.156	14705
917.268	14678
917.38	14663
917.491	14667
917.603	14579
917.715	14606
917.826	14701
917.938	14617
918.049	14469
918.161	14594
918.272	14731
918.384	14758
918.495	14583
918.606	14492
918.717	14324
918.828	14530
918.939	14541
919.05	14423
919.161	14282
919.272	14096
919.383	14290
919.494	14571
919.604	14568
919.715	14351
919.826	14237
919.936	14355
920.047	14469
920.157	14351
920.267	14495
920.378	14385
920.488	14355
920.598	14552
920.708	14686
920.818	14518
920.928	14530
921.038	14640
921.148	14606
921.258	14336
921.368	14157
921.477	14164
921.587	14077
921.697	14005
921.806	14103
921.916	13982
922.025	13864
922.134	13807
922.244	13746
922.353	13700
922.462	13670
922.571	13483
922.68	13487
922.789	13388
922.898	13407
923.007	13403
923.116	13453
923.224	13438
923.333	13415
923.442	13225
923.55	13217
923.659	13285
923.767	13293
923.876	13236
923.984	13362
924.092	13080
924.201	13244
924.309	13225
924.417	13179
924.525	12973
924.633	13164
924.741	13887
924.849	12924
924.956	13038
925.064	12928
925.172	12764
925.279	12844
925.387	12856
925.494	12825
925.602	12913
925.709	12871
925.816	12749
925.924	12802
926.031	12932
926.138	12738
926.245	12757
926.352	12757
926.459	12779
926.566	12768
926.673	12684
926.779	12665
926.886	12563
926.993	12410
927.099	12498
927.206	12304
927.312	12342
927.419	12330
927.525	12418
927.631	12391
927.737	12308
927.843	12201
927.95	12216
928.056	12228
928.162	12262
928.267	12315
928.373	12814
928.479	12338
928.585	12053
928.69	12117
928.796	12171
928.901	12117
929.007	11874
929.112	12136
929.218	12072
929.323	11999
929.428	11942
929.533	12072
929.638	11832
929.743	11866
929.848	11958
929.953	11923
930.058	11847
930.163	11668
930.267	11619
930.372	11832
930.477	11657
930.581	11878
930.685	11714
930.79	11497
930.894	11562
930.998	11539
931.103	11676
931.207	11337
931.311	11288
931.415	11086
931.519	10866
931.623	10892
