Data from test_V78500241_3586.txt Node
Date: Fri Mar 25 15:34:49 CST 2022
User: usil
Spectrometer: V785-0024
Trigger mode: 0
Integration Time (sec): 4.000000E-1
Scans to average: 1
Nonlinearity correction enabled: false
Boxcar width: 0
Storing dark spectrum: false
XAxis mode: Wavelengths
Number of Pixels in Spectrum: 1024
>>>>>Begin Spectral Data<<<<<
801.071	27378
801.214	27340
801.356	27123
801.499	26994
801.641	26838
801.783	26937
801.926	26868
802.068	26872
802.211	26815
802.353	26724
802.496	26629
802.638	26446
802.78	26492
802.923	26412
803.065	26396
803.208	26465
803.35	26351
803.492	26724
803.635	26777
803.777	26492
803.919	26701
804.061	27066
804.204	26686
804.346	26564
804.488	26541
804.63	26613
804.773	26583
804.915	26853
805.057	26830
805.199	26667
805.341	26743
805.483	26674
805.626	26777
805.768	26636
805.91	26754
806.052	26891
806.194	26693
806.336	26864
806.478	26708
806.62	26720
806.762	26883
806.904	27100
807.046	27283
807.188	27207
807.33	27138
807.472	27405
807.614	27074
807.756	27089
807.898	27058
808.04	26982
808.182	26967
808.324	26952
808.465	27089
808.607	27264
808.749	27363
808.891	27481
809.033	27622
809.174	27447
809.316	27313
809.458	27416
809.6	27317
809.741	27359
809.883	27447
810.025	27682
810.166	27534
810.308	27671
810.45	27675
810.591	27564
810.733	27393
810.875	27496
811.016	27237
811.158	27264
811.299	27492
811.441	27507
811.582	27545
811.724	27389
811.865	27313
812.007	27321
812.148	27283
812.29	27458
812.431	27492
812.573	27652
812.714	27804
812.855	27865
812.997	28044
813.138	28105
813.279	28017
813.421	27930
813.562	27873
813.703	27774
813.845	27534
813.986	27264
814.127	27180
814.268	27104
814.41	27093
814.551	27047
814.692	27055
814.833	27043
814.974	27032
815.115	27062
815.256	26975
815.397	26990
815.539	26929
815.68	26834
815.821	26693
815.962	26838
816.103	26819
816.244	26697
816.385	26621
816.526	26636
816.666	26400
816.807	26305
816.948	26286
817.089	26214
817.23	26286
817.371	26275
817.512	26290
817.653	26172
817.793	26259
817.934	26256
818.075	26294
818.216	26332
818.356	26210
818.497	26191
818.638	25997
818.778	25997
818.919	26058
819.06	26134
819.2	26142
819.341	26434
819.481	26164
819.622	26412
819.762	26629
819.903	26682
820.043	26377
820.184	26488
820.324	26366
820.465	26564
820.605	26396
820.746	26313
820.886	26214
821.026	26343
821.167	26252
821.307	26400
821.447	26317
821.588	26176
821.728	26008
821.868	25841
822.008	25746
822.149	25738
822.289	25727
822.429	25571
822.569	25502
822.709	25377
822.849	25232
822.99	25251
823.13	25141
823.27	25206
823.41	25152
823.55	24951
823.69	25118
823.83	25156
823.97	24996
824.11	24951
824.25	24916
824.389	24890
824.529	25042
824.669	24886
824.809	25004
824.949	25042
825.089	24989
825.228	24943
825.368	24658
825.508	24776
825.648	24757
825.787	24913
825.927	24814
826.067	24783
826.206	24821
826.346	24840
826.485	24935
826.625	24692
826.765	24730
826.904	24798
827.044	24486
827.183	24570
827.323	24464
827.462	24544
827.601	24521
827.741	24372
827.88	24540
828.02	24258
828.159	24505
828.298	24448
828.437	24517
828.577	24277
828.716	24498
828.855	24357
828.994	24220
829.134	24125
829.273	24194
829.412	24201
829.551	24125
829.69	24190
829.829	24201
829.968	24258
830.107	24232
830.246	24239
830.385	24251
830.524	24106
830.663	24083
830.802	24003
830.941	23874
831.08	23813
831.219	23889
831.357	23904
831.496	23901
831.635	23798
831.774	23646
831.913	23756
832.051	23592
832.19	23581
832.329	23710
832.467	23448
832.606	23467
832.744	23649
832.883	23421
833.022	23630
833.16	23531
833.299	23516
833.437	23581
833.576	23596
833.714	23745
833.852	23547
833.991	23676
834.129	23684
834.267	23653
834.406	23608
834.544	23604
834.682	23638
834.821	23619
834.959	23680
835.097	23558
835.235	23649
835.373	23570
835.511	23535
835.65	23459
835.788	23383
835.926	23398
836.064	23277
836.202	23254
836.34	23246
836.478	23482
836.615	23459
836.753	23455
836.891	23501
837.029	23448
837.167	23372
837.305	23345
837.443	23345
837.58	23170
837.718	23242
837.856	23303
837.993	23185
838.131	23235
838.269	23197
838.406	23250
838.544	23090
838.681	22873
838.819	22820
838.956	22759
839.094	22771
839.231	22831
839.369	22938
839.506	23132
839.643	23010
839.781	22736
839.918	22687
840.055	22725
840.193	22694
840.33	22752
840.467	22858
840.604	22759
840.742	22999
840.879	22615
841.016	22599
841.153	22451
841.29	22713
841.427	22607
841.564	22744
841.701	22653
841.838	22603
841.975	22599
842.112	22508
842.249	22622
842.385	22432
842.522	22778
842.659	22447
842.796	22474
842.933	22379
843.069	22405
843.206	22356
843.343	22481
843.479	22432
843.616	22443
843.752	22318
843.889	22249
844.025	22390
844.162	22192
844.298	22257
844.435	22249
844.571	22200
844.708	22154
844.844	22299
844.98	22428
845.117	22337
845.253	22097
845.389	22131
845.525	22185
845.661	22036
845.798	22051
845.934	22070
846.07	21953
846.206	22029
846.342	22051
846.478	21869
846.614	21709
846.75	21705
846.886	21675
847.022	21701
847.158	21690
847.294	21629
847.429	21728
847.565	21690
847.701	21827
847.837	21500
847.972	21389
848.108	21591
848.244	21420
848.379	21317
848.515	21260
848.65	21207
848.786	21306
848.921	21218
849.057	21466
849.192	21348
849.328	21389
849.463	21378
849.598	21272
849.734	21233
849.869	21119
850.004	21123
850.14	21051
850.275	21112
850.41	21032
850.545	21028
850.68	20982
850.815	21043
850.95	20952
851.085	21336
851.22	21066
851.355	21135
851.49	21116
851.625	20914
851.76	21005
851.895	20925
852.03	20956
852.165	21043
852.299	21055
852.434	21108
852.569	21074
852.703	21001
852.838	21150
852.973	21241
853.107	21093
853.242	21089
853.376	20975
853.511	20769
853.645	20815
853.78	20975
853.914	20899
854.048	20929
854.183	20758
854.317	20902
854.451	21138
854.585	20952
854.72	20944
854.854	20906
854.988	20857
855.122	21013
855.256	20807
855.39	20914
855.524	21039
855.658	20842
855.792	20861
855.926	21005
856.06	20944
856.194	20967
856.327	20819
856.461	20842
856.595	20883
856.729	20868
856.862	20834
856.996	20826
857.13	20986
857.263	20929
857.397	20975
857.53	20804
857.664	20857
857.797	20963
857.931	21024
858.064	20906
858.197	21028
858.331	20914
858.464	20891
858.597	20895
858.731	20857
858.864	20918
858.997	20872
859.13	20845
859.263	20918
859.396	20998
859.529	20880
859.662	20819
859.795	20781
859.928	20891
860.061	20963
860.194	20944
860.327	20910
860.46	20872
860.592	21081
860.725	21036
860.858	20925
860.99	20971
861.123	20899
861.256	20815
861.388	20861
861.521	21724
861.653	20788
861.786	20602
861.918	20655
862.05	20686
862.183	20800
862.315	20811
862.447	20838
862.58	20785
862.712	20708
862.844	20549
862.976	20765
863.108	20739
863.24	21009
863.372	20606
863.504	20689
863.636	20594
863.768	20602
863.9	20670
864.032	20609
864.164	20621
864.296	20560
864.428	20670
864.559	20564
864.691	20606
864.823	20594
864.954	20651
865.086	20571
865.217	20503
865.349	20404
865.48	20552
865.612	20579
865.743	20708
865.875	20568
866.006	20503
866.137	20533
866.269	20400
866.4	20457
866.531	20434
866.662	20336
866.793	20446
866.924	20400
867.055	20549
867.186	20389
867.317	20396
867.448	20355
867.579	20412
867.71	20393
867.841	20309
867.972	20412
868.103	20377
868.233	20400
868.364	20419
868.495	20408
868.625	20636
868.756	20693
868.886	20594
869.017	20712
869.147	20773
869.278	20921
869.408	20796
869.539	20746
869.669	20765
869.799	20750
869.929	20796
870.06	20872
870.19	21066
870.32	20948
870.45	21081
870.58	21104
870.71	21207
870.84	21150
870.97	21138
871.1	21188
871.23	21321
871.36	21268
871.489	21150
871.619	21313
871.749	21348
871.879	21329
872.008	21412
872.138	21211
872.267	21386
872.397	21157
872.526	21146
872.656	21154
872.785	21188
872.915	21348
873.044	21378
873.173	21256
873.303	21310
873.432	21348
873.561	21401
873.69	21241
873.819	21412
873.948	21287
874.077	21306
874.206	21241
874.335	21310
874.464	21386
874.593	21542
874.722	21485
874.851	21622
874.979	21625
875.108	21675
875.237	21580
875.365	21481
875.494	21507
875.623	21542
875.751	21504
875.88	21625
876.008	21736
876.136	21755
876.265	21922
876.393	22051
876.521	21930
876.65	22059
876.778	22051
876.906	21915
877.034	21964
877.162	21892
877.29	21823
877.418	21895
877.546	21819
877.674	21873
877.802	21876
877.93	21774
878.058	22044
878.185	21880
878.313	21789
878.441	21915
878.568	21682
878.696	21861
878.824	21857
878.951	22105
879.079	21975
879.206	22181
879.333	22188
879.461	21991
879.588	22086
879.715	22101
879.842	22010
879.97	21895
880.097	21728
880.224	21720
880.351	21831
880.478	21766
880.605	21728
880.732	21671
880.859	21937
880.986	21713
881.112	21698
881.239	21663
881.366	21488
881.493	21355
881.619	21359
881.746	21405
881.872	21393
881.999	21291
882.125	21272
882.252	21233
882.378	21386
882.505	21435
882.631	21119
882.757	21062
882.883	21020
883.01	21066
883.136	20944
883.262	20967
883.388	20792
883.514	20937
883.64	21074
883.766	20838
883.892	20758
884.018	20921
884.143	21036
884.269	21017
884.395	20689
884.52	20674
884.646	20735
884.772	20564
884.897	20564
885.023	20689
885.148	20815
885.274	20792
885.399	20716
885.524	20682
885.65	20815
885.775	20765
885.9	20655
886.025	20792
886.15	20697
886.275	20632
886.4	20495
886.525	20598
886.65	20640
886.775	20571
886.9	20697
887.025	20891
887.149	20594
887.274	20469
887.399	20404
887.523	20404
887.648	20400
887.773	20374
887.897	20564
888.021	20454
888.146	20419
888.27	20632
888.395	20438
888.519	20434
888.643	20454
888.767	20457
888.891	20313
889.015	20271
889.139	20358
889.263	20206
889.387	20320
889.511	20457
889.635	20305
889.759	20237
889.883	20225
890.006	20237
890.13	20309
890.254	20183
890.377	20244
890.501	20001
890.624	19925
890.748	20050
890.871	19959
890.995	19780
891.118	19677
891.241	19917
891.364	19894
891.488	19852
891.611	19807
891.734	19731
891.857	19993
891.98	19822
892.103	19868
892.226	19860
892.349	19845
892.471	19632
892.594	19700
892.717	19719
892.839	19776
892.962	19742
893.085	19757
893.207	19620
893.33	19658
893.452	19563
893.575	19799
893.697	19852
893.819	19928
893.941	19875
894.064	19871
894.186	19677
894.308	19632
894.43	19753
894.552	19856
894.674	19807
894.796	19712
894.918	19685
895.04	19719
895.161	19795
895.283	19837
895.405	19643
895.526	19742
895.648	19643
895.769	19693
895.891	19852
896.012	19864
896.134	19750
896.255	19750
896.376	19643
896.498	19700
896.619	19723
896.74	19696
896.861	19708
896.982	19974
897.103	20161
897.224	19997
897.345	19868
897.466	19944
897.587	19944
897.708	20145
897.828	19982
897.949	19951
898.07	19769
898.19	19963
898.311	19955
898.431	19932
898.552	20043
898.672	20073
898.792	20069
898.913	19902
899.033	19841
899.153	19700
899.273	19750
899.393	19799
899.513	19727
899.633	19784
899.753	19769
899.873	19620
899.993	19753
900.113	19525
900.232	19696
900.352	19624
900.472	19540
900.591	19483
900.711	19510
900.83	19373
900.95	19681
901.069	19525
901.189	19362
901.308	19137
901.427	19057
901.546	19012
901.665	19129
901.784	19145
901.904	18916
902.023	18787
902.141	18719
902.26	18570
902.379	18597
902.498	18498
902.617	18448
902.735	18715
902.854	18509
902.973	18384
903.091	18235
903.21	18342
903.328	18292
903.446	18163
903.565	17999
903.683	18190
903.801	17866
903.919	18049
904.038	18068
904.156	17843
904.274	17855
904.392	17817
904.51	17916
904.627	17889
904.745	17901
904.863	17897
904.981	17646
905.098	17573
905.216	17558
905.334	17577
905.451	17509
905.569	17543
905.686	17532
905.803	17543
905.921	17395
906.038	17436
906.155	17436
906.272	17315
906.389	17258
906.506	17098
906.623	17003
906.74	17075
906.857	16930
906.974	17121
907.091	17121
907.208	17128
907.324	17098
907.441	16976
907.557	16881
907.674	16885
907.79	16679
907.907	16729
908.023	16782
908.139	16755
908.256	16634
908.372	16550
908.488	16675
908.604	16550
908.72	16455
908.836	16535
908.952	16535
909.068	16440
909.184	16615
909.3	16421
909.415	16459
909.531	16535
909.647	16272
909.762	16390
909.878	16131
909.993	16196
910.108	16128
910.224	16169
910.339	16299
910.454	16063
910.57	16029
910.685	15949
910.8	16200
910.915	16169
911.03	16040
911.145	15907
911.259	15857
911.374	15797
911.489	15846
911.604	15656
911.718	15610
911.833	15618
911.947	15515
912.062	15416
912.176	15504
912.291	15610
912.405	15576
912.519	15701
912.633	15667
912.748	15648
912.862	15523
912.976	15439
913.09	15359
913.204	15218
913.318	15351
913.431	15515
913.545	15530
913.659	15458
913.772	15386
913.886	15222
914	15161
914.113	15405
914.226	15329
914.34	15241
914.453	15024
914.566	15188
914.68	15138
914.793	15085
914.906	14861
915.019	14914
915.132	14731
915.245	14739
915.358	14815
915.47	14861
915.583	14838
915.696	14792
915.809	15028
915.921	14845
916.034	14720
916.146	14693
916.259	14617
916.371	14697
916.483	14735
916.595	14560
916.708	14632
916.82	14636
916.932	14587
917.044	14678
917.156	14606
917.268	14484
917.38	14511
917.491	14343
917.603	14446
917.715	14488
917.826	14522
917.938	14423
918.049	14271
918.161	14476
918.272	14594
918.384	14579
918.495	14324
918.606	14221
918.717	14210
918.828	14252
918.939	14263
919.05	14210
919.161	14187
919.272	14035
919.383	14058
919.494	14328
919.604	14457
919.715	14180
919.826	14100
919.936	14157
920.047	14301
920.157	14187
920.267	14412
920.378	14244
920.488	14142
920.598	14374
920.708	14583
920.818	14351
920.928	14233
921.038	14545
921.148	14374
921.258	14191
921.368	14157
921.477	14043
921.587	13925
921.697	13814
921.806	13947
921.916	13864
922.025	13575
922.134	13563
922.244	13567
922.353	13616
922.462	13521
922.571	13400
922.68	13297
922.789	13228
922.898	13179
923.007	13145
923.116	13270
923.224	13213
923.333	13247
923.442	13091
923.55	13088
923.659	13095
923.767	13232
923.876	13042
923.984	13050
924.092	12954
924.201	13034
924.309	12943
924.417	12981
924.525	12833
924.633	12947
924.741	13925
924.849	12662
924.956	12825
925.064	12646
925.172	12642
925.279	12593
925.387	12684
925.494	12658
925.602	12890
925.709	12719
925.816	12608
925.924	12692
926.031	12749
926.138	12711
926.245	12650
926.352	12528
926.459	12589
926.566	12684
926.673	12593
926.779	12448
926.886	12426
926.993	12304
927.099	12285
927.206	12235
927.312	12117
927.419	12319
927.525	12262
927.631	12319
927.737	12106
927.843	12083
927.95	11996
928.056	11969
928.162	12076
928.267	12152
928.373	12604
928.479	12186
928.585	11946
928.69	12136
928.796	12015
928.901	12015
929.007	11878
929.112	11935
929.218	11866
929.323	11851
929.428	11878
929.533	11901
929.638	11764
929.743	11817
929.848	11798
929.953	11786
930.058	11642
930.163	11471
930.267	11467
930.372	11634
930.477	11573
930.581	11748
930.685	11634
930.79	11360
930.894	11474
930.998	11368
931.103	11505
931.207	11170
931.311	11124
931.415	10980
931.519	10721
931.623	10771
