Data from test_V78500241_2390.txt Node
Date: Fri Mar 25 15:26:30 CST 2022
User: usil
Spectrometer: V785-0024
Trigger mode: 0
Integration Time (sec): 4.000000E-1
Scans to average: 1
Nonlinearity correction enabled: false
Boxcar width: 0
Storing dark spectrum: false
XAxis mode: Wavelengths
Number of Pixels in Spectrum: 1024
>>>>>Begin Spectral Data<<<<<
801.071	27100
801.214	27043
801.356	26823
801.499	26792
801.641	26636
801.783	26621
801.926	26682
802.068	26583
802.211	26480
802.353	26556
802.496	26256
802.638	26157
802.78	26225
802.923	26176
803.065	26180
803.208	26157
803.35	26221
803.492	26396
803.635	26362
803.777	26267
803.919	26320
804.061	26659
804.204	26522
804.346	26332
804.488	26305
804.63	26396
804.773	26393
804.915	26396
805.057	26423
805.199	26381
805.341	26404
805.483	26560
805.626	26492
805.768	26434
805.91	26499
806.052	26575
806.194	26488
806.336	26697
806.478	26526
806.62	26427
806.762	26629
806.904	26739
807.046	26952
807.188	26902
807.33	26883
807.472	26925
807.614	26937
807.756	26899
807.898	26933
808.04	26849
808.182	26735
808.324	26830
808.465	26720
808.607	26925
808.749	27093
808.891	27138
809.033	27310
809.174	27043
809.316	27104
809.458	27096
809.6	27036
809.741	27096
809.883	27344
810.025	27237
810.166	27348
810.308	27321
810.45	27325
810.591	27313
810.733	27195
810.875	27112
811.016	26861
811.158	27074
811.299	27146
811.441	27138
811.582	27192
811.724	27036
811.865	27028
812.007	27146
812.148	27070
812.29	27169
812.431	27272
812.573	27397
812.714	27408
812.855	27743
812.997	27682
813.138	27755
813.279	27671
813.421	27553
813.562	27469
813.703	27294
813.845	27173
813.986	26975
814.127	26933
814.268	26731
814.41	26861
814.551	26720
814.692	26785
814.833	26636
814.974	26602
815.115	26743
815.256	26655
815.397	26613
815.539	26613
815.68	26446
815.821	26457
815.962	26575
816.103	26533
816.244	26381
816.385	26393
816.526	26301
816.666	26267
816.807	25963
816.948	26195
817.089	25955
817.23	26005
817.371	26024
817.512	26012
817.653	25955
817.793	25959
817.934	25879
818.075	25906
818.216	25966
818.356	25970
818.497	25894
818.638	25696
818.778	25681
818.919	25761
819.06	25624
819.2	25727
819.341	25940
819.481	26001
819.622	26161
819.762	26332
819.903	26286
820.043	26278
820.184	25925
820.324	25982
820.465	26142
820.605	26107
820.746	25993
820.886	25982
821.026	25966
821.167	26077
821.307	26126
821.447	26073
821.588	25849
821.728	25765
821.868	25525
822.008	25529
822.149	25476
822.289	25350
822.429	25278
822.569	25114
822.709	25171
822.849	24920
822.99	24932
823.13	24837
823.27	24848
823.41	24703
823.55	24639
823.69	24920
823.83	24722
823.97	24593
824.11	24517
824.25	24433
824.389	24570
824.529	24711
824.669	24601
824.809	24677
824.949	24555
825.089	24669
825.228	24547
825.368	24570
825.508	24433
825.648	24448
825.787	24502
825.927	24464
826.067	24464
826.206	24517
826.346	24441
826.485	24593
826.625	24391
826.765	24460
826.904	24498
827.044	24357
827.183	24251
827.323	24110
827.462	24064
827.601	24266
827.741	24159
827.88	24228
828.02	23992
828.159	24163
828.298	24155
828.437	24205
828.577	24144
828.716	24171
828.855	24007
828.994	23783
829.134	24003
829.273	23794
829.412	23809
829.551	23824
829.69	23920
829.829	23866
829.968	23889
830.107	23824
830.246	23969
830.385	23745
830.524	23779
830.663	23771
830.802	23619
830.941	23452
831.08	23459
831.219	23467
831.357	23535
831.496	23668
831.635	23535
831.774	23436
831.913	23436
832.051	23284
832.19	23307
832.329	23337
832.467	23136
832.606	23151
832.744	23102
832.883	23166
833.022	23143
833.16	23178
833.299	23212
833.437	23143
833.576	23277
833.714	23181
833.852	23269
833.991	23261
834.129	23284
834.267	23242
834.406	23181
834.544	23121
834.682	23330
834.821	23113
834.959	23356
835.097	23174
835.235	23269
835.373	23174
835.511	23303
835.65	23105
835.788	23064
835.926	22801
836.064	22930
836.202	22908
836.34	23052
836.478	23124
836.615	23018
836.753	22915
836.891	23071
837.029	23029
837.167	23037
837.305	22869
837.443	22858
837.58	22896
837.718	22976
837.856	22854
837.993	22774
838.131	22850
838.269	22710
838.406	22923
838.544	22793
838.681	22550
838.819	22542
838.956	22363
839.094	22421
839.231	22569
839.369	22672
839.506	22809
839.643	22649
839.781	22478
839.918	22272
840.055	22299
840.193	22375
840.33	22394
840.467	22424
840.604	22443
840.742	22596
840.879	22128
841.016	22295
841.153	22215
841.29	22459
841.427	22207
841.564	22367
841.701	22242
841.838	22287
841.975	22135
842.112	22325
842.249	22063
842.385	21991
842.522	22333
842.659	22048
842.796	22029
842.933	22097
843.069	22029
843.206	21903
843.343	22158
843.479	22147
843.616	21949
843.752	21838
843.889	21937
844.025	22013
844.162	21751
844.298	21941
844.435	21888
844.571	21800
844.708	21949
844.844	21987
844.98	21991
845.117	21949
845.253	21823
845.389	21728
845.525	21682
845.661	21694
845.798	21660
845.934	21614
846.07	21428
846.206	21580
846.342	21679
846.478	21682
846.614	21317
846.75	21306
846.886	21260
847.022	21367
847.158	21389
847.294	21294
847.429	21355
847.565	21249
847.701	21549
847.837	21009
847.972	21058
848.108	21154
848.244	21188
848.379	20849
848.515	20941
848.65	20842
848.786	20906
848.921	20906
849.057	20925
849.192	21024
849.328	20956
849.463	20925
849.598	20868
849.734	20773
849.869	20819
850.004	20644
850.14	20678
850.275	20693
850.41	20598
850.545	20507
850.68	20651
850.815	20682
850.95	20678
851.085	20963
851.22	20716
851.355	20697
851.49	20731
851.625	20552
851.76	20785
851.895	20556
852.03	20560
852.165	20739
852.299	20708
852.434	20651
852.569	20609
852.703	20670
852.838	20758
852.973	20609
853.107	20921
853.242	20594
853.376	20488
853.511	20358
853.645	20476
853.78	20640
853.914	20564
854.048	20503
854.183	20396
854.317	20469
854.451	20765
854.585	20511
854.72	20507
854.854	20484
854.988	20412
855.122	20476
855.256	20389
855.39	20503
855.524	20590
855.658	20571
855.792	20560
855.926	20537
856.06	20488
856.194	20522
856.327	20484
856.461	20484
856.595	20412
856.729	20522
856.862	20571
856.996	20575
857.13	20594
857.263	20655
857.397	20571
857.53	20640
857.664	20606
857.797	20552
857.931	20590
858.064	20556
858.197	20564
858.331	20476
858.464	20465
858.597	20347
858.731	20492
858.864	20526
858.997	20427
859.13	20492
859.263	20465
859.396	20632
859.529	20492
859.662	20431
859.795	20431
859.928	20450
860.061	20659
860.194	20697
860.327	20568
860.46	20434
860.592	20625
860.725	20655
860.858	20640
860.99	20503
861.123	20446
861.256	20355
861.388	20674
861.521	21112
861.653	20355
861.786	20225
861.918	20332
862.05	20526
862.183	20469
862.315	20415
862.447	20552
862.58	20393
862.712	20176
862.844	20157
862.976	20229
863.108	20218
863.24	20579
863.372	20122
863.504	20191
863.636	20153
863.768	20221
863.9	20301
864.032	20111
864.164	20191
864.296	20271
864.428	20343
864.559	20298
864.691	20290
864.823	20225
864.954	20164
865.086	20210
865.217	20206
865.349	20077
865.48	20054
865.612	20259
865.743	20237
865.875	20164
866.006	20138
866.137	20062
866.269	20164
866.4	20069
866.531	20107
866.662	19986
866.793	20062
866.924	20153
867.055	20130
867.186	20088
867.317	20199
867.448	19967
867.579	19974
867.71	20016
867.841	20016
867.972	20062
868.103	20088
868.233	20043
868.364	20122
868.495	20088
868.625	20358
868.756	20404
868.886	20244
869.017	20362
869.147	20480
869.278	20415
869.408	20404
869.539	20275
869.669	20294
869.799	20290
869.929	20377
870.06	20282
870.19	20457
870.32	20560
870.45	20617
870.58	20651
870.71	20823
870.84	20720
870.97	20667
871.1	20727
871.23	20819
871.36	21047
871.489	20800
871.619	20895
871.749	20887
871.879	20872
872.008	20982
872.138	20883
872.267	20891
872.397	20644
872.526	20838
872.656	20781
872.785	20636
872.915	20982
873.044	20971
873.173	20960
873.303	20963
873.432	20956
873.561	21032
873.69	21032
873.819	20956
873.948	21024
874.077	20986
874.206	20811
874.335	20933
874.464	21062
874.593	21020
874.722	21218
874.851	21260
874.979	21173
875.108	21214
875.237	21096
875.365	21116
875.494	21100
875.623	21226
875.751	21135
875.88	21256
876.008	21367
876.136	21306
876.265	21629
876.393	21576
876.521	21656
876.65	21717
876.778	21599
876.906	21614
877.034	21481
877.162	21466
877.29	21420
877.418	21500
877.546	21614
877.674	21545
877.802	21485
877.93	21534
878.058	21500
878.185	21336
878.313	21488
878.441	21561
878.568	21488
878.696	21515
878.824	21580
878.951	21557
879.079	21667
879.206	21857
879.333	21793
879.461	21492
879.588	21648
879.715	21766
879.842	21739
879.97	21576
880.097	21363
880.224	21310
880.351	21325
880.478	21359
880.605	21294
880.732	21264
880.859	21644
880.986	21359
881.112	21469
881.239	21226
881.366	21051
881.493	20975
881.619	21058
881.746	20925
881.872	21070
881.999	21005
882.125	20853
882.252	20918
882.378	20876
882.505	21058
882.631	20823
882.757	20724
882.883	20724
883.01	20594
883.136	20579
883.262	20488
883.388	20442
883.514	20640
883.64	20701
883.766	20640
883.892	20385
884.018	20541
884.143	20594
884.269	20712
884.395	20423
884.52	20244
884.646	20275
884.772	20278
884.897	20244
885.023	20229
885.148	20351
885.274	20503
885.399	20492
885.524	20358
885.65	20180
885.775	20324
885.9	20271
886.025	20370
886.15	20362
886.275	20339
886.4	20347
886.525	20309
886.65	20343
886.775	20248
886.9	20313
887.025	20427
887.149	20324
887.274	20195
887.399	20115
887.523	20130
887.648	20069
887.773	20016
887.897	20138
888.021	20176
888.146	20043
888.27	20088
888.395	20050
888.519	20084
888.643	20096
888.767	20126
888.891	19982
889.015	19890
889.139	20035
889.263	19928
889.387	19967
889.511	20065
889.635	20062
889.759	19906
889.883	19845
890.006	19917
890.13	19951
890.254	19898
890.377	19890
890.501	19708
890.624	19571
890.748	19643
890.871	19624
890.995	19514
891.118	19468
891.241	19468
891.364	19605
891.488	19620
891.611	19480
891.734	19468
891.857	19548
891.98	19533
892.103	19620
892.226	19457
892.349	19422
892.471	19316
892.594	19453
892.717	19529
892.839	19320
892.962	19460
893.085	19426
893.207	19411
893.33	19400
893.452	19282
893.575	19525
893.697	19415
893.819	19559
893.941	19647
894.064	19548
894.186	19453
894.308	19346
894.43	19449
894.552	19616
894.674	19487
894.796	19369
894.918	19381
895.04	19373
895.161	19403
895.283	19502
895.405	19476
895.526	19396
895.648	19403
895.769	19365
895.891	19491
896.012	19571
896.134	19578
896.255	19419
896.376	19354
896.498	19483
896.619	19480
896.74	19453
896.861	19510
896.982	19708
897.103	19788
897.224	19693
897.345	19594
897.466	19685
897.587	19605
897.708	19765
897.828	19696
897.949	19594
898.07	19533
898.19	19567
898.311	19723
898.431	19567
898.552	19658
898.672	19704
898.792	19860
898.913	19647
899.033	19537
899.153	19556
899.273	19400
899.393	19483
899.513	19464
899.633	19438
899.753	19438
899.873	19320
899.993	19343
900.113	19445
900.232	19369
900.352	19422
900.472	19251
900.591	19145
900.711	19152
900.83	19129
900.95	19339
901.069	19285
901.189	19168
901.308	18829
901.427	18810
901.546	18814
901.665	18852
901.784	18829
901.904	18673
902.023	18563
902.141	18281
902.26	18380
902.379	18391
902.498	18441
902.617	18304
902.735	18407
902.854	18319
902.973	18235
903.091	18026
903.21	18022
903.328	18041
903.446	17935
903.565	17817
903.683	17828
903.801	17748
903.919	17745
904.038	17699
904.156	17509
904.274	17615
904.392	17516
904.51	17520
904.627	17570
904.745	17718
904.863	17699
904.981	17497
905.098	17185
905.216	17326
905.334	17296
905.451	17322
905.569	17280
905.686	17303
905.803	17284
905.921	17037
906.038	17090
906.155	17006
906.272	16968
906.389	17022
906.506	16763
906.623	16820
906.74	16793
906.857	16611
906.974	16729
907.091	16850
907.208	16968
907.324	16771
907.441	16599
907.557	16504
907.674	16462
907.79	16462
907.907	16611
908.023	16527
908.139	16580
908.256	16489
908.372	16447
908.488	16398
908.604	16268
908.72	16257
908.836	16246
908.952	16181
909.068	16360
909.184	16462
909.3	16230
909.415	16268
909.531	16287
909.647	15899
909.762	16021
909.878	15876
909.993	16010
910.108	15956
910.224	15918
910.339	16006
910.454	15800
910.57	15804
910.685	15660
910.8	15968
910.915	15934
911.03	15785
911.145	15644
911.259	15622
911.374	15557
911.489	15488
911.604	15405
911.718	15310
911.833	15348
911.947	15214
912.062	15161
912.176	15344
912.291	15374
912.405	15302
912.519	15488
912.633	15485
912.748	15329
912.862	15302
912.976	15127
913.09	15047
913.204	15047
913.318	15097
913.431	15260
913.545	15264
913.659	15272
913.772	15077
913.886	14906
914	15013
914.113	15058
914.226	15085
914.34	15146
914.453	14899
914.566	14868
914.68	14804
914.793	14861
914.906	14648
915.019	14670
915.132	14495
915.245	14545
915.358	14568
915.47	14617
915.583	14556
915.696	14507
915.809	14682
915.921	14613
916.034	14446
916.146	14480
916.259	14507
916.371	14537
916.483	14587
916.595	14336
916.708	14320
916.82	14343
916.932	14275
917.044	14355
917.156	14385
917.268	14263
917.38	14237
917.491	14218
917.603	14240
917.715	14267
917.826	14332
917.938	14233
918.049	14145
918.161	14183
918.272	14237
918.384	14336
918.495	14206
918.606	14043
918.717	13928
918.828	13894
918.939	13970
919.05	13936
919.161	14069
919.272	13811
919.383	13841
919.494	14092
919.604	14187
919.715	13944
919.826	13959
919.936	13978
920.047	14020
920.157	14008
920.267	14149
920.378	14027
920.488	13921
920.598	14142
920.708	14271
920.818	14157
920.928	14084
921.038	14229
921.148	14252
921.258	13925
921.368	13837
921.477	13681
921.587	13784
921.697	13533
921.806	13693
921.916	13502
922.025	13430
922.134	13377
922.244	13362
922.353	13422
922.462	13274
922.571	13194
922.68	13091
922.789	12985
922.898	12993
923.007	13072
923.116	13008
923.224	13019
923.333	12962
923.442	12935
923.55	12848
923.659	12852
923.767	13004
923.876	12764
923.984	12966
924.092	12783
924.201	12802
924.309	12787
924.417	12817
924.525	12783
924.633	12730
924.741	13632
924.849	12517
924.956	12665
925.064	12513
925.172	12464
925.279	12460
925.387	12475
925.494	12467
925.602	12639
925.709	12456
925.816	12380
925.924	12471
926.031	12445
926.138	12547
926.245	12441
926.352	12285
926.459	12464
926.566	12528
926.673	12285
926.779	12197
926.886	12213
926.993	12106
927.099	11965
927.206	12041
927.312	11931
927.419	12076
927.525	12121
927.631	12095
927.737	12034
927.843	11843
927.95	11809
928.056	11927
928.162	11885
928.267	11977
928.373	12494
928.479	11996
928.585	11836
928.69	11893
928.796	11916
928.901	11764
929.007	11600
929.112	11836
929.218	11680
929.323	11623
929.428	11634
929.533	11695
929.638	11562
929.743	11482
929.848	11653
929.953	11703
930.058	11467
930.163	11356
930.267	11383
930.372	11452
930.477	11250
930.581	11543
930.685	11349
930.79	11303
930.894	11265
930.998	11201
931.103	11292
931.207	11022
931.311	10968
931.415	10759
931.519	10679
931.623	10580
