Data from test_V78500241_2848.txt Node
Date: Fri Mar 25 15:29:41 CST 2022
User: usil
Spectrometer: V785-0024
Trigger mode: 0
Integration Time (sec): 4.000000E-1
Scans to average: 1
Nonlinearity correction enabled: false
Boxcar width: 0
Storing dark spectrum: false
XAxis mode: Wavelengths
Number of Pixels in Spectrum: 1024
>>>>>Begin Spectral Data<<<<<
801.071	27458
801.214	27233
801.356	26990
801.499	26963
801.641	26830
801.783	26807
801.926	26876
802.068	26762
802.211	26743
802.353	26689
802.496	26648
802.638	26556
802.78	26400
802.923	26157
803.065	26317
803.208	26282
803.35	26503
803.492	26640
803.635	26644
803.777	26522
803.919	26503
804.061	26899
804.204	26621
804.346	26583
804.488	26473
804.63	26545
804.773	26480
804.915	26762
805.057	26750
805.199	26560
805.341	26575
805.483	26716
805.626	26788
805.768	26648
805.91	26758
806.052	26674
806.194	26621
806.336	26811
806.478	26629
806.62	26785
806.762	26876
806.904	26872
807.046	27275
807.188	27173
807.33	27055
807.472	27233
807.614	27081
807.756	27150
807.898	26971
808.04	26788
808.182	26929
808.324	26979
808.465	26944
808.607	27363
808.749	27294
808.891	27545
809.033	27397
809.174	27420
809.316	27370
809.458	27367
809.6	27329
809.741	27519
809.883	27374
810.025	27682
810.166	27690
810.308	27439
810.45	27526
810.591	27378
810.733	27344
810.875	27283
811.016	27252
811.158	27226
811.299	27317
811.441	27618
811.582	27492
811.724	27393
811.865	27256
812.007	27386
812.148	27218
812.29	27279
812.431	27462
812.573	27641
812.714	27610
812.855	27774
812.997	27831
813.138	28055
813.279	27804
813.421	27884
813.562	27713
813.703	27538
813.845	27454
813.986	27237
814.127	27058
814.268	26982
814.41	27051
814.551	26929
814.692	26971
814.833	26956
814.974	26921
815.115	27036
815.256	26781
815.397	26914
815.539	26834
815.68	26731
815.821	26716
815.962	26785
816.103	26727
816.244	26575
816.385	26450
816.526	26541
816.666	26339
816.807	26252
816.948	26343
817.089	26202
817.23	26313
817.371	26199
817.512	26191
817.653	26263
817.793	26107
817.934	26122
818.075	26248
818.216	26256
818.356	26377
818.497	26062
818.638	25974
818.778	25860
818.919	26062
819.06	26100
819.2	26069
819.341	26214
819.481	26111
819.622	26396
819.762	26381
819.903	26495
820.043	26438
820.184	26343
820.324	26256
820.465	26393
820.605	26366
820.746	26286
820.886	26077
821.026	26252
821.167	26317
821.307	26294
821.447	26294
821.588	26138
821.728	25917
821.868	25894
822.008	25734
822.149	25670
822.289	25712
822.429	25419
822.569	25381
822.709	25316
822.849	25179
822.99	25164
823.13	25240
823.27	25168
823.41	25027
823.55	24882
823.69	25095
823.83	24989
823.97	25038
824.11	24833
824.25	24810
824.389	24829
824.529	24909
824.669	24840
824.809	24935
824.949	24935
825.089	24958
825.228	24837
825.368	24604
825.508	24620
825.648	24544
825.787	24661
825.927	24677
826.067	24715
826.206	24612
826.346	24798
826.485	24700
826.625	24741
826.765	24859
826.904	24741
827.044	24509
827.183	24460
827.323	24353
827.462	24464
827.601	24479
827.741	24327
827.88	24403
828.02	24289
828.159	24407
828.298	24258
828.437	24395
828.577	24159
828.716	24509
828.855	24136
828.994	24026
829.134	24174
829.273	24239
829.412	24140
829.551	24079
829.69	24053
829.829	24159
829.968	24186
830.107	24060
830.246	24060
830.385	24076
830.524	23980
830.663	23901
830.802	23832
830.941	23707
831.08	23726
831.219	23779
831.357	23718
831.496	23893
831.635	23665
831.774	23604
831.913	23516
832.051	23395
832.19	23501
832.329	23417
832.467	23372
832.606	23322
832.744	23383
832.883	23395
833.022	23242
833.16	23368
833.299	23277
833.437	23436
833.576	23425
833.714	23322
833.852	23459
833.991	23440
834.129	23486
834.267	23478
834.406	23414
834.544	23505
834.682	23376
834.821	23334
834.959	23486
835.097	23425
835.235	23360
835.373	23322
835.511	23570
835.65	23379
835.788	23269
835.926	23170
836.064	23105
836.202	23003
836.34	23330
836.478	23356
836.615	23280
836.753	23322
836.891	23334
837.029	23326
837.167	23239
837.305	23273
837.443	23060
837.58	23060
837.718	23162
837.856	23090
837.993	23090
838.131	23162
838.269	22949
838.406	23010
838.544	22915
838.681	22675
838.819	22577
838.956	22675
839.094	22626
839.231	22626
839.369	22752
839.506	22949
839.643	22854
839.781	22531
839.918	22485
840.055	22668
840.193	22546
840.33	22577
840.467	22462
840.604	22386
840.742	22725
840.879	22428
841.016	22341
841.153	22402
841.29	22535
841.427	22489
841.564	22470
841.701	22527
841.838	22481
841.975	22481
842.112	22508
842.249	22207
842.385	22303
842.522	22481
842.659	22402
842.796	22238
842.933	22166
843.069	22101
843.206	22185
843.343	22344
843.479	22257
843.616	22219
843.752	21983
843.889	22032
844.025	22112
844.162	21972
844.298	22169
844.435	22139
844.571	21968
844.708	22078
844.844	22226
844.98	22059
845.117	22188
845.253	22059
845.389	21876
845.525	21812
845.661	21854
845.798	21793
845.934	21850
846.07	21728
846.206	21778
846.342	21873
846.478	21797
846.614	21595
846.75	21526
846.886	21469
847.022	21641
847.158	21568
847.294	21473
847.429	21542
847.565	21428
847.701	21789
847.837	21192
847.972	21203
848.108	21393
848.244	21355
848.379	21093
848.515	21077
848.65	21131
848.786	21142
848.921	21009
849.057	21256
849.192	21173
849.328	21100
849.463	21081
849.598	21123
849.734	20876
849.869	20880
850.004	20952
850.14	20910
850.275	20807
850.41	20887
850.545	20716
850.68	20967
850.815	20914
850.95	20743
851.085	21036
851.22	20979
851.355	20872
851.49	20807
851.625	20826
851.76	20857
851.895	20883
852.03	20796
852.165	20697
852.299	20948
852.434	20963
852.569	20785
852.703	20906
852.838	21001
852.973	20948
853.107	20963
853.242	20826
853.376	20762
853.511	20552
853.645	20655
853.78	20788
853.914	20720
854.048	20625
854.183	20617
854.317	20686
854.451	20773
854.585	20663
854.72	20769
854.854	20727
854.988	20697
855.122	20735
855.256	20575
855.39	20541
855.524	20640
855.658	20754
855.792	20739
855.926	20705
856.06	20819
856.194	20724
856.327	20716
856.461	20587
856.595	20571
856.729	20716
856.862	20765
856.996	20705
857.13	20636
857.263	20739
857.397	20746
857.53	20606
857.664	20697
857.797	20758
857.931	20777
858.064	20602
858.197	20883
858.331	20629
858.464	20682
858.597	20530
858.731	20575
858.864	20670
858.997	20777
859.13	20697
859.263	20674
859.396	20743
859.529	20686
859.662	20602
859.795	20651
859.928	20682
860.061	20819
860.194	20785
860.327	20739
860.46	20716
860.592	20857
860.725	20864
860.858	20838
860.99	20674
861.123	20579
861.256	20541
861.388	20590
861.521	21367
861.653	20674
861.786	20568
861.918	20552
862.05	20636
862.183	20579
862.315	20655
862.447	20552
862.58	20667
862.712	20336
862.844	20400
862.976	20362
863.108	20587
863.24	20944
863.372	20351
863.504	20415
863.636	20507
863.768	20461
863.9	20374
864.032	20400
864.164	20351
864.296	20469
864.428	20522
864.559	20507
864.691	20556
864.823	20400
864.954	20317
865.086	20396
865.217	20298
865.349	20206
865.48	20317
865.612	20290
865.743	20202
865.875	20305
866.006	20161
866.137	20278
866.269	20172
866.4	20282
866.531	20199
866.662	20244
866.793	20324
866.924	20286
867.055	20229
867.186	20206
867.317	20225
867.448	20050
867.579	20252
867.71	20164
867.841	20199
867.972	20195
868.103	20259
868.233	20233
868.364	20374
868.495	20244
868.625	20476
868.756	20568
868.886	20461
869.017	20469
869.147	20526
869.278	20617
869.408	20503
869.539	20492
869.669	20602
869.799	20568
869.929	20617
870.06	20594
870.19	20800
870.32	20750
870.45	20891
870.58	21028
870.71	20944
870.84	21032
870.97	20895
871.1	20864
871.23	20979
871.36	21085
871.489	20971
871.619	21020
871.749	21089
871.879	21077
872.008	21047
872.138	21203
872.267	21066
872.397	20941
872.526	20838
872.656	20921
872.785	20994
872.915	21165
873.044	21214
873.173	21211
873.303	21249
873.432	21066
873.561	21233
873.69	21146
873.819	21093
873.948	21256
874.077	21051
874.206	21135
874.335	21119
874.464	21222
874.593	21344
874.722	21329
874.851	21348
874.979	21363
875.108	21454
875.237	21283
875.365	21279
875.494	21496
875.623	21477
875.751	21386
875.88	21329
876.008	21511
876.136	21530
876.265	21774
876.393	21941
876.521	21789
876.65	21819
876.778	21774
876.906	21728
877.034	21747
877.162	21857
877.29	21736
877.418	21728
877.546	21671
877.674	21747
877.802	21724
877.93	21717
878.058	21709
878.185	21648
878.313	21770
878.441	21781
878.568	21492
878.696	21728
878.824	21648
878.951	21816
879.079	21926
879.206	22055
879.333	21861
879.461	21694
879.588	21892
879.715	21831
879.842	21937
879.97	21728
880.097	21591
880.224	21545
880.351	21633
880.478	21633
880.605	21622
880.732	21580
880.859	21808
880.986	21564
881.112	21561
881.239	21408
881.366	21218
881.493	21237
881.619	21157
881.746	21089
881.872	21093
881.999	21123
882.125	21131
882.252	21218
882.378	21184
882.505	21192
882.631	21005
882.757	20807
882.883	20925
883.01	20750
883.136	20708
883.262	20765
883.388	20754
883.514	20838
883.64	20819
883.766	20720
883.892	20613
884.018	20629
884.143	20872
884.269	20864
884.395	20583
884.52	20381
884.646	20537
884.772	20396
884.897	20328
885.023	20541
885.148	20625
885.274	20625
885.399	20613
885.524	20533
885.65	20556
885.775	20636
885.9	20408
886.025	20640
886.15	20632
886.275	20450
886.4	20393
886.525	20625
886.65	20438
886.775	20400
886.9	20613
887.025	20655
887.149	20408
887.274	20301
887.399	20267
887.523	20278
887.648	20202
887.773	20054
887.897	20362
888.021	20328
888.146	20263
888.27	20332
888.395	20259
888.519	20240
888.643	20256
888.767	20282
888.891	20092
889.015	20100
889.139	20126
889.263	19967
889.387	20206
889.511	20351
889.635	20142
889.759	19947
889.883	20001
890.006	20058
890.13	20027
890.254	19978
890.377	19967
890.501	19917
890.624	19795
890.748	19841
890.871	19696
890.995	19559
891.118	19495
891.241	19662
891.364	19738
891.488	19795
891.611	19655
891.734	19613
891.857	19674
891.98	19601
892.103	19578
892.226	19590
892.349	19563
892.471	19605
892.594	19499
892.717	19666
892.839	19544
892.962	19590
893.085	19556
893.207	19499
893.33	19460
893.452	19502
893.575	19681
893.697	19529
893.819	19628
893.941	19776
894.064	19666
894.186	19483
894.308	19457
894.43	19708
894.552	19689
894.674	19643
894.796	19548
894.918	19540
895.04	19540
895.161	19624
895.283	19518
895.405	19480
895.526	19605
895.648	19571
895.769	19700
895.891	19620
896.012	19613
896.134	19510
896.255	19632
896.376	19548
896.498	19666
896.619	19689
896.74	19567
896.861	19655
896.982	19894
897.103	20069
897.224	19989
897.345	19837
897.466	19727
897.587	19723
897.708	19742
897.828	19917
897.949	19769
898.07	19708
898.19	19826
898.311	19967
898.431	19830
898.552	19753
898.672	19902
898.792	19921
898.913	19864
899.033	19590
899.153	19616
899.273	19502
899.393	19594
899.513	19521
899.633	19582
899.753	19605
899.873	19480
899.993	19662
900.113	19468
900.232	19521
900.352	19407
900.472	19400
900.591	19225
900.711	19384
900.83	19285
900.95	19426
901.069	19384
901.189	19312
901.308	19091
901.427	18897
901.546	19095
901.665	18920
901.784	19023
901.904	18719
902.023	18817
902.141	18623
902.26	18418
902.379	18593
902.498	18422
902.617	18479
902.735	18509
902.854	18475
902.973	18426
903.091	18060
903.21	18087
903.328	18178
903.446	18087
903.565	18030
903.683	17935
903.801	17836
903.919	17988
904.038	17775
904.156	17828
904.274	17813
904.392	17691
904.51	17741
904.627	17718
904.745	17745
904.863	17840
904.981	17547
905.098	17421
905.216	17429
905.334	17387
905.451	17436
905.569	17345
905.686	17345
905.803	17383
905.921	17208
906.038	17231
906.155	17220
906.272	17060
906.389	17052
906.506	16965
906.623	16866
906.74	16862
906.857	16866
906.974	16854
907.091	16987
907.208	17052
907.324	16908
907.441	16877
907.557	16691
907.674	16664
907.79	16519
907.907	16550
908.023	16706
908.139	16637
908.256	16611
908.372	16558
908.488	16440
908.604	16489
908.72	16424
908.836	16325
908.952	16390
909.068	16375
909.184	16538
909.3	16367
909.415	16421
909.531	16432
909.647	16097
909.762	16135
909.878	16067
909.993	16158
910.108	16040
910.224	15975
910.339	16109
910.454	15987
910.57	15941
910.685	15873
910.8	16150
910.915	16090
911.03	15964
911.145	15743
911.259	15713
911.374	15747
911.489	15637
911.604	15462
911.718	15408
911.833	15485
911.947	15351
912.062	15317
912.176	15504
912.291	15439
912.405	15454
912.519	15675
912.633	15675
912.748	15504
912.862	15351
912.976	15211
913.09	15135
913.204	15222
913.318	15184
913.431	15321
913.545	15294
913.659	15412
913.772	15230
913.886	15176
914	14921
914.113	15138
914.226	15192
914.34	15066
914.453	14956
914.566	15097
914.68	14910
914.793	14899
914.906	14716
915.019	14697
915.132	14613
915.245	14689
915.358	14667
915.47	14769
915.583	14727
915.696	14629
915.809	14720
915.921	14811
916.034	14636
916.146	14579
916.259	14613
916.371	14682
916.483	14549
916.595	14526
916.708	14503
916.82	14503
916.932	14438
917.044	14602
917.156	14389
917.268	14290
917.38	14377
917.491	14362
917.603	14351
917.715	14400
917.826	14511
917.938	14317
918.049	14142
918.161	14259
918.272	14423
918.384	14412
918.495	14248
918.606	14218
918.717	14035
918.828	14145
918.939	14221
919.05	14043
919.161	14027
919.272	13909
919.383	13936
919.494	14138
919.604	14362
919.715	14073
919.826	14046
919.936	14138
920.047	14202
920.157	14081
920.267	14298
920.378	14046
920.488	14065
920.598	14218
920.708	14419
920.818	14221
920.928	14294
921.038	14454
921.148	14317
921.258	14054
921.368	13997
921.477	13936
921.587	13788
921.697	13746
921.806	13906
921.916	13685
922.025	13518
922.134	13499
922.244	13518
922.353	13563
922.462	13343
922.571	13327
922.68	13152
922.789	13137
922.898	13259
923.007	13088
923.116	13103
923.224	13122
923.333	13202
923.442	13031
923.55	13000
923.659	13004
923.767	13042
923.876	12795
923.984	12973
924.092	12852
924.201	12837
924.309	12890
924.417	12871
924.525	12894
924.633	12772
924.741	13753
924.849	12620
924.956	12741
925.064	12570
925.172	12494
925.279	12551
925.387	12597
925.494	12498
925.602	12646
925.709	12642
925.816	12448
925.924	12486
926.031	12608
926.138	12608
926.245	12563
926.352	12429
926.459	12528
926.566	12673
926.673	12498
926.779	12334
926.886	12327
926.993	12152
927.099	12205
927.206	12159
927.312	12079
927.419	12117
927.525	12155
927.631	12159
927.737	11992
927.843	11931
927.95	11874
928.056	12019
928.162	11984
928.267	12003
928.373	12582
928.479	12079
928.585	11863
928.69	11954
928.796	11885
928.901	11908
929.007	11726
929.112	11897
929.218	11859
929.323	11718
929.428	11653
929.533	11851
929.638	11619
929.743	11581
929.848	11741
929.953	11676
930.058	11581
930.163	11459
930.267	11566
930.372	11581
930.477	11379
930.581	11611
930.685	11448
930.79	11315
930.894	11277
930.998	11250
931.103	11368
931.207	11029
931.311	10965
931.415	10930
931.519	10710
931.623	10694
