Data from test_V78500241_3541.txt Node
Date: Fri Mar 25 15:34:30 CST 2022
User: usil
Spectrometer: V785-0024
Trigger mode: 0
Integration Time (sec): 4.000000E-1
Scans to average: 1
Nonlinearity correction enabled: false
Boxcar width: 0
Storing dark spectrum: false
XAxis mode: Wavelengths
Number of Pixels in Spectrum: 1024
>>>>>Begin Spectral Data<<<<<
801.071	27256
801.214	27264
801.356	27017
801.499	26952
801.641	26815
801.783	26735
801.926	26891
802.068	26819
802.211	26590
802.353	26651
802.496	26545
802.638	26575
802.78	26511
802.923	26381
803.065	26343
803.208	26339
803.35	26522
803.492	26537
803.635	26663
803.777	26530
803.919	26655
804.061	27047
804.204	26629
804.346	26514
804.488	26469
804.63	26438
804.773	26674
804.915	26640
805.057	26670
805.199	26480
805.341	26686
805.483	26720
805.626	26613
805.768	26568
805.91	26636
806.052	26735
806.194	26530
806.336	26800
806.478	26644
806.62	26716
806.762	26746
806.904	26876
807.046	27218
807.188	27051
807.33	27211
807.472	27150
807.614	27058
807.756	27180
807.898	26902
808.04	26781
808.182	26982
808.324	26899
808.465	26960
808.607	27317
808.749	27237
808.891	27226
809.033	27344
809.174	27367
809.316	27336
809.458	27351
809.6	27218
809.741	27329
809.883	27302
810.025	27614
810.166	27561
810.308	27603
810.45	27553
810.591	27424
810.733	27306
810.875	27279
811.016	27165
811.158	27066
811.299	27241
811.441	27424
811.582	27504
811.724	27195
811.865	27249
812.007	27279
812.148	27313
812.29	27260
812.431	27485
812.573	27511
812.714	27713
812.855	27755
812.997	27739
813.138	28109
813.279	27781
813.421	27755
813.562	27800
813.703	27606
813.845	27534
813.986	27214
814.127	27142
814.268	26998
814.41	26998
814.551	26982
814.692	27100
814.833	26937
814.974	26967
815.115	26944
815.256	26777
815.397	26807
815.539	26792
815.68	26663
815.821	26511
815.962	26785
816.103	26765
816.244	26708
816.385	26541
816.526	26499
816.666	26309
816.807	26191
816.948	26282
817.089	26237
817.23	26164
817.371	26206
817.512	26229
817.653	26210
817.793	26145
817.934	26221
818.075	26153
818.216	26248
818.356	26218
818.497	26039
818.638	25871
818.778	25921
818.919	25989
819.06	26096
819.2	26176
819.341	26088
819.481	26248
819.622	26396
819.762	26583
819.903	26537
820.043	26461
820.184	26328
820.324	26419
820.465	26374
820.605	26267
820.746	26294
820.886	26248
821.026	26199
821.167	26320
821.307	26221
821.447	26229
821.588	26134
821.728	26039
821.868	25734
822.008	25723
822.149	25693
822.289	25658
822.429	25468
822.569	25468
822.709	25183
822.849	25217
822.99	25110
823.13	25194
823.27	25133
823.41	25046
823.55	24970
823.69	25061
823.83	24901
823.97	24943
824.11	24779
824.25	24779
824.389	24783
824.529	24943
824.669	24856
824.809	25004
824.949	24909
825.089	24886
825.228	24852
825.368	24688
825.508	24620
825.648	24726
825.787	24700
825.927	24738
826.067	24700
826.206	24722
826.346	24722
826.485	24601
826.625	24700
826.765	24722
826.904	24795
827.044	24490
827.183	24460
827.323	24247
827.462	24376
827.601	24338
827.741	24414
827.88	24414
828.02	24304
828.159	24418
828.298	24414
828.437	24475
828.577	24239
828.716	24528
828.855	24281
828.994	24178
829.134	24190
829.273	24144
829.412	24110
829.551	24057
829.69	24155
829.829	24262
829.968	24167
830.107	24155
830.246	24174
830.385	24083
830.524	23996
830.663	24007
830.802	23878
830.941	23646
831.08	23767
831.219	23741
831.357	23931
831.496	23882
831.635	23786
831.774	23680
831.913	23676
832.051	23425
832.19	23566
832.329	23589
832.467	23402
832.606	23349
832.744	23398
832.883	23459
833.022	23467
833.16	23505
833.299	23391
833.437	23436
833.576	23551
833.714	23429
833.852	23585
833.991	23505
834.129	23562
834.267	23391
834.406	23501
834.544	23486
834.682	23452
834.821	23604
834.959	23570
835.097	23341
835.235	23493
835.373	23467
835.511	23562
835.65	23360
835.788	23280
835.926	23273
836.064	23170
836.202	23208
836.34	23349
836.478	23505
836.615	23341
836.753	23334
836.891	23356
837.029	23436
837.167	23258
837.305	23292
837.443	23162
837.58	23159
837.718	23067
837.856	23025
837.993	23143
838.131	23204
838.269	23102
838.406	23109
838.544	23044
838.681	22858
838.819	22717
838.956	22569
839.094	22740
839.231	22767
839.369	22828
839.506	22957
839.643	22873
839.781	22653
839.918	22622
840.055	22641
840.193	22519
840.33	22622
840.467	22588
840.604	22656
840.742	22793
840.879	22459
841.016	22596
841.153	22500
841.29	22672
841.427	22634
841.564	22599
841.701	22615
841.838	22599
841.975	22618
842.112	22367
842.249	22535
842.385	22348
842.522	22504
842.659	22443
842.796	22360
842.933	22424
843.069	22314
843.206	22371
843.343	22478
843.479	22459
843.616	22470
843.752	22204
843.889	22211
844.025	22265
844.162	21968
844.298	22181
844.435	22192
844.571	22029
844.708	22211
844.844	22105
844.98	22295
845.117	22215
845.253	22048
845.389	21926
845.525	21964
845.661	22048
845.798	21895
845.934	21975
846.07	21800
846.206	21899
846.342	21998
846.478	21895
846.614	21660
846.75	21591
846.886	21606
847.022	21701
847.158	21709
847.294	21663
847.429	21587
847.565	21622
847.701	21835
847.837	21393
847.972	21310
848.108	21511
848.244	21447
848.379	21283
848.515	21321
848.65	21154
848.786	21176
848.921	21173
849.057	21329
849.192	21291
849.328	21230
849.463	21123
849.598	21150
849.734	21146
849.869	21123
850.004	20880
850.14	20941
850.275	20986
850.41	20906
850.545	21013
850.68	20902
850.815	20971
850.95	20887
851.085	21214
851.22	21005
851.355	21017
851.49	21077
851.625	20864
851.76	20914
851.895	20857
852.03	20880
852.165	20853
852.299	21024
852.434	20941
852.569	21009
852.703	20925
852.838	21013
852.973	21077
853.107	21081
853.242	20918
853.376	20800
853.511	20686
853.645	20758
853.78	20990
853.914	20743
854.048	20705
854.183	20754
854.317	20800
854.451	21058
854.585	20823
854.72	20781
854.854	20902
854.988	20735
855.122	20800
855.256	20670
855.39	20716
855.524	20876
855.658	20842
855.792	20891
855.926	20963
856.06	20807
856.194	20937
856.327	20674
856.461	20762
856.595	20765
856.729	20758
856.862	20906
856.996	20823
857.13	20842
857.263	20944
857.397	20792
857.53	20785
857.664	20906
857.797	20868
857.931	20842
858.064	20956
858.197	20956
858.331	20864
858.464	20807
858.597	20705
858.731	20765
858.864	20845
858.997	20750
859.13	20754
859.263	20815
859.396	20899
859.529	20788
859.662	20800
859.795	20834
859.928	20739
860.061	20868
860.194	21077
860.327	20826
860.46	20781
860.592	20963
860.725	20906
860.858	20963
860.99	20823
861.123	20750
861.256	20804
861.388	20792
861.521	21504
861.653	20636
861.786	20575
861.918	20552
862.05	20636
862.183	20705
862.315	20674
862.447	20864
862.58	20697
862.712	20549
862.844	20606
862.976	20663
863.108	20640
863.24	20864
863.372	20427
863.504	20492
863.636	20495
863.768	20511
863.9	20457
864.032	20415
864.164	20606
864.296	20499
864.428	20651
864.559	20621
864.691	20609
864.823	20564
864.954	20549
865.086	20530
865.217	20507
865.349	20362
865.48	20431
865.612	20431
865.743	20693
865.875	20457
866.006	20336
866.137	20465
866.269	20419
866.4	20339
866.531	20366
866.662	20370
866.793	20309
866.924	20320
867.055	20412
867.186	20434
867.317	20457
867.448	20298
867.579	20290
867.71	20259
867.841	20385
867.972	20393
868.103	20343
868.233	20366
868.364	20332
868.495	20457
868.625	20549
868.756	20705
868.886	20522
869.017	20613
869.147	20735
869.278	20682
869.408	20602
869.539	20511
869.669	20739
869.799	20689
869.929	20758
870.06	20705
870.19	20807
870.32	21005
870.45	20990
870.58	20929
870.71	21047
870.84	21112
870.97	21039
871.1	21039
871.23	21230
871.36	21146
871.489	21074
871.619	21093
871.749	21112
871.879	21150
872.008	21298
872.138	21146
872.267	21173
872.397	21032
872.526	21028
872.656	21043
872.785	21055
872.915	21306
873.044	21344
873.173	21260
873.303	21256
873.432	21348
873.561	21233
873.69	21340
873.819	21104
873.948	21252
874.077	21344
874.206	21070
874.335	21287
874.464	21382
874.593	21416
874.722	21370
874.851	21450
874.979	21466
875.108	21583
875.237	21511
875.365	21344
875.494	21450
875.623	21599
875.751	21412
875.88	21443
876.008	21568
876.136	21797
876.265	21953
876.393	22051
876.521	21937
876.65	21941
876.778	21895
876.906	21770
877.034	21827
877.162	21892
877.29	21808
877.418	21816
877.546	21766
877.674	21819
877.802	21789
877.93	21835
878.058	21755
878.185	21766
878.313	21675
878.441	21861
878.568	21861
878.696	21675
878.824	21941
878.951	21732
879.079	22078
879.206	21968
879.333	21953
879.461	21846
879.588	21759
879.715	21994
879.842	22010
879.97	22013
880.097	21648
880.224	21789
880.351	21660
880.478	21633
880.605	21572
880.732	21762
880.859	21968
880.986	21595
881.112	21595
881.239	21580
881.366	21469
881.493	21287
881.619	21199
881.746	21188
881.872	21195
881.999	21127
882.125	21203
882.252	21233
882.378	21093
882.505	21348
882.631	21157
882.757	20857
882.883	21055
883.01	20906
883.136	20929
883.262	20773
883.388	20705
883.514	20921
883.64	20960
883.766	20899
883.892	20750
884.018	20720
884.143	20826
884.269	20796
884.395	20731
884.52	20670
884.646	20552
884.772	20469
884.897	20495
885.023	20636
885.148	20686
885.274	20644
885.399	20648
885.524	20518
885.65	20617
885.775	20720
885.9	20644
886.025	20708
886.15	20689
886.275	20575
886.4	20556
886.525	20598
886.65	20590
886.775	20526
886.9	20701
887.025	20731
887.149	20587
887.274	20450
887.399	20320
887.523	20317
887.648	20355
887.773	20355
887.897	20450
888.021	20362
888.146	20259
888.27	20427
888.395	20488
888.519	20355
888.643	20393
888.767	20377
888.891	20263
889.015	20100
889.139	20237
889.263	20210
889.387	20248
889.511	20415
889.635	20115
889.759	20107
889.883	20164
890.006	20164
890.13	20256
890.254	20039
890.377	20153
890.501	20005
890.624	19833
890.748	19951
890.871	19856
890.995	19689
891.118	19677
891.241	19799
891.364	19833
891.488	19837
891.611	19681
891.734	19784
891.857	19753
891.98	19841
892.103	19841
892.226	19769
892.349	19616
892.471	19563
892.594	19578
892.717	19510
892.839	19590
892.962	19609
893.085	19674
893.207	19635
893.33	19651
893.452	19605
893.575	19586
893.697	19635
893.819	19868
893.941	19898
894.064	19765
894.186	19628
894.308	19616
894.43	19712
894.552	19852
894.674	19681
894.796	19540
894.918	19605
895.04	19613
895.161	19643
895.283	19635
895.405	19499
895.526	19700
895.648	19677
895.769	19700
895.891	19734
896.012	19757
896.134	19700
896.255	19605
896.376	19674
896.498	19704
896.619	19658
896.74	19658
896.861	19715
896.982	19898
897.103	20062
897.224	20058
897.345	19841
897.466	19864
897.587	19890
897.708	20073
897.828	20012
897.949	19860
898.07	19723
898.19	19803
898.311	19936
898.431	19856
898.552	19814
898.672	19967
898.792	19982
898.913	19967
899.033	19719
899.153	19632
899.273	19655
899.393	19677
899.513	19708
899.633	19624
899.753	19818
899.873	19628
899.993	19624
900.113	19552
900.232	19597
900.352	19495
900.472	19441
900.591	19388
900.711	19411
900.83	19285
900.95	19457
901.069	19438
901.189	19373
901.308	19126
901.427	19000
901.546	18993
901.665	19053
901.784	19088
901.904	18954
902.023	18837
902.141	18597
902.26	18578
902.379	18536
902.498	18502
902.617	18532
902.735	18623
902.854	18528
902.973	18525
903.091	18186
903.21	18228
903.328	18319
903.446	18136
903.565	18022
903.683	18064
903.801	17843
903.919	18007
904.038	17992
904.156	17767
904.274	17851
904.392	17653
904.51	17703
904.627	17824
904.745	17832
904.863	17859
904.981	17592
905.098	17353
905.216	17421
905.334	17455
905.451	17497
905.569	17474
905.686	17459
905.803	17398
905.921	17273
906.038	17360
906.155	17200
906.272	17067
906.389	17147
906.506	16991
906.623	17174
906.74	16995
906.857	16816
906.974	16828
907.091	17060
907.208	17022
907.324	17003
907.441	16953
907.557	16824
907.674	16736
907.79	16683
907.907	16630
908.023	16793
908.139	16740
908.256	16733
908.372	16679
908.488	16599
908.604	16527
908.72	16432
908.836	16447
908.952	16371
909.068	16436
909.184	16542
909.3	16405
909.415	16470
909.531	16371
909.647	16207
909.762	16185
909.878	16204
909.993	16093
910.108	16093
910.224	16124
910.339	16173
910.454	15972
910.57	16059
910.685	15892
910.8	16219
910.915	16074
911.03	15884
911.145	15800
911.259	15907
911.374	15698
911.489	15648
911.604	15652
911.718	15542
911.833	15500
911.947	15477
912.062	15279
912.176	15545
912.291	15526
912.405	15500
912.519	15686
912.633	15591
912.748	15561
912.862	15435
912.976	15294
913.09	15256
913.204	15370
913.318	15363
913.431	15408
913.545	15367
913.659	15294
913.772	15367
913.886	15146
914	15138
914.113	15176
914.226	15195
914.34	15093
914.453	15032
914.566	15100
914.68	15066
914.793	14960
914.906	14830
915.019	14739
915.132	14716
915.245	14708
915.358	14701
915.47	14796
915.583	14739
915.696	14811
915.809	14743
915.921	14876
916.034	14724
916.146	14686
916.259	14663
916.371	14815
916.483	14743
916.595	14511
916.708	14663
916.82	14655
916.932	14560
917.044	14404
917.156	14530
917.268	14427
917.38	14442
917.491	14324
917.603	14495
917.715	14469
917.826	14442
917.938	14377
918.049	14343
918.161	14286
918.272	14461
918.384	14518
918.495	14362
918.606	14111
918.717	14123
918.828	14214
918.939	14149
919.05	14065
919.161	14157
919.272	14039
919.383	14119
919.494	14142
919.604	14278
919.715	14149
919.826	14077
919.936	14111
920.047	14263
920.157	14195
920.267	14362
920.378	14199
920.488	13970
920.598	14305
920.708	14419
920.818	14275
920.928	14248
921.038	14431
921.148	14393
921.258	14161
921.368	14111
921.477	13967
921.587	13814
921.697	13784
921.806	13883
921.916	13658
922.025	13571
922.134	13571
922.244	13392
922.353	13681
922.462	13449
922.571	13354
922.68	13255
922.789	13183
922.898	13240
923.007	13209
923.116	13202
923.224	13156
923.333	13141
923.442	13076
923.55	12966
923.659	13019
923.767	13046
923.876	12985
923.984	13069
924.092	12916
924.201	13027
924.309	12920
924.417	12993
924.525	12905
924.633	12859
924.741	13658
924.849	12711
924.956	12760
925.064	12604
925.172	12585
925.279	12570
925.387	12662
925.494	12642
925.602	12688
925.709	12726
925.816	12582
925.924	12601
926.031	12566
926.138	12593
926.245	12604
926.352	12483
926.459	12616
926.566	12608
926.673	12525
926.779	12410
926.886	12388
926.993	12239
927.099	12338
927.206	12175
927.312	12140
927.419	12239
927.525	12254
927.631	12285
927.737	12125
927.843	12053
927.95	11916
928.056	12007
928.162	12057
928.267	12068
928.373	12536
928.479	12117
928.585	11859
928.69	11988
928.796	12091
928.901	11954
929.007	11817
929.112	11973
929.218	11866
929.323	11779
929.428	11691
929.533	11863
929.638	11646
929.743	11684
929.848	11836
929.953	11695
930.058	11478
930.163	11425
930.267	11436
930.372	11642
930.477	11448
930.581	11642
930.685	11493
930.79	11322
930.894	11448
930.998	11223
931.103	11391
931.207	11121
931.311	10965
931.415	10911
931.519	10771
931.623	10717
