Data from test_V78500241_1419.txt Node
Date: Fri Mar 25 15:19:44 CST 2022
User: usil
Spectrometer: V785-0024
Trigger mode: 0
Integration Time (sec): 4.000000E-1
Scans to average: 1
Nonlinearity correction enabled: false
Boxcar width: 0
Storing dark spectrum: false
XAxis mode: Wavelengths
Number of Pixels in Spectrum: 1024
>>>>>Begin Spectral Data<<<<<
801.071	28109
801.214	28078
801.356	27861
801.499	27926
801.641	27743
801.783	27633
801.926	27869
802.068	27576
802.211	27587
802.353	27599
802.496	27348
802.638	27389
802.78	27313
802.923	27207
803.065	27401
803.208	27237
803.35	27310
803.492	27481
803.635	27587
803.777	27500
803.919	27580
804.061	27873
804.204	27732
804.346	27466
804.488	27348
804.63	27511
804.773	27408
804.915	27477
805.057	27717
805.199	27637
805.341	27755
805.483	27663
805.626	27705
805.768	27545
805.91	27561
806.052	27679
806.194	27701
806.336	27823
806.478	27751
806.62	27728
806.762	27941
806.904	27945
807.046	28211
807.188	28112
807.33	28040
807.472	28116
807.614	27857
807.756	28101
807.898	27956
808.04	27953
808.182	27823
808.324	27949
808.465	27979
808.607	28276
808.749	28481
808.891	28455
809.033	28424
809.174	28329
809.316	28337
809.458	28322
809.6	28341
809.741	28527
809.883	28615
810.025	28755
810.166	28592
810.308	28672
810.45	28542
810.591	28405
810.733	28314
810.875	28234
811.016	28322
811.158	28246
811.299	28428
811.441	28478
811.582	28459
811.724	28379
811.865	28394
812.007	28348
812.148	28474
812.29	28401
812.431	28455
812.573	28653
812.714	28664
812.855	28919
812.997	28961
813.138	29060
813.279	29159
813.421	28961
813.562	28816
813.703	28577
813.845	28622
813.986	28234
814.127	28219
814.268	28063
814.41	28082
814.551	27956
814.692	28207
814.833	28013
814.974	28010
815.115	28128
815.256	27964
815.397	27861
815.539	27884
815.68	27983
815.821	27804
815.962	27911
816.103	27800
816.244	27580
816.385	27667
816.526	27637
816.666	27447
816.807	27412
816.948	27435
817.089	27443
817.23	27336
817.371	27344
817.512	27367
817.653	27420
817.793	27180
817.934	27363
818.075	27435
818.216	27401
818.356	27256
818.497	27180
818.638	26967
818.778	27043
818.919	27176
819.06	27112
819.2	27203
819.341	27279
819.481	27283
819.622	27583
819.762	27625
819.903	27523
820.043	27511
820.184	27504
820.324	27515
820.465	27603
820.605	27523
820.746	27408
820.886	27332
821.026	27306
821.167	27348
821.307	27504
821.447	27313
821.588	27096
821.728	27195
821.868	27066
822.008	26689
822.149	26640
822.289	26636
822.429	26571
822.569	26530
822.709	26469
822.849	26476
822.99	26336
823.13	26282
823.27	26172
823.41	26115
823.55	26153
823.69	26126
823.83	26168
823.97	26149
824.11	25917
824.25	25837
824.389	25982
824.529	26031
824.669	25906
824.809	26031
824.949	26149
825.089	26157
825.228	26065
825.368	25757
825.508	25814
825.648	25875
825.787	25849
825.927	25875
826.067	25761
826.206	25837
826.346	25944
826.485	25887
826.625	25753
826.765	25925
826.904	25928
827.044	25495
827.183	25662
827.323	25548
827.462	25559
827.601	25590
827.741	25540
827.88	25567
828.02	25525
828.159	25483
828.298	25495
828.437	25563
828.577	25525
828.716	25533
828.855	25282
828.994	25228
829.134	25297
829.273	25270
829.412	25175
829.551	25225
829.69	25156
829.829	25339
829.968	25228
830.107	25308
830.246	25381
830.385	25221
830.524	25228
830.663	24913
830.802	24920
830.941	24856
831.08	24875
831.219	24970
831.357	24901
831.496	25110
831.635	24768
831.774	24681
831.913	24715
832.051	24776
832.19	24646
832.329	24707
832.467	24521
832.606	24540
832.744	24353
832.883	24380
833.022	24536
833.16	24486
833.299	24532
833.437	24525
833.576	24570
833.714	24559
833.852	24722
833.991	24631
834.129	24589
834.267	24555
834.406	24475
834.544	24513
834.682	24688
834.821	24589
834.959	24707
835.097	24532
835.235	24574
835.373	24574
835.511	24471
835.65	24365
835.788	24388
835.926	24186
836.064	24136
836.202	24266
836.34	24407
836.478	24460
836.615	24410
836.753	24414
836.891	24517
837.029	24342
837.167	24262
837.305	24178
837.443	24353
837.58	24235
837.718	24357
837.856	24311
837.993	24270
838.131	24289
838.269	24152
838.406	24041
838.544	23980
838.681	23927
838.819	23946
838.956	23672
839.094	23672
839.231	23729
839.369	24015
839.506	24155
839.643	23923
839.781	23627
839.918	23687
840.055	23604
840.193	23543
840.33	23444
840.467	23695
840.604	23573
840.742	23885
840.879	23440
841.016	23562
841.153	23543
841.29	23817
841.427	23444
841.564	23756
841.701	23558
841.838	23551
841.975	23558
842.112	23433
842.249	23402
842.385	23387
842.522	23653
842.659	23299
842.796	23296
842.933	23311
843.069	23349
843.206	23368
843.343	23368
843.479	23258
843.616	23383
843.752	23239
843.889	23242
844.025	23440
844.162	23124
844.298	23113
844.435	23143
844.571	23117
844.708	23155
844.844	23311
844.98	23353
845.117	23189
845.253	22976
845.389	22999
845.525	23181
845.661	22904
845.798	22942
845.934	22824
846.07	22877
846.206	22957
846.342	22968
846.478	22816
846.614	22713
846.75	22668
846.886	22675
847.022	22721
847.158	22607
847.294	22634
847.429	22504
847.565	22592
847.701	22801
847.837	22337
847.972	22150
848.108	22447
848.244	22451
848.379	22215
848.515	22207
848.65	22246
848.786	22181
848.921	22154
849.057	22287
849.192	22265
849.328	22253
849.463	22051
849.598	21964
849.734	22154
849.869	21972
850.004	21941
850.14	21937
850.275	21922
850.41	21732
850.545	21918
850.68	21979
850.815	22048
850.95	22006
851.085	22131
851.22	22025
851.355	21972
851.49	21926
851.625	22025
851.76	21835
851.895	21854
852.03	21800
852.165	21831
852.299	21930
852.434	21991
852.569	21998
852.703	21949
852.838	22029
852.973	22154
853.107	21964
853.242	21972
853.376	21793
853.511	21759
853.645	21728
853.78	21960
853.914	21732
854.048	21663
854.183	21709
854.317	21816
854.451	21907
854.585	21759
854.72	21785
854.854	21800
854.988	21614
855.122	21884
855.256	21648
855.39	21736
855.524	21762
855.658	21911
855.792	21812
855.926	21823
856.06	21793
856.194	21876
856.327	21648
856.461	21675
856.595	21618
856.729	21728
856.862	21880
856.996	21732
857.13	21698
857.263	21865
857.397	21903
857.53	21705
857.664	21880
857.797	21694
857.931	21835
858.064	21591
858.197	21869
858.331	21644
858.464	21838
858.597	21690
858.731	21671
858.864	21694
858.997	21728
859.13	21728
859.263	21861
859.396	21751
859.529	21762
859.662	21736
859.795	21618
859.928	21816
860.061	21880
860.194	21987
860.327	21789
860.46	21652
860.592	21991
860.725	21895
860.858	22002
860.99	21838
861.123	21724
861.256	21762
861.388	21781
861.521	22367
861.653	21583
861.786	21576
861.918	21629
862.05	21606
862.183	21606
862.315	21781
862.447	21652
862.58	21660
862.712	21424
862.844	21458
862.976	21504
863.108	21469
863.24	21789
863.372	21500
863.504	21591
863.636	21416
863.768	21412
863.9	21515
864.032	21310
864.164	21389
864.296	21450
864.428	21568
864.559	21599
864.691	21564
864.823	21519
864.954	21542
865.086	21355
865.217	21363
865.349	21313
865.48	21272
865.612	21412
865.743	21450
865.875	21214
866.006	21351
866.137	21348
866.269	21378
866.4	21382
866.531	21279
866.662	21165
866.793	21291
866.924	21207
867.055	21313
867.186	21283
867.317	21302
867.448	21218
867.579	21329
867.71	21173
867.841	21252
867.972	21237
868.103	21325
868.233	21321
868.364	21325
868.495	21249
868.625	21572
868.756	21633
868.886	21572
869.017	21424
869.147	21549
869.278	21637
869.408	21477
869.539	21507
869.669	21637
869.799	21713
869.929	21667
870.06	21618
870.19	21762
870.32	21842
870.45	21861
870.58	21930
870.71	22002
870.84	22036
870.97	21800
871.1	21968
871.23	22063
871.36	22040
871.489	21953
871.619	22013
871.749	22093
871.879	22116
872.008	22200
872.138	22074
872.267	22192
872.397	21972
872.526	21926
872.656	21876
872.785	21953
872.915	22086
873.044	22173
873.173	22234
873.303	22150
873.432	22181
873.561	22306
873.69	22135
873.819	22032
873.948	22147
874.077	22200
874.206	21998
874.335	22116
874.464	22219
874.593	22299
874.722	22299
874.851	22481
874.979	22455
875.108	22238
875.237	22219
875.365	22223
875.494	22352
875.623	22409
875.751	22363
875.88	22367
876.008	22402
876.136	22500
876.265	22653
876.393	22763
876.521	22820
876.65	22778
876.778	22812
876.906	22786
877.034	22706
877.162	22717
877.29	22736
877.418	22622
877.546	22694
877.674	22656
877.802	22733
877.93	22660
878.058	22653
878.185	22611
878.313	22622
878.441	22702
878.568	22596
878.696	22637
878.824	22645
878.951	22672
879.079	22812
879.206	23113
879.333	22767
879.461	22649
879.588	22858
879.715	22767
879.842	22843
879.97	22710
880.097	22535
880.224	22417
880.351	22519
880.478	22363
880.605	22447
880.732	22497
880.859	22698
880.986	22421
881.112	22565
881.239	22360
881.366	22226
881.493	22139
881.619	22086
881.746	22029
881.872	21998
881.999	22101
882.125	22002
882.252	22036
882.378	21945
882.505	22120
882.631	21915
882.757	21759
882.883	21930
883.01	21785
883.136	21713
883.262	21606
883.388	21545
883.514	21728
883.64	21755
883.766	21705
883.892	21549
884.018	21656
884.143	21663
884.269	21816
884.395	21504
884.52	21336
884.646	21424
884.772	21367
884.897	21317
885.023	21378
885.148	21534
885.274	21576
885.399	21504
885.524	21378
885.65	21359
885.775	21336
885.9	21389
886.025	21477
886.15	21405
886.275	21329
886.4	21294
886.525	21332
886.65	21325
886.775	21336
886.9	21530
887.025	21515
887.149	21393
887.274	21157
887.399	21119
887.523	21135
887.648	21108
887.773	21104
887.897	21214
888.021	21146
888.146	21123
888.27	21245
888.395	21306
888.519	21268
888.643	21237
888.767	21066
888.891	21085
889.015	21020
889.139	20948
889.263	20948
889.387	21081
889.511	21176
889.635	21062
889.759	21028
889.883	20899
890.006	21070
890.13	20990
890.254	20796
890.377	20975
890.501	20800
890.624	20648
890.748	20720
890.871	20629
890.995	20556
891.118	20533
891.241	20598
891.364	20530
891.488	20640
891.611	20484
891.734	20545
891.857	20480
891.98	20518
892.103	20556
892.226	20507
892.349	20469
892.471	20301
892.594	20415
892.717	20556
892.839	20370
892.962	20446
893.085	20499
893.207	20320
893.33	20339
893.452	20317
893.575	20396
893.697	20362
893.819	20636
893.941	20625
894.064	20526
894.186	20438
894.308	20396
894.43	20450
894.552	20560
894.674	20423
894.796	20298
894.918	20499
895.04	20457
895.161	20518
895.283	20511
895.405	20252
895.526	20480
895.648	20434
895.769	20423
895.891	20503
896.012	20514
896.134	20495
896.255	20332
896.376	20396
896.498	20419
896.619	20450
896.74	20492
896.861	20450
896.982	20731
897.103	20857
897.224	20587
897.345	20568
897.466	20522
897.587	20621
897.708	20826
897.828	20571
897.949	20636
898.07	20488
898.19	20560
898.311	20712
898.431	20598
898.552	20571
898.672	20590
898.792	20636
898.913	20602
899.033	20606
899.153	20377
899.273	20286
899.393	20339
899.513	20404
899.633	20355
899.753	20446
899.873	20202
899.993	20465
900.113	20355
900.232	20362
900.352	20218
900.472	20206
900.591	20130
900.711	20195
900.83	20100
900.95	20301
901.069	20290
901.189	20081
901.308	19902
901.427	19795
901.546	19776
901.665	19753
901.784	19776
901.904	19696
902.023	19411
902.141	19289
902.26	19228
902.379	19266
902.498	19255
902.617	19156
902.735	19228
902.854	19221
902.973	19069
903.091	18966
903.21	18924
903.328	18928
903.446	18802
903.565	18696
903.683	18741
903.801	18559
903.919	18578
904.038	18616
904.156	18441
904.274	18429
904.392	18464
904.51	18353
904.627	18445
904.745	18437
904.863	18509
904.981	18232
905.098	18201
905.216	18144
905.334	18292
905.451	18163
905.569	18152
905.686	18232
905.803	17992
905.921	17893
906.038	17942
906.155	17935
906.272	17855
906.389	17836
906.506	17642
906.623	17733
906.74	17554
906.857	17589
906.974	17592
907.091	17642
907.208	17817
907.324	17779
907.441	17577
907.557	17360
907.674	17364
907.79	17322
907.907	17269
908.023	17551
908.139	17440
908.256	17235
908.372	17117
908.488	17235
908.604	17006
908.72	17113
908.836	17025
908.952	17014
909.068	17102
909.184	17197
909.3	17006
909.415	17113
909.531	17083
909.647	16850
909.762	16797
909.878	16786
909.993	16744
910.108	16672
910.224	16736
910.339	16748
910.454	16622
910.57	16603
910.685	16565
910.8	16816
910.915	16744
911.03	16508
911.145	16527
911.259	16379
911.374	16512
911.489	16375
911.604	16306
911.718	16150
911.833	16097
911.947	16090
912.062	15918
912.176	16059
912.291	16124
912.405	16135
912.519	16150
912.633	16242
912.748	16204
912.862	16025
912.976	15975
913.09	15789
913.204	15987
913.318	16063
913.431	16006
913.545	15934
913.659	16044
913.772	16044
913.886	15762
914	15736
914.113	15766
914.226	15880
914.34	15827
914.453	15614
914.566	15854
914.68	15614
914.793	15663
914.906	15393
915.019	15374
915.132	15382
915.245	15275
915.358	15367
915.47	15332
915.583	15317
915.696	15321
915.809	15435
915.921	15515
916.034	15340
916.146	15214
916.259	15222
916.371	15363
916.483	15192
916.595	15180
916.708	15150
916.82	15112
916.932	15104
917.044	15169
917.156	15047
917.268	14929
917.38	15093
917.491	14971
917.603	14967
917.715	15119
917.826	14998
917.938	14944
918.049	14823
918.161	14853
918.272	15104
918.384	15066
918.495	14944
918.606	14864
918.717	14594
918.828	14777
918.939	14823
919.05	14651
919.161	14777
919.272	14545
919.383	14579
919.494	14792
919.604	14895
919.715	14773
919.826	14617
919.936	14693
920.047	14689
920.157	14750
920.267	14880
920.378	14651
920.488	14716
920.598	14849
920.708	15032
920.818	14830
920.928	14773
921.038	14967
921.148	14948
921.258	14575
921.368	14556
921.477	14400
921.587	14362
921.697	14298
921.806	14465
921.916	14157
922.025	14134
922.134	14043
922.244	14024
922.353	14115
922.462	13909
922.571	13928
922.68	13727
922.789	13693
922.898	13689
923.007	13658
923.116	13780
923.224	13689
923.333	13734
923.442	13632
923.55	13556
923.659	13563
923.767	13590
923.876	13552
923.984	13613
924.092	13419
924.201	13464
924.309	13403
924.417	13403
924.525	13339
924.633	13392
924.741	14168
924.849	13236
924.956	13266
925.064	13122
925.172	13027
925.279	13198
925.387	13206
925.494	13164
925.602	13244
925.709	13099
925.816	13015
925.924	13103
926.031	13190
926.138	13015
926.245	13114
926.352	12935
926.459	13072
926.566	13027
926.673	12981
926.779	12886
926.886	12894
926.993	12707
927.099	12654
927.206	12635
927.312	12669
927.419	12658
927.525	12757
927.631	12722
927.737	12517
927.843	12521
927.95	12418
928.056	12551
928.162	12471
928.267	12528
928.373	13091
928.479	12589
928.585	12338
928.69	12452
928.796	12509
928.901	12350
929.007	12220
929.112	12346
929.218	12361
929.323	12270
929.428	12140
929.533	12338
929.638	12235
929.743	12106
929.848	12175
929.953	12148
930.058	12053
930.163	11916
930.267	11878
930.372	11961
930.477	11893
930.581	12091
930.685	11843
930.79	11828
930.894	11821
930.998	11840
931.103	11923
931.207	11524
931.311	11372
931.415	11433
931.519	11170
931.623	11147
