Data from test_V78500241_3165.txt Node
Date: Fri Mar 25 15:31:53 CST 2022
User: usil
Spectrometer: V785-0024
Trigger mode: 0
Integration Time (sec): 4.000000E-1
Scans to average: 1
Nonlinearity correction enabled: false
Boxcar width: 0
Storing dark spectrum: false
XAxis mode: Wavelengths
Number of Pixels in Spectrum: 1024
>>>>>Begin Spectral Data<<<<<
801.071	27161
801.214	27138
801.356	26811
801.499	26804
801.641	26701
801.783	26663
801.926	26693
802.068	26651
802.211	26587
802.353	26530
802.496	26488
802.638	26507
802.78	26427
802.923	26138
803.065	26267
803.208	26202
803.35	26286
803.492	26355
803.635	26366
803.777	26408
803.919	26499
804.061	26758
804.204	26484
804.346	26381
804.488	26434
804.63	26282
804.773	26351
804.915	26434
805.057	26571
805.199	26343
805.341	26419
805.483	26549
805.626	26609
805.768	26518
805.91	26720
806.052	26545
806.194	26590
806.336	26640
806.478	26552
806.62	26533
806.762	26670
806.904	26773
807.046	27104
807.188	27108
807.33	26883
807.472	26990
807.614	26861
807.756	26887
807.898	26777
808.04	26739
808.182	26811
808.324	26750
808.465	26724
808.607	27119
808.749	27131
808.891	27214
809.033	27252
809.174	27123
809.316	27188
809.458	27241
809.6	27123
809.741	27233
809.883	27332
810.025	27450
810.166	27405
810.308	27447
810.45	27443
810.591	27355
810.733	27214
810.875	27169
811.016	27077
811.158	26952
811.299	27161
811.441	27378
811.582	27279
811.724	27123
811.865	27093
812.007	27146
812.148	27043
812.29	27192
812.431	27157
812.573	27420
812.714	27663
812.855	27644
812.997	27789
813.138	27781
813.279	27625
813.421	27660
813.562	27698
813.703	27629
813.845	27408
813.986	27024
814.127	26823
814.268	26819
814.41	26727
814.551	26785
814.692	26838
814.833	26708
814.974	26758
815.115	26830
815.256	26629
815.397	26758
815.539	26625
815.68	26545
815.821	26499
815.962	26613
816.103	26571
816.244	26343
816.385	26286
816.526	26488
816.666	26248
816.807	26062
816.948	26065
817.089	26081
817.23	26138
817.371	26119
817.512	26138
817.653	26092
817.793	26050
817.934	26153
818.075	26077
818.216	26115
818.356	26035
818.497	25928
818.638	25830
818.778	25791
818.919	25795
819.06	25772
819.2	25944
819.341	26001
819.481	26115
819.622	26103
819.762	26336
819.903	26358
820.043	26206
820.184	26206
820.324	26180
820.465	26119
820.605	26096
820.746	26092
820.886	26046
821.026	26092
821.167	26096
821.307	26240
821.447	26027
821.588	26039
821.728	25917
821.868	25639
822.008	25559
822.149	25548
822.289	25419
822.429	25217
822.569	25259
822.709	25301
822.849	24871
822.99	25072
823.13	24996
823.27	24970
823.41	24867
823.55	24757
823.69	24852
823.83	24753
823.97	24658
824.11	24612
824.25	24601
824.389	24646
824.529	24627
824.669	24547
824.809	24639
824.949	24772
825.089	24604
825.228	24764
825.368	24388
825.508	24460
825.648	24528
825.787	24578
825.927	24486
826.067	24498
826.206	24509
826.346	24593
826.485	24601
826.625	24498
826.765	24585
826.904	24612
827.044	24391
827.183	24308
827.323	24277
827.462	24171
827.601	24277
827.741	24140
827.88	24292
828.02	24159
828.159	24148
828.298	24167
828.437	24239
828.577	24209
828.716	24308
828.855	24129
828.994	23878
829.134	23874
829.273	24003
829.412	23946
829.551	23859
829.69	23927
829.829	23847
829.968	24034
830.107	23863
830.246	23916
830.385	23874
830.524	23859
830.663	23760
830.802	23630
830.941	23596
831.08	23539
831.219	23509
831.357	23562
831.496	23790
831.635	23429
831.774	23486
831.913	23326
832.051	23414
832.19	23200
832.329	23372
832.467	23216
832.606	23208
832.744	23185
832.883	23105
833.022	23239
833.16	23193
833.299	23341
833.437	23159
833.576	23212
833.714	23311
833.852	23387
833.991	23410
834.129	23296
834.267	23322
834.406	23246
834.544	23303
834.682	23212
834.821	23235
834.959	23391
835.097	23181
835.235	23185
835.373	23315
835.511	23189
835.65	23208
835.788	23159
835.926	23056
836.064	23029
836.202	22965
836.34	23132
836.478	23197
836.615	23067
836.753	23098
836.891	23090
837.029	23060
837.167	23075
837.305	22976
837.443	23018
837.58	22919
837.718	23166
837.856	22987
837.993	22900
838.131	22930
838.269	22923
838.406	22927
838.544	22873
838.681	22569
838.819	22592
838.956	22546
839.094	22466
839.231	22554
839.369	22641
839.506	22869
839.643	22611
839.781	22474
839.918	22333
840.055	22417
840.193	22329
840.33	22352
840.467	22512
840.604	22360
840.742	22683
840.879	22234
841.016	22379
841.153	22284
841.29	22348
841.427	22348
841.564	22341
841.701	22276
841.838	22242
841.975	22318
842.112	22348
842.249	22314
842.385	22120
842.522	22314
842.659	22253
842.796	22226
842.933	22196
843.069	22230
843.206	21983
843.343	22257
843.479	22242
843.616	22017
843.752	21918
843.889	21964
844.025	22032
844.162	21941
844.298	21949
844.435	21983
844.571	21880
844.708	21895
844.844	22063
844.98	21964
845.117	21991
845.253	21751
845.389	21857
845.525	21789
845.661	21675
845.798	21618
845.934	21717
846.07	21599
846.206	21694
846.342	21774
846.478	21557
846.614	21477
846.75	21374
846.886	21367
847.022	21355
847.158	21485
847.294	21397
847.429	21435
847.565	21332
847.701	21652
847.837	21077
847.972	20963
848.108	21245
848.244	21188
848.379	21028
848.515	21005
848.65	20960
848.786	20994
848.921	20952
849.057	20982
849.192	21051
849.328	21066
849.463	21020
849.598	20971
849.734	20743
849.869	20910
850.004	20678
850.14	20682
850.275	20781
850.41	20659
850.545	20659
850.68	20800
850.815	20838
850.95	20716
851.085	20906
851.22	20899
851.355	20754
851.49	20746
851.625	20807
851.76	20689
851.895	20743
852.03	20731
852.165	20720
852.299	20758
852.434	20880
852.569	20887
852.703	20800
852.838	20739
852.973	20823
853.107	20918
853.242	20750
853.376	20636
853.511	20442
853.645	20602
853.78	20575
853.914	20560
854.048	20655
854.183	20560
854.317	20625
854.451	20712
854.585	20636
854.72	20606
854.854	20659
854.988	20507
855.122	20613
855.256	20400
855.39	20522
855.524	20598
855.658	20621
855.792	20590
855.926	20632
856.06	20579
856.194	20792
856.327	20503
856.461	20473
856.595	20518
856.729	20492
856.862	20746
856.996	20659
857.13	20571
857.263	20693
857.397	20807
857.53	20511
857.664	20571
857.797	20697
857.931	20682
858.064	20682
858.197	20613
858.331	20644
858.464	20571
858.597	20541
858.731	20552
858.864	20667
858.997	20492
859.13	20636
859.263	20541
859.396	20594
859.529	20438
859.662	20480
859.795	20438
859.928	20579
860.061	20606
860.194	20724
860.327	20697
860.46	20541
860.592	20739
860.725	20686
860.858	20629
860.99	20549
861.123	20412
861.256	20457
861.388	20530
861.521	21252
861.653	20408
861.786	20309
861.918	20446
862.05	20484
862.183	20454
862.315	20499
862.447	20549
862.58	20454
862.712	20412
862.844	20362
862.976	20404
863.108	20358
863.24	20659
863.372	20199
863.504	20362
863.636	20301
863.768	20381
863.9	20332
864.032	20248
864.164	20168
864.296	20275
864.428	20415
864.559	20431
864.691	20423
864.823	20294
864.954	20370
865.086	20393
865.217	20336
865.349	20176
865.48	20221
865.612	20168
865.743	20240
865.875	20328
866.006	20176
866.137	20164
866.269	20229
866.4	20282
866.531	20187
866.662	20035
866.793	20096
866.924	20187
867.055	20286
867.186	20229
867.317	20111
867.448	19986
867.579	20039
867.71	20001
867.841	20092
867.972	20039
868.103	20187
868.233	20180
868.364	20214
868.495	20214
868.625	20358
868.756	20366
868.886	20317
869.017	20366
869.147	20545
869.278	20419
869.408	20396
869.539	20434
869.669	20495
869.799	20370
869.929	20400
870.06	20499
870.19	20678
870.32	20663
870.45	20727
870.58	20838
870.71	20842
870.84	20701
870.97	20792
871.1	20868
871.23	21032
871.36	21036
871.489	20914
871.619	20967
871.749	21024
871.879	21017
872.008	21150
872.138	21032
872.267	21005
872.397	20750
872.526	20876
872.656	20883
872.785	20887
872.915	20963
873.044	21112
873.173	21055
873.303	21074
873.432	21032
873.561	21150
873.69	20933
873.819	20948
873.948	21047
874.077	20941
874.206	20902
874.335	21009
874.464	21104
874.593	21222
874.722	21245
874.851	21321
874.979	21241
875.108	21279
875.237	21249
875.365	21146
875.494	21283
875.623	21272
875.751	21157
875.88	21363
876.008	21317
876.136	21447
876.265	21625
876.393	21720
876.521	21606
876.65	21759
876.778	21641
876.906	21694
877.034	21572
877.162	21561
877.29	21561
877.418	21583
877.546	21690
877.674	21511
877.802	21576
877.93	21637
878.058	21591
878.185	21393
878.313	21572
878.441	21515
878.568	21507
878.696	21420
878.824	21610
878.951	21720
879.079	21759
879.206	21850
879.333	21835
879.461	21671
879.588	21671
879.715	21785
879.842	21880
879.97	21743
880.097	21515
880.224	21374
880.351	21420
880.478	21526
880.605	21389
880.732	21447
880.859	21701
880.986	21462
881.112	21443
881.239	21359
881.366	21169
881.493	21081
881.619	20967
881.746	20998
881.872	20986
881.999	21039
882.125	20948
882.252	21077
882.378	20998
882.505	21089
882.631	20815
882.757	20769
882.883	20785
883.01	20689
883.136	20617
883.262	20693
883.388	20587
883.514	20644
883.64	20659
883.766	20560
883.892	20457
884.018	20625
884.143	20575
884.269	20765
884.395	20473
884.52	20309
884.646	20533
884.772	20438
884.897	20294
885.023	20362
885.148	20609
885.274	20590
885.399	20377
885.524	20389
885.65	20408
885.775	20431
885.9	20332
886.025	20503
886.15	20488
886.275	20324
886.4	20259
886.525	20336
886.65	20336
886.775	20240
886.9	20503
887.025	20571
887.149	20374
887.274	20244
887.399	20191
887.523	20172
887.648	20164
887.773	20062
887.897	20195
888.021	20168
888.146	20149
888.27	20256
888.395	20096
888.519	20187
888.643	20183
888.767	20240
888.891	19989
889.015	19921
889.139	20050
889.263	19871
889.387	19993
889.511	20142
889.635	19967
889.759	19894
889.883	20039
890.006	20020
890.13	20039
890.254	19879
890.377	19963
890.501	19655
890.624	19594
890.748	19746
890.871	19575
890.995	19643
891.118	19506
891.241	19567
891.364	19510
891.488	19780
891.611	19483
891.734	19533
891.857	19571
891.98	19548
892.103	19552
892.226	19556
892.349	19430
892.471	19274
892.594	19358
892.717	19537
892.839	19441
892.962	19483
893.085	19499
893.207	19377
893.33	19346
893.452	19426
893.575	19331
893.697	19392
893.819	19552
893.941	19666
894.064	19628
894.186	19308
894.308	19312
894.43	19540
894.552	19616
894.674	19449
894.796	19297
894.918	19346
895.04	19495
895.161	19537
895.283	19594
895.405	19480
895.526	19419
895.648	19422
895.769	19495
895.891	19559
896.012	19445
896.134	19510
896.255	19544
896.376	19403
896.498	19510
896.619	19518
896.74	19483
896.861	19529
896.982	19860
897.103	19879
897.224	19818
897.345	19712
897.466	19609
897.587	19719
897.708	19940
897.828	19753
897.949	19666
898.07	19525
898.19	19674
898.311	19769
898.431	19609
898.552	19715
898.672	19871
898.792	19704
898.913	19734
899.033	19624
899.153	19518
899.273	19400
899.393	19464
899.513	19575
899.633	19556
899.753	19419
899.873	19441
899.993	19464
900.113	19537
900.232	19434
900.352	19327
900.472	19293
900.591	19183
900.711	19293
900.83	19270
900.95	19422
901.069	19331
901.189	19171
901.308	18871
901.427	18901
901.546	18833
901.665	18905
901.784	18867
901.904	18783
902.023	18661
902.141	18475
902.26	18464
902.379	18483
902.498	18334
902.617	18251
902.735	18429
902.854	18365
902.973	18304
903.091	18057
903.21	18068
903.328	17954
903.446	17912
903.565	17828
903.683	17843
903.801	17737
903.919	17680
904.038	17756
904.156	17657
904.274	17737
904.392	17589
904.51	17520
904.627	17634
904.745	17672
904.863	17790
904.981	17398
905.098	17296
905.216	17246
905.334	17383
905.451	17379
905.569	17239
905.686	17360
905.803	17200
905.921	17018
906.038	17208
906.155	17151
906.272	17045
906.389	17045
906.506	16934
906.623	16915
906.74	16824
906.857	16771
906.974	16717
907.091	16801
907.208	16987
907.324	16908
907.441	16820
907.557	16558
907.674	16603
907.79	16462
907.907	16470
908.023	16607
908.139	16580
908.256	16535
908.372	16451
908.488	16363
908.604	16382
908.72	16223
908.836	16291
908.952	16192
909.068	16280
909.184	16299
909.3	16238
909.415	16386
909.531	16234
909.647	16002
909.762	16048
909.878	15960
909.993	16006
910.108	16013
910.224	15869
910.339	15983
910.454	15850
910.57	15812
910.685	15720
910.8	16086
910.915	15838
911.03	15774
911.145	15652
911.259	15671
911.374	15633
911.489	15488
911.604	15519
911.718	15241
911.833	15313
911.947	15283
912.062	15256
912.176	15405
912.291	15378
912.405	15378
912.519	15656
912.633	15504
912.748	15431
912.862	15306
912.976	15142
913.09	15009
913.204	15108
913.318	15199
913.431	15195
913.545	15176
913.659	15245
913.772	15085
913.886	15051
914	14963
914.113	15047
914.226	15089
914.34	14982
914.453	14956
914.566	15039
914.68	14819
914.793	14826
914.906	14632
915.019	14625
915.132	14556
915.245	14640
915.358	14606
915.47	14579
915.583	14560
915.696	14514
915.809	14648
915.921	14731
916.034	14522
916.146	14476
916.259	14533
916.371	14522
916.483	14480
916.595	14423
916.708	14514
916.82	14423
916.932	14473
917.044	14412
917.156	14393
917.268	14298
917.38	14317
917.491	14275
917.603	14320
917.715	14339
917.826	14347
917.938	14153
918.049	14123
918.161	14164
918.272	14343
918.384	14412
918.495	14180
918.606	14077
918.717	14054
918.828	14039
918.939	14130
919.05	13921
919.161	13978
919.272	13879
919.383	13921
919.494	14130
919.604	14149
919.715	14039
919.826	13871
919.936	13970
920.047	14027
920.157	13944
920.267	14210
920.378	13890
920.488	13993
920.598	14187
920.708	14199
920.818	14157
920.928	14191
921.038	14218
921.148	14305
921.258	14005
921.368	13909
921.477	13879
921.587	13795
921.697	13624
921.806	13738
921.916	13704
922.025	13491
922.134	13430
922.244	13289
922.353	13438
922.462	13350
922.571	13187
922.68	13110
922.789	13008
922.898	13027
923.007	13019
923.116	13103
923.224	13072
923.333	12993
923.442	12954
923.55	12840
923.659	12951
923.767	13027
923.876	12814
923.984	12943
924.092	12700
924.201	12810
924.309	12764
924.417	12795
924.525	12726
924.633	12829
924.741	13700
924.849	12509
924.956	12646
925.064	12703
925.172	12448
925.279	12513
925.387	12475
925.494	12502
925.602	12642
925.709	12506
925.816	12448
925.924	12445
926.031	12563
926.138	12399
926.245	12498
926.352	12414
926.459	12460
926.566	12559
926.673	12285
926.779	12289
926.886	12216
926.993	12197
927.099	12034
927.206	12038
927.312	12038
927.419	12152
927.525	12030
927.631	12060
927.737	11954
927.843	11920
927.95	11832
928.056	11923
928.162	11942
928.267	11980
928.373	12604
928.479	11999
928.585	11760
928.69	11805
928.796	11984
928.901	11779
929.007	11688
929.112	11798
929.218	11733
929.323	11627
929.428	11589
929.533	11756
929.638	11577
929.743	11592
929.848	11634
929.953	11642
930.058	11448
930.163	11277
930.267	11341
930.372	11501
930.477	11337
930.581	11570
930.685	11471
930.79	11201
930.894	11322
930.998	11124
931.103	11368
931.207	11056
931.311	10930
931.415	10847
931.519	10554
931.623	10607
