Data from test_V78500241_294.txt Node
Date: Fri Mar 25 15:11:54 CST 2022
User: usil
Spectrometer: V785-0024
Trigger mode: 0
Integration Time (sec): 4.000000E-1
Scans to average: 1
Nonlinearity correction enabled: false
Boxcar width: 0
Storing dark spectrum: false
XAxis mode: Wavelengths
Number of Pixels in Spectrum: 1024
>>>>>Begin Spectral Data<<<<<
801.071	27603
801.214	27937
801.356	27526
801.499	27538
801.641	27283
801.783	27218
801.926	27473
802.068	27348
802.211	27283
802.353	27348
802.496	27211
802.638	27123
802.78	27077
802.923	27093
803.065	26998
803.208	26815
803.35	27036
803.492	27176
803.635	27287
803.777	27169
803.919	27009
804.061	27450
804.204	27123
804.346	27051
804.488	27043
804.63	27001
804.773	26921
804.915	26990
805.057	27211
805.199	27100
805.341	27222
805.483	27222
805.626	27089
805.768	26921
805.91	27192
806.052	27264
806.194	27157
806.336	27317
806.478	27138
806.62	27169
806.762	27359
806.904	27580
807.046	27720
807.188	27523
807.33	27663
807.472	27614
807.614	27488
807.756	27523
807.898	27252
808.04	27454
808.182	27241
808.324	27568
808.465	27504
808.607	27572
808.749	27679
808.891	27816
809.033	28032
809.174	28048
809.316	27755
809.458	27701
809.6	27797
809.741	27914
809.883	27831
810.025	28166
810.166	28128
810.308	28036
810.45	28063
810.591	28051
810.733	27694
810.875	27842
811.016	27637
811.158	27629
811.299	27781
811.441	27835
811.582	27827
811.724	27728
811.865	27622
812.007	27835
812.148	27739
812.29	27816
812.431	27975
812.573	28112
812.714	28147
812.855	28219
812.997	28299
813.138	28478
813.279	28253
813.421	28306
813.562	28223
813.703	28177
813.845	27895
813.986	27682
814.127	27469
814.268	27412
814.41	27427
814.551	27378
814.692	27363
814.833	27306
814.974	27268
815.115	27389
815.256	27112
815.397	27188
815.539	27146
815.68	27184
815.821	27039
815.962	27313
816.103	27157
816.244	26948
816.385	26998
816.526	26845
816.666	26712
816.807	26697
816.948	26701
817.089	26670
817.23	26830
817.371	26663
817.512	26617
817.653	26602
817.793	26526
817.934	26750
818.075	26598
818.216	26511
818.356	26640
818.497	26438
818.638	26514
818.778	26202
818.919	26195
819.06	26362
819.2	26457
819.341	26492
819.481	26617
819.622	26762
819.762	26849
819.903	26819
820.043	26731
820.184	26682
820.324	26724
820.465	26693
820.605	26663
820.746	26598
820.886	26621
821.026	26484
821.167	26587
821.307	26575
821.447	26571
821.588	26446
821.728	26351
821.868	26271
822.008	26065
822.149	26039
822.289	26130
822.429	25635
822.569	25712
822.709	25624
822.849	25445
822.99	25453
823.13	25426
823.27	25396
823.41	25343
823.55	25232
823.69	25392
823.83	25373
823.97	25285
824.11	24989
824.25	25038
824.389	25118
824.529	25072
824.669	25122
824.809	25240
824.949	25304
825.089	25228
825.228	25179
825.368	25012
825.508	25004
825.648	24806
825.787	25004
825.927	24977
826.067	24992
826.206	24928
826.346	25080
826.485	24966
826.625	24878
826.765	25164
826.904	25126
827.044	24681
827.183	24837
827.323	24627
827.462	24730
827.601	24711
827.741	24692
827.88	24623
828.02	24517
828.159	24563
828.298	24719
828.437	24661
828.577	24513
828.716	24779
828.855	24639
828.994	24357
829.134	24452
829.273	24380
829.412	24429
829.551	24388
829.69	24213
829.829	24365
829.968	24422
830.107	24479
830.246	24281
830.385	24239
830.524	24243
830.663	24117
830.802	24076
830.941	24041
831.08	23824
831.219	23973
831.357	24007
831.496	24106
831.635	23980
831.774	23745
831.913	23783
832.051	23821
832.19	23813
832.329	23775
832.467	23653
832.606	23615
832.744	23539
832.883	23748
833.022	23619
833.16	23611
833.299	23668
833.437	23619
833.576	23802
833.714	23665
833.852	23642
833.991	23634
834.129	23687
834.267	23790
834.406	23726
834.544	23779
834.682	23653
834.821	23570
834.959	23775
835.097	23535
835.235	23707
835.373	23573
835.511	23680
835.65	23478
835.788	23463
835.926	23402
836.064	23288
836.202	23379
836.34	23337
836.478	23619
836.615	23520
836.753	23570
836.891	23505
837.029	23490
837.167	23387
837.305	23395
837.443	23315
837.58	23379
837.718	23512
837.856	23444
837.993	23254
838.131	23334
838.269	23223
838.406	23315
838.544	23128
838.681	23056
838.819	22904
838.956	22763
839.094	22824
839.231	22873
839.369	22972
839.506	23094
839.643	23117
839.781	22801
839.918	22733
840.055	22812
840.193	22702
840.33	22763
840.467	22778
840.604	22858
840.742	22991
840.879	22538
841.016	22698
841.153	22508
841.29	22831
841.427	22550
841.564	22649
841.701	22752
841.838	22599
841.975	22542
842.112	22462
842.249	22462
842.385	22386
842.522	22683
842.659	22497
842.796	22436
842.933	22470
843.069	22382
843.206	22398
843.343	22569
843.479	22493
843.616	22417
843.752	22226
843.889	22196
844.025	22573
844.162	22284
844.298	22344
844.435	22177
844.571	22101
844.708	22246
844.844	22447
844.98	22356
845.117	22390
845.253	22246
845.389	22029
845.525	22135
845.661	22150
845.798	21934
845.934	22067
846.07	21930
846.206	21911
846.342	22055
846.478	21854
846.614	21808
846.75	21599
846.886	21648
847.022	21717
847.158	21633
847.294	21785
847.429	21736
847.565	21667
847.701	21842
847.837	21317
847.972	21317
848.108	21523
848.244	21515
848.379	21237
848.515	21348
848.65	21237
848.786	21226
848.921	21245
849.057	21431
849.192	21344
849.328	21313
849.463	21218
849.598	21245
849.734	21127
849.869	21024
850.004	21055
850.14	20925
850.275	21138
850.41	20982
850.545	20925
850.68	21047
850.815	20986
850.95	20899
851.085	21173
851.22	21150
851.355	20994
851.49	20952
851.625	20948
851.76	20880
851.895	20792
852.03	20944
852.165	21047
852.299	20994
852.434	21036
852.569	21085
852.703	21070
852.838	20979
852.973	21100
853.107	21154
853.242	20960
853.376	20731
853.511	20708
853.645	20792
853.78	20937
853.914	20921
854.048	20796
854.183	20716
854.317	20792
854.451	20971
854.585	20708
854.72	20804
854.854	20925
854.988	20705
855.122	20758
855.256	20724
855.39	20735
855.524	20868
855.658	20883
855.792	20861
855.926	20746
856.06	20994
856.194	20929
856.327	20826
856.461	20678
856.595	20777
856.729	20796
856.862	21005
856.996	20823
857.13	20842
857.263	20944
857.397	20883
857.53	20773
857.664	20815
857.797	20762
857.931	20876
858.064	20933
858.197	20902
858.331	20857
858.464	20617
858.597	20773
858.731	20773
858.864	20811
858.997	20716
859.13	20819
859.263	20773
859.396	20842
859.529	20708
859.662	20678
859.795	20705
859.928	20746
860.061	20845
860.194	21005
860.327	20781
860.46	20720
860.592	20834
860.725	20883
860.858	20902
860.99	20834
861.123	20735
861.256	20640
861.388	20773
861.521	21496
861.653	20590
861.786	20545
861.918	20579
862.05	20636
862.183	20716
862.315	20849
862.447	20925
862.58	20785
862.712	20537
862.844	20511
862.976	20590
863.108	20552
863.24	21013
863.372	20568
863.504	20465
863.636	20408
863.768	20549
863.9	20438
864.032	20404
864.164	20419
864.296	20511
864.428	20617
864.559	20530
864.691	20575
864.823	20412
864.954	20488
865.086	20446
865.217	20332
865.349	20377
865.48	20431
865.612	20358
865.743	20408
865.875	20419
866.006	20389
866.137	20267
866.269	20381
866.4	20488
866.531	20290
866.662	20309
866.793	20282
866.924	20332
867.055	20351
867.186	20332
867.317	20271
867.448	20176
867.579	20339
867.71	20248
867.841	20263
867.972	20328
868.103	20317
868.233	20252
868.364	20358
868.495	20461
868.625	20545
868.756	20587
868.886	20385
869.017	20537
869.147	20739
869.278	20701
869.408	20526
869.539	20526
869.669	20617
869.799	20583
869.929	20629
870.06	20663
870.19	20849
870.32	20880
870.45	20941
870.58	21001
870.71	21119
870.84	21116
870.97	20975
871.1	21085
871.23	21085
871.36	21131
871.489	21112
871.619	21142
871.749	21218
871.879	21173
872.008	21226
872.138	21173
872.267	21123
872.397	21001
872.526	20982
872.656	20971
872.785	21017
872.915	21173
873.044	21226
873.173	21230
873.303	21192
873.432	21298
873.561	21268
873.69	21176
873.819	21237
873.948	21199
874.077	21169
874.206	21188
874.335	21142
874.464	21405
874.593	21344
874.722	21408
874.851	21439
874.979	21466
875.108	21629
875.237	21310
875.365	21332
875.494	21439
875.623	21507
875.751	21359
875.88	21321
876.008	21545
876.136	21583
876.265	21861
876.393	21960
876.521	21865
876.65	21808
876.778	21873
876.906	21808
877.034	21732
877.162	21842
877.29	21686
877.418	21789
877.546	21816
877.674	21812
877.802	21816
877.93	21732
878.058	21717
878.185	21564
878.313	21641
878.441	21873
878.568	21675
878.696	21603
878.824	21732
878.951	21926
879.079	21949
879.206	21975
879.333	21918
879.461	21667
879.588	21869
879.715	21941
879.842	22090
879.97	21812
880.097	21595
880.224	21553
880.351	21633
880.478	21614
880.605	21561
880.732	21599
880.859	21816
880.986	21561
881.112	21747
881.239	21473
881.366	21386
881.493	21294
881.619	21222
881.746	21154
881.872	21123
881.999	21146
882.125	21127
882.252	21154
882.378	21211
882.505	21325
882.631	21058
882.757	20929
882.883	20944
883.01	20861
883.136	20967
883.262	20712
883.388	20773
883.514	20887
883.64	20918
883.766	20933
883.892	20609
884.018	20807
884.143	20849
884.269	20914
884.395	20533
884.52	20545
884.646	20556
884.772	20545
884.897	20336
885.023	20571
885.148	20659
885.274	20716
885.399	20541
885.524	20609
885.65	20492
885.775	20518
885.9	20537
886.025	20511
886.15	20473
886.275	20461
886.4	20457
886.525	20514
886.65	20503
886.775	20450
886.9	20617
887.025	20750
887.149	20404
887.274	20412
887.399	20282
887.523	20313
887.648	20298
887.773	20187
887.897	20400
888.021	20317
888.146	20237
888.27	20377
888.395	20423
888.519	20495
888.643	20263
888.767	20389
888.891	20275
889.015	20012
889.139	20145
889.263	20176
889.387	20073
889.511	20172
889.635	20278
889.759	20187
889.883	20100
890.006	20069
890.13	20202
890.254	19936
890.377	20012
890.501	19940
890.624	19841
890.748	19890
890.871	19883
890.995	19693
891.118	19715
891.241	19685
891.364	19658
891.488	19822
891.611	19738
891.734	19632
891.857	19723
891.98	19719
892.103	19841
892.226	19753
892.349	19635
892.471	19419
892.594	19556
892.717	19594
892.839	19563
892.962	19582
893.085	19628
893.207	19685
893.33	19514
893.452	19426
893.575	19590
893.697	19487
893.819	19708
893.941	19830
894.064	19696
894.186	19586
894.308	19548
894.43	19723
894.552	19719
894.674	19643
894.796	19464
894.918	19605
895.04	19643
895.161	19594
895.283	19681
895.405	19552
895.526	19586
895.648	19639
895.769	19677
895.891	19715
896.012	19635
896.134	19613
896.255	19582
896.376	19628
896.498	19658
896.619	19681
896.74	19609
896.861	19651
896.982	19951
897.103	20020
897.224	19921
897.345	19780
897.466	19708
897.587	19890
897.708	19944
897.828	19993
897.949	19780
898.07	19597
898.19	19666
898.311	19883
898.431	19681
898.552	19742
898.672	19875
898.792	19864
898.913	19811
899.033	19738
899.153	19518
899.273	19521
899.393	19438
899.513	19628
899.633	19586
899.753	19514
899.873	19518
899.993	19575
900.113	19518
900.232	19438
900.352	19411
900.472	19445
900.591	19373
900.711	19346
900.83	19209
900.95	19434
901.069	19419
901.189	19247
901.308	19107
901.427	19027
901.546	18817
901.665	18916
901.784	18973
901.904	18700
902.023	18631
902.141	18418
902.26	18353
902.379	18544
902.498	18353
902.617	18399
902.735	18513
902.854	18407
902.973	18369
903.091	18091
903.21	18011
903.328	18079
903.446	17999
903.565	17920
903.683	17912
903.801	17843
903.919	17851
904.038	17939
904.156	17741
904.274	17718
904.392	17676
904.51	17608
904.627	17733
904.745	17786
904.863	17847
904.981	17535
905.098	17337
905.216	17341
905.334	17505
905.451	17398
905.569	17440
905.686	17444
905.803	17296
905.921	17102
906.038	17258
906.155	17143
906.272	17216
906.389	17083
906.506	17014
906.623	16976
906.74	16892
906.857	16725
906.974	16877
907.091	16987
907.208	17041
907.324	16957
907.441	16877
907.557	16618
907.674	16607
907.79	16577
907.907	16672
908.023	16653
908.139	16500
908.256	16603
908.372	16565
908.488	16573
908.604	16478
908.72	16424
908.836	16455
908.952	16314
909.068	16299
909.184	16398
909.3	16367
909.415	16428
909.531	16367
909.647	16112
909.762	16116
909.878	16044
909.993	16128
910.108	16044
910.224	15998
910.339	15987
910.454	15880
910.57	15926
910.685	15808
910.8	16032
910.915	15975
911.03	15911
911.145	15743
911.259	15671
911.374	15591
911.489	15667
911.604	15549
911.718	15374
911.833	15340
911.947	15283
912.062	15211
912.176	15367
912.291	15332
912.405	15447
912.519	15557
912.633	15614
912.748	15321
912.862	15291
912.976	15195
913.09	15112
913.204	15169
913.318	15207
913.431	15180
913.545	15321
913.659	15226
913.772	15131
913.886	15043
914	14990
914.113	15051
914.226	15047
914.34	15074
914.453	14906
914.566	15093
914.68	14921
914.793	14895
914.906	14610
915.019	14701
915.132	14655
915.245	14659
915.358	14712
915.47	14689
915.583	14617
915.696	14663
915.809	14727
915.921	14743
916.034	14606
916.146	14583
916.259	14499
916.371	14571
916.483	14552
916.595	14438
916.708	14450
916.82	14503
916.932	14511
917.044	14415
917.156	14408
917.268	14206
917.38	14412
917.491	14267
917.603	14339
917.715	14320
917.826	14381
917.938	14233
918.049	14172
918.161	14191
918.272	14465
918.384	14442
918.495	14263
918.606	14084
918.717	14046
918.828	14046
918.939	14065
919.05	13993
919.161	14115
919.272	13814
919.383	13917
919.494	14176
919.604	14256
919.715	13967
919.826	13967
919.936	14058
920.047	14065
920.157	14001
920.267	14240
920.378	14069
920.488	14008
920.598	14221
920.708	14218
920.818	14180
920.928	14153
921.038	14355
921.148	14309
921.258	13932
921.368	13909
921.477	13784
921.587	13879
921.697	13681
921.806	13757
921.916	13636
922.025	13449
922.134	13476
922.244	13297
922.353	13388
922.462	13400
922.571	13297
922.68	13050
922.789	13046
922.898	13000
923.007	13050
923.116	13069
923.224	13046
923.333	13015
923.442	12935
923.55	12871
923.659	12890
923.767	12924
923.876	12905
923.984	12958
924.092	12753
924.201	12772
924.309	12783
924.417	12749
924.525	12700
924.633	12852
924.741	13472
924.849	12521
924.956	12730
925.064	12551
925.172	12479
925.279	12540
925.387	12513
925.494	12506
925.602	12620
925.709	12559
925.816	12372
925.924	12479
926.031	12475
926.138	12452
926.245	12513
926.352	12330
926.459	12570
926.566	12513
926.673	12239
926.779	12311
926.886	12323
926.993	12087
927.099	12114
927.206	11988
927.312	11965
927.419	12114
927.525	12121
927.631	12015
927.737	11980
927.843	11923
927.95	11809
928.056	11977
928.162	11965
928.267	12057
928.373	12521
928.479	11977
928.585	11767
928.69	11809
928.796	11950
928.901	11771
929.007	11589
929.112	11866
929.218	11691
929.323	11733
929.428	11695
929.533	11779
929.638	11539
929.743	11554
929.848	11649
929.953	11619
930.058	11440
930.163	11334
930.267	11280
930.372	11535
930.477	11288
930.581	11577
930.685	11417
930.79	11208
930.894	11322
930.998	11117
931.103	11376
931.207	10999
931.311	10847
931.415	10850
931.519	10634
931.623	10546
