Data from test_V78500241_1248.txt Node
Date: Fri Mar 25 15:18:32 CST 2022
User: usil
Spectrometer: V785-0024
Trigger mode: 0
Integration Time (sec): 4.000000E-1
Scans to average: 1
Nonlinearity correction enabled: false
Boxcar width: 0
Storing dark spectrum: false
XAxis mode: Wavelengths
Number of Pixels in Spectrum: 1024
>>>>>Begin Spectral Data<<<<<
801.071	27797
801.214	27679
801.356	27507
801.499	27291
801.641	27237
801.783	27302
801.926	27287
802.068	27249
802.211	27108
802.353	27043
802.496	26998
802.638	26929
802.78	26940
802.923	26758
803.065	26743
803.208	26842
803.35	26937
803.492	26979
803.635	26982
803.777	26971
803.919	27085
804.061	27317
804.204	27131
804.346	27024
804.488	27024
804.63	27020
804.773	27005
804.915	27081
805.057	27199
805.199	27135
805.341	27218
805.483	27256
805.626	27222
805.768	27089
805.91	27184
806.052	27176
806.194	27135
806.336	27218
806.478	27264
806.62	27226
806.762	27359
806.904	27458
807.046	27720
807.188	27606
807.33	27587
807.472	27705
807.614	27553
807.756	27694
807.898	27519
808.04	27431
808.182	27344
808.324	27427
808.465	27595
808.607	27667
808.749	27797
808.891	27797
809.033	27914
809.174	27998
809.316	27720
809.458	27808
809.6	27739
809.741	27895
809.883	28055
810.025	28150
810.166	28207
810.308	27983
810.45	28025
810.591	27968
810.733	27960
810.875	27827
811.016	27713
811.158	27606
811.299	27789
811.441	27964
811.582	27911
811.724	27797
811.865	27838
812.007	27831
812.148	27812
812.29	27876
812.431	28086
812.573	28242
812.714	28276
812.855	28417
812.997	28394
813.138	28554
813.279	28489
813.421	28375
813.562	28325
813.703	28249
813.845	28093
813.986	27800
814.127	27724
814.268	27545
814.41	27583
814.551	27618
814.692	27614
814.833	27549
814.974	27488
815.115	27458
815.256	27443
815.397	27313
815.539	27412
815.68	27298
815.821	27146
815.962	27397
816.103	27195
816.244	27207
816.385	27051
816.526	27077
816.666	26861
816.807	26739
816.948	26804
817.089	26792
817.23	26781
817.371	26853
817.512	26785
817.653	26727
817.793	26568
817.934	26830
818.075	26830
818.216	26739
818.356	26777
818.497	26632
818.638	26480
818.778	26530
818.919	26469
819.06	26667
819.2	26765
819.341	26788
819.481	26724
819.622	26861
819.762	27180
819.903	27036
820.043	27013
820.184	27043
820.324	26876
820.465	27043
820.605	26902
820.746	26823
820.886	26872
821.026	26826
821.167	26944
821.307	26857
821.447	26788
821.588	26655
821.728	26705
821.868	26427
822.008	26328
822.149	26317
822.289	26339
822.429	26035
822.569	25864
822.709	25902
822.849	25811
822.99	25849
823.13	25639
823.27	25731
823.41	25632
823.55	25552
823.69	25586
823.83	25582
823.97	25563
824.11	25468
824.25	25479
824.389	25548
824.529	25670
824.669	25472
824.809	25483
824.949	25575
825.089	25571
825.228	25586
825.368	25373
825.508	25324
825.648	25339
825.787	25491
825.927	25479
826.067	25244
826.206	25343
826.346	25270
826.485	25381
826.625	25251
826.765	25365
826.904	25350
827.044	25168
827.183	25072
827.323	24985
827.462	24996
827.601	25053
827.741	24973
827.88	25110
828.02	24947
828.159	25023
828.298	24932
828.437	25053
828.577	24920
828.716	25069
828.855	24939
828.994	24741
829.134	24791
829.273	24848
829.412	24798
829.551	24681
829.69	24779
829.829	24829
829.968	24787
830.107	24840
830.246	24585
830.385	24650
830.524	24612
830.663	24570
830.802	24532
830.941	24327
831.08	24213
831.219	24407
831.357	24395
831.496	24498
831.635	24308
831.774	24171
831.913	24315
832.051	24053
832.19	24220
832.329	24110
832.467	24174
832.606	23996
832.744	24045
832.883	24041
833.022	24057
833.16	24110
833.299	24102
833.437	24174
833.576	24068
833.714	24110
833.852	24266
833.991	24205
834.129	24140
834.267	24114
834.406	23996
834.544	24110
834.682	24110
834.821	23980
834.959	24460
835.097	24057
835.235	24125
835.373	24220
835.511	24038
835.65	23946
835.788	23946
835.926	23870
836.064	23840
836.202	23638
836.34	23916
836.478	24022
836.615	23920
836.753	23920
836.891	23961
837.029	23897
837.167	23836
837.305	23977
837.443	23859
837.58	23748
837.718	23828
837.856	23756
837.993	23771
838.131	23904
838.269	23615
838.406	23745
838.544	23539
838.681	23417
838.819	23421
838.956	23315
839.094	23330
839.231	23307
839.369	23372
839.506	23619
839.643	23505
839.781	23303
839.918	23311
840.055	23242
840.193	23185
840.33	23181
840.467	23250
840.604	23166
840.742	23345
840.879	22995
841.016	23094
841.153	23121
841.29	23277
841.427	23159
841.564	23136
841.701	23299
841.838	23155
841.975	23033
842.112	23113
842.249	22946
842.385	22881
842.522	23075
842.659	22885
842.796	22889
842.933	22930
843.069	22987
843.206	22790
843.343	22972
843.479	22965
843.616	22911
843.752	22721
843.889	22672
844.025	22809
844.162	22691
844.298	22755
844.435	22691
844.571	22812
844.708	22748
844.844	22831
844.98	22812
845.117	22923
845.253	22733
845.389	22599
845.525	22748
845.661	22611
845.798	22474
845.934	22489
846.07	22386
846.206	22489
846.342	22542
846.478	22314
846.614	22257
846.75	22181
846.886	22196
847.022	22177
847.158	22097
847.294	22200
847.429	22097
847.565	22150
847.701	22303
847.837	21915
847.972	21953
848.108	22010
848.244	21888
848.379	21781
848.515	21644
848.65	21793
848.786	21747
848.921	21690
849.057	21838
849.192	21892
849.328	21751
849.463	21846
849.598	21572
849.734	21667
849.869	21587
850.004	21603
850.14	21557
850.275	21523
850.41	21431
850.545	21367
850.68	21466
850.815	21526
850.95	21504
851.085	21739
851.22	21701
851.355	21633
851.49	21523
851.625	21473
851.76	21466
851.895	21389
852.03	21374
852.165	21504
852.299	21591
852.434	21511
852.569	21603
852.703	21519
852.838	21568
852.973	21656
853.107	21587
853.242	21363
853.376	21382
853.511	21401
853.645	21222
853.78	21420
853.914	21355
854.048	21325
854.183	21275
854.317	21310
854.451	21488
854.585	21302
854.72	21447
854.854	21386
854.988	21275
855.122	21355
855.256	21249
855.39	21386
855.524	21279
855.658	21325
855.792	21294
855.926	21260
856.06	21302
856.194	21412
856.327	21321
856.461	21237
856.595	21329
856.729	21294
856.862	21367
856.996	21492
857.13	21367
857.263	21412
857.397	21473
857.53	21397
857.664	21549
857.797	21340
857.931	21542
858.064	21272
858.197	21424
858.331	21348
858.464	21214
858.597	21150
858.731	21367
858.864	21268
858.997	21317
859.13	21329
859.263	21336
859.396	21431
859.529	21397
859.662	21256
859.795	21226
859.928	21317
860.061	21447
860.194	21603
860.327	21416
860.46	21359
860.592	21382
860.725	21469
860.858	21473
860.99	21291
861.123	21256
861.256	21241
861.388	21291
861.521	22131
861.653	21135
861.786	21108
861.918	21108
862.05	21294
862.183	21272
862.315	21154
862.447	21355
862.58	21211
862.712	20998
862.844	21104
862.976	21089
863.108	21070
863.24	21507
863.372	21032
863.504	21100
863.636	21127
863.768	21127
863.9	21058
864.032	20838
864.164	21036
864.296	21017
864.428	21165
864.559	21043
864.691	21096
864.823	20937
864.954	21051
865.086	21032
865.217	20937
865.349	20811
865.48	20910
865.612	20956
865.743	21100
865.875	21047
866.006	20925
866.137	20849
866.269	20944
866.4	21001
866.531	20880
866.662	20746
866.793	20823
866.924	20857
867.055	20845
867.186	20830
867.317	20960
867.448	20861
867.579	20807
867.71	20731
867.841	20834
867.972	20864
868.103	20807
868.233	20895
868.364	20857
868.495	20921
868.625	21093
868.756	21173
868.886	21062
869.017	21169
869.147	21195
869.278	21294
869.408	21188
869.539	21055
869.669	21142
869.799	21188
869.929	21359
870.06	21195
870.19	21321
870.32	21374
870.45	21507
870.58	21530
870.71	21656
870.84	21576
870.97	21500
871.1	21564
871.23	21732
871.36	21625
871.489	21717
871.619	21671
871.749	21679
871.879	21724
872.008	21755
872.138	21641
872.267	21728
872.397	21587
872.526	21553
872.656	21447
872.785	21671
872.915	21766
873.044	21854
873.173	21751
873.303	21686
873.432	21766
873.561	21876
873.69	21690
873.819	21660
873.948	21766
874.077	21644
874.206	21694
874.335	21785
874.464	21656
874.593	21945
874.722	21854
874.851	22032
874.979	21949
875.108	22044
875.237	21972
875.365	21736
875.494	21926
875.623	22025
875.751	21968
875.88	21983
876.008	22109
876.136	22021
876.265	22238
876.393	22436
876.521	22371
876.65	22360
876.778	22390
876.906	22360
877.034	22207
877.162	22299
877.29	22287
877.418	22360
877.546	22356
877.674	22310
877.802	22173
877.93	22329
878.058	22352
878.185	22150
878.313	22158
878.441	22177
878.568	22109
878.696	22211
878.824	22253
878.951	22329
879.079	22478
879.206	22561
879.333	22379
879.461	22337
879.588	22451
879.715	22440
879.842	22546
879.97	22386
880.097	22188
880.224	22143
880.351	22219
880.478	22082
880.605	22154
880.732	22154
880.859	22310
880.986	22078
881.112	22029
881.239	21918
881.366	21857
881.493	21766
881.619	21816
881.746	21739
881.872	21713
881.999	21633
882.125	21614
882.252	21785
882.378	21603
882.505	21850
882.631	21591
882.757	21389
882.883	21534
883.01	21500
883.136	21287
883.262	21211
883.388	21199
883.514	21462
883.64	21431
883.766	21359
883.892	21230
884.018	21245
884.143	21412
884.269	21393
884.395	21039
884.52	21104
884.646	21043
884.772	21005
884.897	20921
885.023	21119
885.148	21089
885.274	21116
885.399	21264
885.524	20952
885.65	21116
885.775	21077
885.9	20948
886.025	21119
886.15	21146
886.275	20845
886.4	20921
886.525	21017
886.65	20937
886.775	20861
886.9	21062
887.025	21093
887.149	20960
887.274	20773
887.399	20849
887.523	20796
887.648	20792
887.773	20727
887.897	20902
888.021	20769
888.146	20792
888.27	20914
888.395	20849
888.519	20811
888.643	20826
888.767	20823
888.891	20701
889.015	20659
889.139	20648
889.263	20454
889.387	20727
889.511	20861
889.635	20689
889.759	20556
889.883	20537
890.006	20613
890.13	20579
890.254	20571
890.377	20655
890.501	20286
890.624	20317
890.748	20438
890.871	20237
890.995	20172
891.118	20043
891.241	20229
891.364	20138
891.488	20301
891.611	20214
891.734	20142
891.857	20237
891.98	20149
892.103	20240
892.226	20210
892.349	20180
892.471	19951
892.594	20058
892.717	20142
892.839	20031
892.962	20054
893.085	20115
893.207	20134
893.33	20020
893.452	19978
893.575	20065
893.697	20077
893.819	20233
893.941	20275
894.064	20119
894.186	20039
894.308	19947
894.43	20210
894.552	20149
894.674	20161
894.796	19970
894.918	20092
895.04	19944
895.161	20218
895.283	20065
895.405	19970
895.526	20031
895.648	20111
895.769	19959
895.891	20077
896.012	20142
896.134	20096
896.255	20115
896.376	20088
896.498	20142
896.619	20039
896.74	20103
896.861	20122
896.982	20465
897.103	20492
897.224	20427
897.345	20214
897.466	20206
897.587	20267
897.708	20480
897.828	20305
897.949	20157
898.07	20142
898.19	20096
898.311	20199
898.431	20221
898.552	20278
898.672	20298
898.792	20320
898.913	20294
899.033	20183
899.153	20103
899.273	19997
899.393	20005
899.513	20122
899.633	19997
899.753	19982
899.873	20027
899.993	20046
900.113	19989
900.232	20005
900.352	19970
900.472	19955
900.591	19830
900.711	19731
900.83	19738
900.95	19871
901.069	19940
901.189	19731
901.308	19430
901.427	19518
901.546	19514
901.665	19411
901.784	19415
901.904	19259
902.023	19122
902.141	19019
902.26	18901
902.379	18935
902.498	18897
902.617	18757
902.735	18829
902.854	18821
902.973	18833
903.091	18608
903.21	18521
903.328	18513
903.446	18437
903.565	18342
903.683	18395
903.801	18304
903.919	18407
904.038	18338
904.156	18140
904.274	18296
904.392	18133
904.51	18197
904.627	18125
904.745	18159
904.863	18178
904.981	17942
905.098	17885
905.216	17760
905.334	17923
905.451	17847
905.569	17893
905.686	17832
905.803	17783
905.921	17596
906.038	17813
906.155	17638
906.272	17444
906.389	17554
906.506	17376
906.623	17356
906.74	17379
906.857	17330
906.974	17250
907.091	17490
907.208	17311
907.324	17414
907.441	17181
907.557	17071
907.674	17079
907.79	17025
907.907	17029
908.023	17189
908.139	17090
908.256	17075
908.372	16915
908.488	16980
908.604	16843
908.72	16797
908.836	16915
908.952	16740
909.068	16797
909.184	16938
909.3	16816
909.415	16892
909.531	16885
909.647	16721
909.762	16459
909.878	16440
909.993	16573
910.108	16447
910.224	16508
910.339	16512
910.454	16329
910.57	16394
910.685	16268
910.8	16512
910.915	16485
911.03	16303
911.145	16257
911.259	16063
911.374	16158
911.489	16067
911.604	15911
911.718	15793
911.833	15953
911.947	15800
912.062	15637
912.176	15842
912.291	15774
912.405	15823
912.519	15998
912.633	15953
912.748	15915
912.862	15903
912.976	15644
913.09	15507
913.204	15530
913.318	15591
913.431	15766
913.545	15739
913.659	15781
913.772	15698
913.886	15545
914	15416
914.113	15481
914.226	15507
914.34	15564
914.453	15218
914.566	15523
914.68	15344
914.793	15291
914.906	15154
915.019	15089
915.132	14975
915.245	15142
915.358	15100
915.47	15093
915.583	15001
915.696	15169
915.809	15260
915.921	15211
916.034	15005
916.146	14971
916.259	14948
916.371	14975
916.483	15051
916.595	14910
916.708	14842
916.82	14941
916.932	14933
917.044	14823
917.156	14845
917.268	14670
917.38	14716
917.491	14655
917.603	14659
917.715	14857
917.826	14819
917.938	14648
918.049	14625
918.161	14590
918.272	14815
918.384	14686
918.495	14754
918.606	14469
918.717	14438
918.828	14480
918.939	14480
919.05	14396
919.161	14351
919.272	14301
919.383	14305
919.494	14533
919.604	14655
919.715	14454
919.826	14267
919.936	14427
920.047	14518
920.157	14560
920.267	14686
920.378	14484
920.488	14514
920.598	14602
920.708	14724
920.818	14507
920.928	14674
921.038	14716
921.148	14716
921.258	14381
921.368	14305
921.477	14275
921.587	14187
921.697	14024
921.806	14191
921.916	14065
922.025	13890
922.134	13712
922.244	13731
922.353	13765
922.462	13674
922.571	13616
922.68	13487
922.789	13453
922.898	13487
923.007	13343
923.116	13586
923.224	13373
923.333	13453
923.442	13350
923.55	13263
923.659	13369
923.767	13419
923.876	13289
923.984	13377
924.092	13168
924.201	13263
924.309	13164
924.417	13194
924.525	13031
924.633	13149
924.741	13906
924.849	12932
924.956	13012
925.064	12924
925.172	12905
925.279	12848
925.387	12970
925.494	12905
925.602	13114
925.709	12871
925.816	12715
925.924	12848
926.031	12939
926.138	12764
926.245	12764
926.352	12677
926.459	12806
926.566	12882
926.673	12734
926.779	12654
926.886	12608
926.993	12456
927.099	12486
927.206	12426
927.312	12441
927.419	12471
927.525	12464
927.631	12460
927.737	12289
927.843	12323
927.95	12159
928.056	12232
928.162	12342
928.267	12247
928.373	13004
928.479	12296
928.585	12133
928.69	12277
928.796	12247
928.901	12064
929.007	11996
929.112	12216
929.218	12155
929.323	12011
929.428	11927
929.533	12171
929.638	11988
929.743	11996
929.848	12003
929.953	12026
930.058	11870
930.163	11691
930.267	11741
930.372	11901
930.477	11596
930.581	11893
930.685	11752
930.79	11608
930.894	11596
930.998	11539
931.103	11703
931.207	11322
931.311	11216
931.415	11201
931.519	10999
931.623	10927
