Data from test_V78500241_423.txt Node
Date: Fri Mar 25 15:12:48 CST 2022
User: usil
Spectrometer: V785-0024
Trigger mode: 0
Integration Time (sec): 4.000000E-1
Scans to average: 1
Nonlinearity correction enabled: false
Boxcar width: 0
Storing dark spectrum: false
XAxis mode: Wavelengths
Number of Pixels in Spectrum: 1024
>>>>>Begin Spectral Data<<<<<
801.071	27386
801.214	27294
801.356	26979
801.499	26982
801.641	26762
801.783	26792
801.926	26944
802.068	26853
802.211	26724
802.353	26606
802.496	26514
802.638	26583
802.78	26564
802.923	26347
803.065	26537
803.208	26480
803.35	26393
803.492	26648
803.635	26579
803.777	26488
803.919	26678
804.061	26910
804.204	26765
804.346	26552
804.488	26514
804.63	26659
804.773	26590
804.915	26556
805.057	26727
805.199	26511
805.341	26678
805.483	26693
805.626	26598
805.768	26530
805.91	26724
806.052	26686
806.194	26579
806.336	26861
806.478	26777
806.62	26701
806.762	26754
806.904	27001
807.046	27275
807.188	27089
807.33	27081
807.472	27283
807.614	27039
807.756	27146
807.898	27013
808.04	26785
808.182	26937
808.324	27043
808.465	26834
808.607	27070
808.749	27310
808.891	27332
809.033	27439
809.174	27477
809.316	27226
809.458	27188
809.6	27230
809.741	27291
809.883	27298
810.025	27614
810.166	27622
810.308	27736
810.45	27572
810.591	27549
810.733	27233
810.875	27439
811.016	27173
811.158	27226
811.299	27386
811.441	27591
811.582	27431
811.724	27268
811.865	27169
812.007	27340
812.148	27291
812.29	27378
812.431	27393
812.573	27557
812.714	27724
812.855	27869
812.997	28051
813.138	28078
813.279	27930
813.421	27831
813.562	27835
813.703	27583
813.845	27564
813.986	27283
814.127	27093
814.268	26963
814.41	26868
814.551	26921
814.692	27009
814.833	26979
814.974	26899
815.115	26883
815.256	26872
815.397	26883
815.539	26826
815.68	26834
815.821	26716
815.962	26739
816.103	26659
816.244	26621
816.385	26450
816.526	26537
816.666	26263
816.807	26111
816.948	26278
817.089	26415
817.23	26229
817.371	26252
817.512	26313
817.653	26153
817.793	26233
817.934	26309
818.075	26172
818.216	26153
818.356	26161
818.497	26069
818.638	25955
818.778	25963
818.919	25955
819.06	25864
819.2	26138
819.341	26278
819.481	26233
819.622	26347
819.762	26545
819.903	26526
820.043	26389
820.184	26518
820.324	26298
820.465	26343
820.605	26336
820.746	26434
820.886	26191
821.026	26317
821.167	26320
821.307	26278
821.447	26225
821.588	26092
821.728	26195
821.868	26001
822.008	25712
822.149	25761
822.289	25689
822.429	25411
822.569	25308
822.709	25396
822.849	25419
822.99	25236
823.13	25164
823.27	24989
823.41	25000
823.55	24852
823.69	25061
823.83	25046
823.97	24962
824.11	24760
824.25	24707
824.389	24703
824.529	25065
824.669	24897
824.809	25008
824.949	24791
825.089	25023
825.228	24852
825.368	24745
825.508	24703
825.648	24669
825.787	24768
825.927	24745
826.067	24681
826.206	24669
826.346	24696
826.485	24658
826.625	24642
826.765	24867
826.904	24635
827.044	24414
827.183	24426
827.323	24429
827.462	24464
827.601	24589
827.741	24330
827.88	24410
828.02	24251
828.159	24334
828.298	24342
828.437	24509
828.577	24273
828.716	24502
828.855	24216
828.994	24216
829.134	24038
829.273	24243
829.412	24102
829.551	24129
829.69	24087
829.829	24159
829.968	24235
830.107	24285
830.246	24117
830.385	24098
830.524	24053
830.663	23908
830.802	23942
830.941	23866
831.08	23737
831.219	23748
831.357	23923
831.496	24034
831.635	23729
831.774	23695
831.913	23646
832.051	23528
832.19	23570
832.329	23619
832.467	23440
832.606	23444
832.744	23368
832.883	23417
833.022	23444
833.16	23379
833.299	23535
833.437	23322
833.576	23596
833.714	23448
833.852	23634
833.991	23448
834.129	23535
834.267	23604
834.406	23566
834.544	23512
834.682	23505
834.821	23509
834.959	23653
835.097	23429
835.235	23596
835.373	23440
835.511	23490
835.65	23398
835.788	23356
835.926	23322
836.064	23212
836.202	23117
836.34	23345
836.478	23512
836.615	23296
836.753	23322
836.891	23490
837.029	23406
837.167	23345
837.305	23242
837.443	23227
837.58	23223
837.718	23364
837.856	23159
837.993	23140
838.131	23197
838.269	23128
838.406	23136
838.544	23113
838.681	22999
838.819	22763
838.956	22588
839.094	22713
839.231	22668
839.369	22793
839.506	23018
839.643	22915
839.781	22668
839.918	22603
840.055	22675
840.193	22675
840.33	22550
840.467	22634
840.604	22660
840.742	22877
840.879	22542
841.016	22565
841.153	22489
841.29	22793
841.427	22706
841.564	22569
841.701	22592
841.838	22557
841.975	22451
842.112	22554
842.249	22329
842.385	22261
842.522	22656
842.659	22405
842.796	22306
842.933	22447
843.069	22295
843.206	22268
843.343	22405
843.479	22417
843.616	22459
843.752	22162
843.889	22200
844.025	22230
844.162	22105
844.298	22215
844.435	22188
844.571	22131
844.708	21994
844.844	22333
844.98	22306
845.117	22249
845.253	22223
845.389	22040
845.525	22010
845.661	22078
845.798	21823
845.934	21979
846.07	21854
846.206	21835
846.342	21956
846.478	21838
846.614	21690
846.75	21648
846.886	21561
847.022	21751
847.158	21648
847.294	21713
847.429	21595
847.565	21580
847.701	21865
847.837	21332
847.972	21313
848.108	21519
848.244	21348
848.379	21367
848.515	21249
848.65	21211
848.786	21256
848.921	21146
849.057	21291
849.192	21310
849.328	21329
849.463	21188
849.598	21192
849.734	21074
849.869	21039
850.004	20975
850.14	20937
850.275	20975
850.41	20826
850.545	20872
850.68	20979
850.815	20933
850.95	20914
851.085	21096
851.22	21116
851.355	21039
851.49	21020
851.625	20872
851.76	20944
851.895	20975
852.03	20986
852.165	21017
852.299	20979
852.434	21017
852.569	21028
852.703	20937
852.838	21013
852.973	21150
853.107	21081
853.242	20819
853.376	20948
853.511	20674
853.645	20792
853.78	20937
853.914	20880
854.048	20746
854.183	20895
854.317	20739
854.451	21005
854.585	20754
854.72	20765
854.854	20811
854.988	20644
855.122	20708
855.256	20724
855.39	20883
855.524	20781
855.658	20849
855.792	20845
855.926	20830
856.06	20800
856.194	20804
856.327	20815
856.461	20838
856.595	20754
856.729	20769
856.862	20773
856.996	20754
857.13	20861
857.263	20819
857.397	20864
857.53	20849
857.664	20895
857.797	20807
857.931	20826
858.064	20876
858.197	20800
858.331	20769
858.464	20705
858.597	20739
858.731	20750
858.864	20674
858.997	20807
859.13	20689
859.263	20781
859.396	20906
859.529	20754
859.662	20640
859.795	20765
859.928	20838
860.061	20967
860.194	21013
860.327	20849
860.46	20769
860.592	20960
860.725	20952
860.858	20777
860.99	20762
861.123	20765
861.256	20743
861.388	20792
861.521	21564
861.653	20621
861.786	20705
861.918	20686
862.05	20621
862.183	20697
862.315	20777
862.447	20788
862.58	20621
862.712	20465
862.844	20488
862.976	20632
863.108	20609
863.24	20963
863.372	20396
863.504	20446
863.636	20495
863.768	20655
863.9	20503
864.032	20431
864.164	20457
864.296	20495
864.428	20552
864.559	20587
864.691	20632
864.823	20587
864.954	20446
865.086	20400
865.217	20328
865.349	20450
865.48	20408
865.612	20328
865.743	20503
865.875	20370
866.006	20366
866.137	20366
866.269	20377
866.4	20347
866.531	20457
866.662	20278
866.793	20259
866.924	20419
867.055	20438
867.186	20370
867.317	20404
867.448	20256
867.579	20301
867.71	20313
867.841	20305
867.972	20374
868.103	20339
868.233	20396
868.364	20317
868.495	20377
868.625	20488
868.756	20727
868.886	20541
869.017	20625
869.147	20621
869.278	20792
869.408	20583
869.539	20537
869.669	20644
869.799	20629
869.929	20663
870.06	20602
870.19	20937
870.32	20975
870.45	20861
870.58	21005
870.71	21108
870.84	21142
870.97	20971
871.1	21005
871.23	21074
871.36	21218
871.489	21100
871.619	21233
871.749	21222
871.879	21207
872.008	21264
872.138	21298
872.267	21104
872.397	21184
872.526	20986
872.656	21001
872.785	20963
872.915	21146
873.044	21408
873.173	21249
873.303	21230
873.432	21294
873.561	21252
873.69	21294
873.819	21176
873.948	21287
874.077	21214
874.206	21142
874.335	21207
874.464	21192
874.593	21428
874.722	21378
874.851	21443
874.979	21450
875.108	21538
875.237	21386
875.365	21359
875.494	21389
875.623	21561
875.751	21405
875.88	21443
876.008	21641
876.136	21663
876.265	21873
876.393	21979
876.521	21953
876.65	21846
876.778	21983
876.906	21720
877.034	21747
877.162	21808
877.29	21778
877.418	21709
877.546	21797
877.674	21846
877.802	21671
877.93	21701
878.058	21857
878.185	21629
878.313	21846
878.441	21736
878.568	21625
878.696	21739
878.824	21800
878.951	21865
879.079	22055
879.206	22074
879.333	21895
879.461	21861
879.588	21892
879.715	21926
879.842	22101
879.97	21880
880.097	21572
880.224	21698
880.351	21736
880.478	21694
880.605	21557
880.732	21545
880.859	21739
880.986	21694
881.112	21561
881.239	21561
881.366	21374
881.493	21287
881.619	21142
881.746	21211
881.872	21294
881.999	21241
882.125	21161
882.252	21192
882.378	21058
882.505	21317
882.631	21036
882.757	21036
882.883	21039
883.01	20956
883.136	20800
883.262	20697
883.388	20750
883.514	20994
883.64	20902
883.766	20758
883.892	20655
884.018	20792
884.143	20853
884.269	20906
884.395	20571
884.52	20492
884.646	20705
884.772	20446
884.897	20575
885.023	20568
885.148	20659
885.274	20830
885.399	20727
885.524	20476
885.65	20545
885.775	20564
885.9	20632
886.025	20716
886.15	20682
886.275	20434
886.4	20434
886.525	20537
886.65	20450
886.775	20526
886.9	20678
887.025	20667
887.149	20541
887.274	20298
887.399	20298
887.523	20332
887.648	20332
887.773	20221
887.897	20362
888.021	20389
888.146	20454
888.27	20469
888.395	20370
888.519	20305
888.643	20366
888.767	20393
888.891	20267
889.015	20206
889.139	20221
889.263	20142
889.387	20263
889.511	20221
889.635	20320
889.759	20149
889.883	20202
890.006	20138
890.13	20229
890.254	20069
890.377	20058
890.501	19936
890.624	19795
890.748	19963
890.871	19681
890.995	19620
891.118	19666
891.241	19731
891.364	19811
891.488	19788
891.611	19746
891.734	19769
891.857	19864
891.98	19708
892.103	19689
892.226	19753
892.349	19635
892.471	19556
892.594	19616
892.717	19685
892.839	19601
892.962	19662
893.085	19674
893.207	19674
893.33	19548
893.452	19529
893.575	19708
893.697	19529
893.819	19791
893.941	19795
894.064	19719
894.186	19597
894.308	19521
894.43	19632
894.552	19807
894.674	19635
894.796	19586
894.918	19510
895.04	19578
895.161	19662
895.283	19578
895.405	19681
895.526	19643
895.648	19601
895.769	19712
895.891	19571
896.012	19761
896.134	19677
896.255	19784
896.376	19635
896.498	19620
896.619	19578
896.74	19514
896.861	19639
896.982	19826
897.103	20092
897.224	20031
897.345	19818
897.466	19807
897.587	19955
897.708	19959
897.828	19807
897.949	19700
898.07	19715
898.19	19769
898.311	19860
898.431	19772
898.552	19830
898.672	19780
898.792	19940
898.913	19902
899.033	19712
899.153	19662
899.273	19521
899.393	19563
899.513	19590
899.633	19556
899.753	19518
899.873	19495
899.993	19734
900.113	19544
900.232	19476
900.352	19502
900.472	19502
900.591	19343
900.711	19464
900.83	19316
900.95	19422
901.069	19460
901.189	19312
901.308	19156
901.427	18966
901.546	18935
901.665	19034
901.784	19008
901.904	18806
902.023	18844
902.141	18597
902.26	18540
902.379	18692
902.498	18536
902.617	18399
902.735	18513
902.854	18456
902.973	18467
903.091	18224
903.21	18133
903.328	18083
903.446	18079
903.565	17954
903.683	18034
903.801	17935
903.919	17908
904.038	18011
904.156	17828
904.274	17878
904.392	17718
904.51	17748
904.627	17771
904.745	17718
904.863	17760
904.981	17505
905.098	17448
905.216	17452
905.334	17402
905.451	17398
905.569	17440
905.686	17455
905.803	17425
905.921	17178
906.038	17307
906.155	17273
906.272	17071
906.389	17200
906.506	16987
906.623	16995
906.74	16957
906.857	16812
906.974	16911
907.091	17048
907.208	17010
907.324	17037
907.441	16889
907.557	16809
907.674	16641
907.79	16668
907.907	16721
908.023	16683
908.139	16653
908.256	16626
908.372	16588
908.488	16611
908.604	16402
908.72	16455
908.836	16546
908.952	16421
909.068	16341
909.184	16451
909.3	16428
909.415	16508
909.531	16363
909.647	16226
909.762	16253
909.878	16204
909.993	16207
910.108	16101
910.224	16036
910.339	16147
910.454	16112
910.57	15930
910.685	15907
910.8	16109
910.915	16093
911.03	15911
911.145	15800
911.259	15701
911.374	15770
911.489	15751
911.604	15644
911.718	15447
911.833	15500
911.947	15397
912.062	15310
912.176	15511
912.291	15515
912.405	15580
912.519	15679
912.633	15633
912.748	15542
912.862	15481
912.976	15325
913.09	15233
913.204	15199
913.318	15325
913.431	15424
913.545	15332
913.659	15428
913.772	15211
913.886	15173
914	14979
914.113	15218
914.226	15180
914.34	15135
914.453	15005
914.566	15146
914.68	14937
914.793	15001
914.906	14804
915.019	14769
915.132	14648
915.245	14731
915.358	14686
915.47	14682
915.583	14800
915.696	14743
915.809	14826
915.921	14861
916.034	14617
916.146	14598
916.259	14594
916.371	14750
916.483	14629
916.595	14560
916.708	14629
916.82	14552
916.932	14499
917.044	14450
917.156	14507
917.268	14351
917.38	14419
917.491	14469
917.603	14438
917.715	14480
917.826	14541
917.938	14355
918.049	14240
918.161	14294
918.272	14434
918.384	14450
918.495	14339
918.606	14195
918.717	14157
918.828	14130
918.939	14271
919.05	14145
919.161	14176
919.272	14039
919.383	14081
919.494	14191
919.604	14336
919.715	14157
919.826	14020
919.936	14016
920.047	14237
920.157	14168
920.267	14320
920.378	14062
920.488	14054
920.598	14290
920.708	14396
920.818	14195
920.928	14298
921.038	14434
921.148	14404
921.258	14092
921.368	14103
921.477	13917
921.587	13955
921.697	13826
921.806	13879
921.916	13674
922.025	13624
922.134	13548
922.244	13445
922.353	13499
922.462	13415
922.571	13441
922.68	13247
922.789	13114
922.898	13129
923.007	13107
923.116	13126
923.224	13187
923.333	13156
923.442	12981
923.55	13023
923.659	13080
923.767	13118
923.876	12928
923.984	13114
924.092	12947
924.201	12840
924.309	13008
924.417	12897
924.525	12829
924.633	12844
924.741	13769
924.849	12673
924.956	12795
925.064	12669
925.172	12479
925.279	12650
925.387	12681
925.494	12665
925.602	12779
925.709	12620
925.816	12528
925.924	12578
926.031	12741
926.138	12544
926.245	12563
926.352	12464
926.459	12612
926.566	12616
926.673	12464
926.779	12369
926.886	12376
926.993	12194
927.099	12209
927.206	12129
927.312	12152
927.419	12171
927.525	12182
927.631	12220
927.737	12053
927.843	12022
927.95	12038
928.056	12034
928.162	11908
928.267	12136
928.373	12593
928.479	12152
928.585	11836
928.69	11889
928.796	11908
928.901	11939
929.007	11798
929.112	11942
929.218	11904
929.323	11703
929.428	11733
929.533	11980
929.638	11642
929.743	11646
929.848	11707
929.953	11726
930.058	11589
930.163	11512
930.267	11429
930.372	11566
930.477	11387
930.581	11585
930.685	11486
930.79	11330
930.894	11353
930.998	11284
931.103	11429
931.207	11113
931.311	10980
931.415	10885
931.519	10801
931.623	10675
