Data from test_V78500241_1875.txt Node
Date: Fri Mar 25 15:22:54 CST 2022
User: usil
Spectrometer: V785-0024
Trigger mode: 0
Integration Time (sec): 4.000000E-1
Scans to average: 1
Nonlinearity correction enabled: false
Boxcar width: 0
Storing dark spectrum: false
XAxis mode: Wavelengths
Number of Pixels in Spectrum: 1024
>>>>>Begin Spectral Data<<<<<
801.071	28067
801.214	27717
801.356	27553
801.499	27458
801.641	27435
801.783	27405
801.926	27443
802.068	27580
802.211	27416
802.353	27382
802.496	27036
802.638	27104
802.78	27070
802.923	27058
803.065	26929
803.208	27154
803.35	26960
803.492	27123
803.635	27195
803.777	27214
803.919	27237
804.061	27606
804.204	27203
804.346	27230
804.488	27135
804.63	27363
804.773	27188
804.915	27203
805.057	27302
805.199	27355
805.341	27378
805.483	27332
805.626	27340
805.768	27367
805.91	27317
806.052	27416
806.194	27184
806.336	27599
806.478	27462
806.62	27374
806.762	27427
806.904	27580
807.046	27641
807.188	27675
807.33	27789
807.472	27907
807.614	27698
807.756	27755
807.898	27637
808.04	27701
808.182	27561
808.324	27637
808.465	27781
808.607	27819
808.749	28063
808.891	28105
809.033	28135
809.174	28074
809.316	27907
809.458	27861
809.6	28044
809.741	28230
809.883	28109
810.025	28333
810.166	28310
810.308	28276
810.45	28265
810.591	28173
810.733	28086
810.875	27911
811.016	27846
811.158	27888
811.299	28139
811.441	28181
811.582	28116
811.724	28055
811.865	28017
812.007	27907
812.148	28048
812.29	27975
812.431	28078
812.573	28272
812.714	28401
812.855	28554
812.997	28577
813.138	28611
813.279	28752
813.421	28523
813.562	28561
813.703	28337
813.845	28143
813.986	27812
814.127	27857
814.268	27800
814.41	27713
814.551	27606
814.692	27918
814.833	27759
814.974	27610
815.115	27774
815.256	27622
815.397	27618
815.539	27595
815.68	27427
815.821	27534
815.962	27545
816.103	27587
816.244	27378
816.385	27245
816.526	27226
816.666	27093
816.807	26918
816.948	26918
817.089	27169
817.23	27066
817.371	27005
817.512	26998
817.653	26902
817.793	26792
817.934	27047
818.075	27104
818.216	27028
818.356	26967
818.497	26868
818.638	26598
818.778	26781
818.919	26853
819.06	26914
819.2	26994
819.341	27074
819.481	26902
819.622	27161
819.762	27325
819.903	27176
820.043	27096
820.184	26982
820.324	27028
820.465	27211
820.605	27157
820.746	27032
820.886	26887
821.026	27017
821.167	27077
821.307	27264
821.447	27024
821.588	27017
821.728	26644
821.868	26587
822.008	26366
822.149	26545
822.289	26396
822.429	26130
822.569	26240
822.709	26187
822.849	25932
822.99	25970
823.13	25921
823.27	25940
823.41	25807
823.55	25693
823.69	25826
823.83	25700
823.97	25765
824.11	25590
824.25	25499
824.389	25609
824.529	25590
824.669	25506
824.809	25780
824.949	25746
825.089	25696
825.228	25681
825.368	25468
825.508	25502
825.648	25472
825.787	25582
825.927	25658
826.067	25575
826.206	25518
826.346	25521
826.485	25510
826.625	25556
826.765	25540
826.904	25453
827.044	25301
827.183	25251
827.323	25198
827.462	25148
827.601	25282
827.741	25244
827.88	25126
828.02	25156
828.159	25156
828.298	25270
828.437	25209
828.577	25107
828.716	25236
828.855	25126
828.994	24989
829.134	25012
829.273	24947
829.412	24867
829.551	24840
829.69	24802
829.829	24985
829.968	24951
830.107	24882
830.246	24932
830.385	24882
830.524	24741
830.663	24639
830.802	24604
830.941	24502
831.08	24509
831.219	24639
831.357	24639
831.496	24825
831.635	24509
831.774	24593
831.913	24357
832.051	24308
832.19	24216
832.329	24323
832.467	24144
832.606	24224
832.744	24148
832.883	24224
833.022	24098
833.16	24213
833.299	24239
833.437	24148
833.576	24213
833.714	24239
833.852	24361
833.991	24247
834.129	24346
834.267	24357
834.406	24289
834.544	24220
834.682	24289
834.821	24220
834.959	24403
835.097	24205
835.235	24380
835.373	24346
835.511	24258
835.65	24110
835.788	24213
835.926	24030
836.064	23882
836.202	23961
836.34	24068
836.478	24190
836.615	24011
836.753	24022
836.891	24125
837.029	24186
837.167	24068
837.305	24045
837.443	24003
837.58	23935
837.718	24057
837.856	23980
837.993	23889
838.131	23958
838.269	23794
838.406	23832
838.544	23737
838.681	23638
838.819	23611
838.956	23467
839.094	23440
839.231	23589
839.369	23703
839.506	23942
839.643	23516
839.781	23406
839.918	23315
840.055	23341
840.193	23471
840.33	23391
840.467	23315
840.604	23387
840.742	23680
840.879	23166
841.016	23246
841.153	23242
841.29	23376
841.427	23334
841.564	23391
841.701	23364
841.838	23151
841.975	23220
842.112	23151
842.249	23185
842.385	23155
842.522	23330
842.659	23048
842.796	23067
842.933	23147
843.069	23113
843.206	22991
843.343	23105
843.479	22991
843.616	23181
843.752	22892
843.889	22889
844.025	23014
844.162	22892
844.298	22987
844.435	22927
844.571	22927
844.708	22949
844.844	23006
844.98	22972
845.117	23006
845.253	22820
845.389	22592
845.525	22847
845.661	22645
845.798	22668
845.934	22565
846.07	22550
846.206	22656
846.342	22729
846.478	22531
846.614	22402
846.75	22230
846.886	22394
847.022	22371
847.158	22436
847.294	22234
847.429	22436
847.565	22341
847.701	22535
847.837	22051
847.972	22044
848.108	22280
848.244	22120
848.379	21930
848.515	21907
848.65	21975
848.786	21934
848.921	21960
849.057	22017
849.192	22017
849.328	21918
849.463	21918
849.598	21930
849.734	21747
849.869	21713
850.004	21641
850.14	21751
850.275	21660
850.41	21675
850.545	21606
850.68	21572
850.815	21694
850.95	21667
851.085	22010
851.22	21774
851.355	21644
851.49	21698
851.625	21732
851.76	21568
851.895	21542
852.03	21500
852.165	21587
852.299	21774
852.434	21869
852.569	21766
852.703	21644
852.838	21720
852.973	21804
853.107	21724
853.242	21606
853.376	21545
853.511	21408
853.645	21515
853.78	21770
853.914	21576
854.048	21393
854.183	21458
854.317	21637
854.451	21705
854.585	21481
854.72	21431
854.854	21576
854.988	21386
855.122	21511
855.256	21428
855.39	21557
855.524	21568
855.658	21652
855.792	21603
855.926	21534
856.06	21553
856.194	21530
856.327	21500
856.461	21405
856.595	21424
856.729	21538
856.862	21797
856.996	21637
857.13	21580
857.263	21515
857.397	21583
857.53	21458
857.664	21538
857.797	21614
857.931	21519
858.064	21587
858.197	21625
858.331	21583
858.464	21450
858.597	21431
858.731	21534
858.864	21454
858.997	21370
859.13	21428
859.263	21492
859.396	21606
859.529	21416
859.662	21336
859.795	21530
859.928	21526
860.061	21652
860.194	21660
860.327	21515
860.46	21606
860.592	21538
860.725	21667
860.858	21728
860.99	21549
861.123	21545
861.256	21469
861.388	21519
861.521	22074
861.653	21424
861.786	21294
861.918	21306
862.05	21401
862.183	21466
862.315	21374
862.447	21515
862.58	21439
862.712	21245
862.844	21211
862.976	21313
863.108	21283
863.24	21656
863.372	21226
863.504	21184
863.636	21165
863.768	21150
863.9	21256
864.032	21135
864.164	21230
864.296	21199
864.428	21386
864.559	21279
864.691	21272
864.823	21150
864.954	21306
865.086	21161
865.217	21077
865.349	20990
865.48	21074
865.612	21138
865.743	21264
865.875	20998
866.006	21100
866.137	21058
866.269	21184
866.4	21024
866.531	21207
866.662	20990
866.793	20986
866.924	21077
867.055	21070
867.186	21127
867.317	21009
867.448	20918
867.579	21081
867.71	20933
867.841	20902
867.972	21146
868.103	20948
868.233	21020
868.364	21062
868.495	21085
868.625	21199
868.756	21348
868.886	21256
869.017	21252
869.147	21355
869.278	21386
869.408	21332
869.539	21161
869.669	21477
869.799	21382
869.929	21466
870.06	21462
870.19	21595
870.32	21629
870.45	21648
870.58	21599
870.71	21774
870.84	21785
870.97	21663
871.1	21766
871.23	21915
871.36	21930
871.489	21724
871.619	21915
871.749	21918
871.879	21945
872.008	21869
872.138	21831
872.267	21827
872.397	21686
872.526	21778
872.656	21690
872.785	21755
872.915	21911
873.044	21949
873.173	21736
873.303	21960
873.432	22006
873.561	22006
873.69	21911
873.819	21888
873.948	21926
874.077	21934
874.206	21956
874.335	22051
874.464	22002
874.593	22105
874.722	22078
874.851	22124
874.979	22101
875.108	22246
875.237	22116
875.365	21907
875.494	22116
875.623	22147
875.751	22074
875.88	22055
876.008	22162
876.136	22272
876.265	22390
876.393	22599
876.521	22645
876.65	22523
876.778	22538
876.906	22390
877.034	22497
877.162	22443
877.29	22504
877.418	22523
877.546	22542
877.674	22367
877.802	22455
877.93	22386
878.058	22474
878.185	22478
878.313	22398
878.441	22409
878.568	22246
878.696	22295
878.824	22508
878.951	22478
879.079	22622
879.206	22687
879.333	22683
879.461	22466
879.588	22599
879.715	22615
879.842	22812
879.97	22466
880.097	22310
880.224	22314
880.351	22306
880.478	22329
880.605	22215
880.732	22272
880.859	22508
880.986	22299
881.112	22314
881.239	22196
881.366	21991
881.493	21964
881.619	21869
881.746	21831
881.872	21857
881.999	21888
882.125	21747
882.252	22010
882.378	21812
882.505	21865
882.631	21778
882.757	21629
882.883	21576
883.01	21511
883.136	21618
883.262	21382
883.388	21469
883.514	21583
883.64	21530
883.766	21549
883.892	21252
884.018	21386
884.143	21454
884.269	21557
884.395	21279
884.52	21195
884.646	21306
884.772	21188
884.897	20952
885.023	21344
885.148	21275
885.274	21386
885.399	21454
885.524	21272
885.65	21146
885.775	21142
885.9	21161
886.025	21294
886.15	21252
886.275	21142
886.4	21066
886.525	21150
886.65	21089
886.775	21192
886.9	21272
887.025	21401
887.149	21104
887.274	21013
887.399	20967
887.523	20998
887.648	20948
887.773	20971
887.897	21043
888.021	21112
888.146	20952
888.27	21055
888.395	21116
888.519	21024
888.643	21020
888.767	21089
888.891	21051
889.015	20743
889.139	20872
889.263	20796
889.387	20864
889.511	20990
889.635	20918
889.759	20678
889.883	20762
890.006	20792
890.13	20872
890.254	20724
890.377	20625
890.501	20461
890.624	20396
890.748	20465
890.871	20511
890.995	20351
891.118	20324
891.241	20244
891.364	20381
891.488	20549
891.611	20320
891.734	20385
891.857	20396
891.98	20298
892.103	20366
892.226	20431
892.349	20278
892.471	20134
892.594	20077
892.717	20301
892.839	20172
892.962	20298
893.085	20256
893.207	20259
893.33	20024
893.452	20161
893.575	20199
893.697	20282
893.819	20309
893.941	20465
894.064	20423
894.186	20176
894.308	20157
894.43	20256
894.552	20336
894.674	20271
894.796	20157
894.918	20282
895.04	20107
895.161	20347
895.283	20298
895.405	20138
895.526	20225
895.648	20240
895.769	20122
895.891	20324
896.012	20320
896.134	20259
896.255	20142
896.376	20256
896.498	20256
896.619	20305
896.74	20244
896.861	20286
896.982	20629
897.103	20777
897.224	20457
897.345	20400
897.466	20396
897.587	20476
897.708	20522
897.828	20446
897.949	20454
898.07	20199
898.19	20454
898.311	20469
898.431	20530
898.552	20434
898.672	20461
898.792	20492
898.913	20492
899.033	20374
899.153	20381
899.273	20180
899.393	20221
899.513	20298
899.633	20278
899.753	20286
899.873	20092
899.993	20218
900.113	20092
900.232	20126
900.352	20031
900.472	19993
900.591	19989
900.711	19963
900.83	19849
900.95	20035
901.069	20077
901.189	19830
901.308	19635
901.427	19563
901.546	19582
901.665	19483
901.784	19597
901.904	19278
902.023	19324
902.141	19213
902.26	19156
902.379	19175
902.498	19145
902.617	19004
902.735	19088
902.854	18943
902.973	18916
903.091	18768
903.21	18757
903.328	18741
903.446	18642
903.565	18574
903.683	18582
903.801	18494
903.919	18521
904.038	18445
904.156	18407
904.274	18467
904.392	18380
904.51	18285
904.627	18136
904.745	18342
904.863	18422
904.981	18045
905.098	17961
905.216	17980
905.334	17965
905.451	17950
905.569	17916
905.686	17916
905.803	17958
905.921	17790
906.038	17824
906.155	17695
906.272	17680
906.389	17710
906.506	17497
906.623	17505
906.74	17524
906.857	17474
906.974	17444
907.091	17600
907.208	17501
907.324	17566
907.441	17391
907.557	17273
907.674	17223
907.79	17299
907.907	17204
908.023	17349
908.139	17170
908.256	17113
908.372	17117
908.488	17102
908.604	16968
908.72	16942
908.836	16980
908.952	16869
909.068	16965
909.184	17018
909.3	16949
909.415	16889
909.531	16915
909.647	16706
909.762	16687
909.878	16611
909.993	16710
910.108	16626
910.224	16653
910.339	16584
910.454	16538
910.57	16409
910.685	16470
910.8	16649
910.915	16615
911.03	16367
911.145	16265
911.259	16188
911.374	16249
911.489	16101
911.604	16154
911.718	15975
911.833	16040
911.947	15953
912.062	15812
912.176	15960
912.291	15903
912.405	15869
912.519	16097
912.633	16112
912.748	16044
912.862	16082
912.976	15770
913.09	15694
913.204	15724
913.318	15713
913.431	15930
913.545	15884
913.659	15945
913.772	15694
913.886	15568
914	15492
914.113	15641
914.226	15736
914.34	15743
914.453	15587
914.566	15614
914.68	15553
914.793	15428
914.906	15233
915.019	15116
915.132	15150
915.245	15211
915.358	15192
915.47	15230
915.583	15211
915.696	15226
915.809	15344
915.921	15294
916.034	15100
916.146	15173
916.259	15036
916.371	15268
916.483	15192
916.595	15058
916.708	15013
916.82	15005
916.932	15001
917.044	15070
917.156	14960
917.268	14861
917.38	14902
917.491	14762
917.603	14830
917.715	14918
917.826	14914
917.938	14796
918.049	14689
918.161	14857
918.272	14933
918.384	14823
918.495	14735
918.606	14629
918.717	14545
918.828	14670
918.939	14594
919.05	14594
919.161	14560
919.272	14320
919.383	14431
919.494	14606
919.604	14804
919.715	14495
919.826	14514
919.936	14480
920.047	14594
920.157	14583
920.267	14750
920.378	14598
920.488	14632
920.598	14769
920.708	14823
920.818	14678
920.928	14648
921.038	14849
921.148	14716
921.258	14522
921.368	14393
921.477	14294
921.587	14343
921.697	14115
921.806	14362
921.916	14168
922.025	13982
922.134	13970
922.244	13883
922.353	13856
922.462	13799
922.571	13750
922.68	13586
922.789	13616
922.898	13575
923.007	13525
923.116	13605
923.224	13628
923.333	13548
923.442	13445
923.55	13358
923.659	13430
923.767	13510
923.876	13343
923.984	13464
924.092	13278
924.201	13373
924.309	13304
924.417	13350
924.525	13236
924.633	13225
924.741	14233
924.849	13069
924.956	13179
925.064	13053
925.172	13065
925.279	12962
925.387	13053
925.494	12989
925.602	13031
925.709	12954
925.816	12848
925.924	13004
926.031	13038
926.138	12886
926.245	13019
926.352	12848
926.459	13038
926.566	13103
926.673	12871
926.779	12772
926.886	12726
926.993	12639
927.099	12597
927.206	12551
927.312	12563
927.419	12532
927.525	12544
927.631	12585
927.737	12464
927.843	12422
927.95	12311
928.056	12323
928.162	12403
928.267	12399
928.373	12920
928.479	12452
928.585	12197
928.69	12388
928.796	12243
928.901	12216
929.007	12041
929.112	12262
929.218	12133
929.323	12049
929.428	12148
929.533	12247
929.638	11988
929.743	11889
929.848	12083
929.953	12034
930.058	11897
930.163	11676
930.267	11733
930.372	11866
930.477	11748
930.581	11946
930.685	11821
930.79	11726
930.894	11737
930.998	11642
931.103	11737
931.207	11402
931.311	11277
931.415	11277
931.519	11029
931.623	11037
