Data from test_V78500241_2655.txt Node
Date: Fri Mar 25 15:28:20 CST 2022
User: usil
Spectrometer: V785-0024
Trigger mode: 0
Integration Time (sec): 4.000000E-1
Scans to average: 1
Nonlinearity correction enabled: false
Boxcar width: 0
Storing dark spectrum: false
XAxis mode: Wavelengths
Number of Pixels in Spectrum: 1024
>>>>>Begin Spectral Data<<<<<
801.071	27036
801.214	27081
801.356	26807
801.499	26746
801.641	26705
801.783	26617
801.926	26674
802.068	26674
802.211	26655
802.353	26594
802.496	26267
802.638	26434
802.78	26294
802.923	26240
803.065	26096
803.208	26130
803.35	26305
803.492	26294
803.635	26480
803.777	26412
803.919	26415
804.061	26724
804.204	26507
804.346	26488
804.488	26343
804.63	26355
804.773	26282
804.915	26389
805.057	26446
805.199	26275
805.341	26492
805.483	26640
805.626	26507
805.768	26396
805.91	26575
806.052	26488
806.194	26389
806.336	26594
806.478	26545
806.62	26438
806.762	26708
806.904	26682
807.046	26963
807.188	26857
807.33	27001
807.472	26891
807.614	26823
807.756	26823
807.898	26724
808.04	26651
808.182	26689
808.324	26674
808.465	26857
808.607	26971
808.749	27085
808.891	27180
809.033	27310
809.174	27154
809.316	26994
809.458	27169
809.6	26975
809.741	27112
809.883	27169
810.025	27340
810.166	27222
810.308	27374
810.45	27279
810.591	27245
810.733	27135
810.875	27001
811.016	26895
811.158	26940
811.299	27214
811.441	27199
811.582	27412
811.724	27047
811.865	27096
812.007	27100
812.148	26940
812.29	27036
812.431	27165
812.573	27348
812.714	27469
812.855	27397
812.997	27545
813.138	27808
813.279	27759
813.421	27530
813.562	27534
813.703	27340
813.845	27401
813.986	26952
814.127	26838
814.268	26689
814.41	26800
814.551	26769
814.692	26705
814.833	26769
814.974	26598
815.115	26689
815.256	26537
815.397	26648
815.539	26526
815.68	26507
815.821	26495
815.962	26537
816.103	26271
816.244	26271
816.385	26282
816.526	26176
816.666	26046
816.807	26012
816.948	26130
817.089	26027
817.23	26161
817.371	25955
817.512	25852
817.653	25963
817.793	25875
817.934	25936
818.075	26050
818.216	26005
818.356	26039
818.497	25898
818.638	25727
818.778	25708
818.919	25590
819.06	25765
819.2	25875
819.341	25864
819.481	25959
819.622	26145
819.762	26229
819.903	26130
820.043	26046
820.184	25970
820.324	26024
820.465	26161
820.605	26027
820.746	26027
820.886	25932
821.026	25982
821.167	25944
821.307	26142
821.447	25890
821.588	25932
821.728	25689
821.868	25635
822.008	25487
822.149	25343
822.289	25472
822.429	25114
822.569	25213
822.709	25034
822.849	25015
822.99	24935
823.13	24848
823.27	24833
823.41	24715
823.55	24654
823.69	24947
823.83	24722
823.97	24844
824.11	24464
824.25	24570
824.389	24521
824.529	24570
824.669	24563
824.809	24700
824.949	24570
825.089	24741
825.228	24555
825.368	24498
825.508	24456
825.648	24338
825.787	24437
825.927	24513
826.067	24494
826.206	24460
826.346	24555
826.485	24536
826.625	24650
826.765	24536
826.904	24498
827.044	24232
827.183	24258
827.323	24106
827.462	24121
827.601	24201
827.741	24114
827.88	24045
828.02	24053
828.159	24041
828.298	24167
828.437	24159
828.577	24079
828.716	24319
828.855	24106
828.994	23863
829.134	23965
829.273	23950
829.412	23828
829.551	23824
829.69	23847
829.829	23988
829.968	24053
830.107	23931
830.246	23805
830.385	23870
830.524	23817
830.663	23687
830.802	23509
830.941	23554
831.08	23471
831.219	23452
831.357	23566
831.496	23760
831.635	23387
831.774	23311
831.913	23288
832.051	23330
832.19	23391
832.329	23277
832.467	23071
832.606	23052
832.744	23113
832.883	23185
833.022	23223
833.16	23105
833.299	23189
833.437	23174
833.576	23242
833.714	23155
833.852	23265
833.991	23246
834.129	23242
834.267	23379
834.406	23170
834.544	23216
834.682	23250
834.821	23170
834.959	23433
835.097	23181
835.235	23303
835.373	23273
835.511	23284
835.65	23151
835.788	23025
835.926	23025
836.064	22854
836.202	22991
836.34	23170
836.478	23079
836.615	23037
836.753	23041
836.891	23143
837.029	23140
837.167	22980
837.305	22961
837.443	22949
837.58	22904
837.718	22911
837.856	22987
837.993	22900
838.131	22881
838.269	22835
838.406	22816
838.544	22801
838.681	22512
838.819	22436
838.956	22440
839.094	22424
839.231	22432
839.369	22440
839.506	22736
839.643	22645
839.781	22466
839.918	22375
840.055	22375
840.193	22417
840.33	22318
840.467	22360
840.604	22386
840.742	22733
840.879	22204
841.016	22341
841.153	22242
841.29	22451
841.427	22261
841.564	22371
841.701	22299
841.838	22211
841.975	22242
842.112	22226
842.249	22181
842.385	22070
842.522	22546
842.659	22318
842.796	22070
842.933	22112
843.069	22070
843.206	22124
843.343	22131
843.479	22173
843.616	22074
843.752	21865
843.889	21838
844.025	22032
844.162	21941
844.298	21949
844.435	21816
844.571	21888
844.708	21911
844.844	22124
844.98	21991
845.117	21979
845.253	21865
845.389	21747
845.525	21736
845.661	21709
845.798	21625
845.934	21675
846.07	21511
846.206	21663
846.342	21671
846.478	21561
846.614	21557
846.75	21401
846.886	21359
847.022	21393
847.158	21321
847.294	21416
847.429	21351
847.565	21264
847.701	21637
847.837	21085
847.972	21180
848.108	21169
848.244	21157
848.379	20952
848.515	20868
848.65	20960
848.786	21028
848.921	20998
849.057	21013
849.192	21074
849.328	21001
849.463	20956
849.598	20906
849.734	20777
849.869	20701
850.004	20746
850.14	20876
850.275	20762
850.41	20655
850.545	20667
850.68	20739
850.815	20678
850.95	20670
851.085	20918
851.22	20823
851.355	20792
851.49	20655
851.625	20735
851.76	20708
851.895	20552
852.03	20621
852.165	20682
852.299	20682
852.434	20830
852.569	20640
852.703	20758
852.838	20830
852.973	20845
853.107	20872
853.242	20648
853.376	20659
853.511	20381
853.645	20431
853.78	20659
853.914	20564
854.048	20473
854.183	20488
854.317	20526
854.451	20659
854.585	20495
854.72	20484
854.854	20552
854.988	20495
855.122	20564
855.256	20434
855.39	20438
855.524	20712
855.658	20579
855.792	20549
855.926	20404
856.06	20434
856.194	20629
856.327	20533
856.461	20488
856.595	20415
856.729	20568
856.862	20518
856.996	20568
857.13	20613
857.263	20739
857.397	20590
857.53	20583
857.664	20514
857.797	20552
857.931	20503
858.064	20602
858.197	20526
858.331	20438
858.464	20514
858.597	20404
858.731	20408
858.864	20503
858.997	20473
859.13	20549
859.263	20526
859.396	20651
859.529	20549
859.662	20488
859.795	20457
859.928	20469
860.061	20609
860.194	20708
860.327	20503
860.46	20552
860.592	20735
860.725	20693
860.858	20590
860.99	20549
861.123	20518
861.256	20385
861.388	20575
861.521	21176
861.653	20419
861.786	20408
861.918	20541
862.05	20358
862.183	20385
862.315	20488
862.447	20583
862.58	20438
862.712	20240
862.844	20305
862.976	20298
863.108	20347
863.24	20739
863.372	20202
863.504	20183
863.636	20278
863.768	20404
863.9	20336
864.032	20145
864.164	20214
864.296	20172
864.428	20381
864.559	20355
864.691	20263
864.823	20229
864.954	20119
865.086	20172
865.217	20286
865.349	20111
865.48	20081
865.612	19970
865.743	20259
865.875	20157
866.006	20092
866.137	20096
866.269	20278
866.4	20191
866.531	20126
866.662	20050
866.793	20088
866.924	19974
867.055	20172
867.186	20043
867.317	20172
867.448	20016
867.579	20199
867.71	20035
867.841	19989
867.972	20126
868.103	20157
868.233	20130
868.364	20088
868.495	20252
868.625	20328
868.756	20438
868.886	20290
869.017	20343
869.147	20419
869.278	20446
869.408	20324
869.539	20267
869.669	20362
869.799	20351
869.929	20503
870.06	20495
870.19	20640
870.32	20602
870.45	20697
870.58	20663
870.71	20746
870.84	20918
870.97	20834
871.1	20796
871.23	20902
871.36	20967
871.489	20807
871.619	20895
871.749	20914
871.879	20948
872.008	21192
872.138	20963
872.267	20975
872.397	20857
872.526	20899
872.656	20781
872.785	20762
872.915	20895
873.044	21150
873.173	21005
873.303	21009
873.432	21047
873.561	21051
873.69	20971
873.819	20994
873.948	21039
874.077	20956
874.206	20952
874.335	20895
874.464	21077
874.593	21317
874.722	21192
874.851	21313
874.979	21275
875.108	21302
875.237	21230
875.365	21028
875.494	21199
875.623	21256
875.751	21180
875.88	21165
876.008	21355
876.136	21378
876.265	21728
876.393	21770
876.521	21743
876.65	21561
876.778	21675
876.906	21603
877.034	21481
877.162	21587
877.29	21511
877.418	21606
877.546	21530
877.674	21530
877.802	21477
877.93	21583
878.058	21580
878.185	21420
878.313	21557
878.441	21526
878.568	21370
878.696	21469
878.824	21549
878.951	21694
879.079	21728
879.206	21865
879.333	21720
879.461	21553
879.588	21603
879.715	21705
879.842	21895
879.97	21625
880.097	21397
880.224	21408
880.351	21420
880.478	21424
880.605	21348
880.732	21329
880.859	21583
880.986	21355
881.112	21355
881.239	21214
881.366	21207
881.493	21024
881.619	21066
881.746	21005
881.872	20948
881.999	20876
882.125	20948
882.252	20998
882.378	20838
882.505	21009
882.631	20777
882.757	20701
882.883	20815
883.01	20644
883.136	20575
883.262	20598
883.388	20450
883.514	20590
883.64	20663
883.766	20598
883.892	20423
884.018	20488
884.143	20659
884.269	20727
884.395	20408
884.52	20164
884.646	20275
884.772	20328
884.897	20237
885.023	20244
885.148	20336
885.274	20507
885.399	20324
885.524	20366
885.65	20465
885.775	20282
885.9	20301
886.025	20415
886.15	20339
886.275	20282
886.4	20366
886.525	20271
886.65	20252
886.775	20267
886.9	20503
887.025	20499
887.149	20351
887.274	20214
887.399	20168
887.523	20149
887.648	20050
887.773	19970
887.897	20267
888.021	20202
888.146	20020
888.27	20248
888.395	20214
888.519	20153
888.643	20126
888.767	20119
888.891	19989
889.015	19928
889.139	20035
889.263	19894
889.387	20157
889.511	20077
889.635	20081
889.759	19917
889.883	19913
890.006	20035
890.13	20073
890.254	19906
890.377	19845
890.501	19753
890.624	19696
890.748	19811
890.871	19681
890.995	19464
891.118	19502
891.241	19464
891.364	19601
891.488	19559
891.611	19502
891.734	19491
891.857	19510
891.98	19552
892.103	19552
892.226	19578
892.349	19373
892.471	19320
892.594	19449
892.717	19445
892.839	19483
892.962	19453
893.085	19460
893.207	19571
893.33	19316
893.452	19327
893.575	19594
893.697	19487
893.819	19578
893.941	19655
894.064	19499
894.186	19339
894.308	19400
894.43	19537
894.552	19609
894.674	19556
894.796	19373
894.918	19495
895.04	19457
895.161	19499
895.283	19548
895.405	19381
895.526	19426
895.648	19434
895.769	19457
895.891	19441
896.012	19506
896.134	19548
896.255	19491
896.376	19339
896.498	19365
896.619	19472
896.74	19403
896.861	19472
896.982	19731
897.103	19936
897.224	19693
897.345	19723
897.466	19559
897.587	19704
897.708	19928
897.828	19765
897.949	19685
898.07	19468
898.19	19620
898.311	19742
898.431	19632
898.552	19582
898.672	19753
898.792	19772
898.913	19791
899.033	19575
899.153	19540
899.273	19301
899.393	19460
899.513	19472
899.633	19540
899.753	19457
899.873	19438
899.993	19491
900.113	19506
900.232	19415
900.352	19373
900.472	19263
900.591	19209
900.711	19221
900.83	19175
900.95	19320
901.069	19327
901.189	19095
901.308	18924
901.427	18779
901.546	18795
901.665	18764
901.784	18768
901.904	18616
902.023	18627
902.141	18361
902.26	18391
902.379	18395
902.498	18399
902.617	18342
902.735	18365
902.854	18330
902.973	18220
903.091	17965
903.21	17980
903.328	18041
903.446	17916
903.565	17874
903.683	17813
903.801	17676
903.919	17726
904.038	17745
904.156	17699
904.274	17737
904.392	17554
904.51	17547
904.627	17539
904.745	17680
904.863	17668
904.981	17417
905.098	17204
905.216	17330
905.334	17353
905.451	17345
905.569	17296
905.686	17258
905.803	17200
905.921	17090
906.038	17155
906.155	17048
906.272	16930
906.389	17045
906.506	16938
906.623	16828
906.74	16801
906.857	16786
906.974	16721
907.091	16889
907.208	16908
907.324	16774
907.441	16793
907.557	16508
907.674	16611
907.79	16626
907.907	16535
908.023	16535
908.139	16569
908.256	16546
908.372	16409
908.488	16424
908.604	16325
908.72	16261
908.836	16344
908.952	16196
909.068	16226
909.184	16485
909.3	16234
909.415	16333
909.531	16268
909.647	16029
909.762	16059
909.878	15956
909.993	16021
910.108	15903
910.224	15949
910.339	15915
910.454	15926
910.57	15781
910.685	15701
910.8	16006
910.915	15865
911.03	15808
911.145	15625
911.259	15618
911.374	15606
911.489	15599
911.604	15557
911.718	15298
911.833	15325
911.947	15321
912.062	15256
912.176	15367
912.291	15428
912.405	15397
912.519	15534
912.633	15599
912.748	15374
912.862	15344
912.976	15116
913.09	15017
913.204	15211
913.318	15146
913.431	15283
913.545	15363
913.659	15249
913.772	15146
913.886	15017
914	14925
914.113	15077
914.226	15070
914.34	14952
914.453	14773
914.566	14986
914.68	14891
914.793	14834
914.906	14659
915.019	14579
915.132	14568
915.245	14602
915.358	14640
915.47	14571
915.583	14571
915.696	14564
915.809	14689
915.921	14701
916.034	14511
916.146	14568
916.259	14465
916.371	14541
916.483	14541
916.595	14503
916.708	14461
916.82	14465
916.932	14446
917.044	14454
917.156	14408
917.268	14317
917.38	14248
917.491	14259
917.603	14221
917.715	14313
917.826	14351
917.938	14259
918.049	14168
918.161	14202
918.272	14343
918.384	14317
918.495	14183
918.606	14077
918.717	14008
918.828	14058
918.939	14077
919.05	13959
919.161	14035
919.272	13845
919.383	13868
919.494	14062
919.604	14259
919.715	14062
919.826	13986
919.936	14020
920.047	14065
920.157	14069
920.267	14157
920.378	13951
920.488	13978
920.598	14043
920.708	14301
920.818	14176
920.928	14115
921.038	14427
921.148	14343
921.258	14016
921.368	13879
921.477	13700
921.587	13727
921.697	13784
921.806	13791
921.916	13597
922.025	13575
922.134	13403
922.244	13308
922.353	13483
922.462	13354
922.571	13232
922.68	13107
922.789	13065
922.898	13061
923.007	13088
923.116	13065
923.224	13084
923.333	13004
923.442	12985
923.55	12871
923.659	12795
923.767	12973
923.876	12825
923.984	12909
924.092	12848
924.201	12787
924.309	12848
924.417	12837
924.525	12745
924.633	12768
924.741	13689
924.849	12536
924.956	12623
925.064	12506
925.172	12525
925.279	12486
925.387	12452
925.494	12490
925.602	12578
925.709	12555
925.816	12380
925.924	12418
926.031	12498
926.138	12479
926.245	12509
926.352	12357
926.459	12532
926.566	12509
926.673	12372
926.779	12346
926.886	12285
926.993	12129
927.099	12102
927.206	12125
927.312	11935
927.419	12072
927.525	12057
927.631	12076
927.737	12030
927.843	11950
927.95	11802
928.056	11977
928.162	11942
928.267	11912
928.373	12494
928.479	12064
928.585	11718
928.69	11916
928.796	11935
928.901	11828
929.007	11611
929.112	11790
929.218	11748
929.323	11589
929.428	11668
929.533	11786
929.638	11611
929.743	11668
929.848	11665
929.953	11558
930.058	11551
930.163	11307
930.267	11372
930.372	11486
930.477	11406
930.581	11581
930.685	11398
930.79	11273
930.894	11261
930.998	11250
931.103	11337
931.207	11006
931.311	10927
931.415	10816
931.519	10592
931.623	10622
