Data from test_V78500241_3487.txt Node
Date: Fri Mar 25 15:34:08 CST 2022
User: usil
Spectrometer: V785-0024
Trigger mode: 0
Integration Time (sec): 4.000000E-1
Scans to average: 1
Nonlinearity correction enabled: false
Boxcar width: 0
Storing dark spectrum: false
XAxis mode: Wavelengths
Number of Pixels in Spectrum: 1024
>>>>>Begin Spectral Data<<<<<
801.071	27058
801.214	27294
801.356	27001
801.499	26887
801.641	26727
801.783	26655
801.926	26842
802.068	26781
802.211	26686
802.353	26644
802.496	26408
802.638	26339
802.78	26400
802.923	26233
803.065	26161
803.208	26358
803.35	26317
803.492	26507
803.635	26484
803.777	26415
803.919	26594
804.061	26891
804.204	26514
804.346	26408
804.488	26423
804.63	26492
804.773	26438
804.915	26450
805.057	26560
805.199	26499
805.341	26598
805.483	26743
805.626	26575
805.768	26625
805.91	26571
806.052	26495
806.194	26564
806.336	26758
806.478	26511
806.62	26450
806.762	26693
806.904	26838
807.046	27135
807.188	26929
807.33	26944
807.472	27001
807.614	26910
807.756	26891
807.898	26876
808.04	26594
808.182	26773
808.324	26807
808.465	26895
808.607	27093
808.749	27237
808.891	27283
809.033	27439
809.174	27180
809.316	27119
809.458	27203
809.6	27066
809.741	27203
809.883	27272
810.025	27447
810.166	27355
810.308	27382
810.45	27241
810.591	27393
810.733	27260
810.875	27108
811.016	27150
811.158	27116
811.299	27256
811.441	27329
811.582	27405
811.724	27131
811.865	27005
812.007	27195
812.148	27131
812.29	27233
812.431	27260
812.573	27405
812.714	27530
812.855	27561
812.997	27770
813.138	27774
813.279	27766
813.421	27762
813.562	27538
813.703	27458
813.845	27310
813.986	27165
814.127	26883
814.268	26921
814.41	26819
814.551	26792
814.692	26876
814.833	26895
814.974	26906
815.115	26724
815.256	26632
815.397	26773
815.539	26648
815.68	26518
815.821	26495
815.962	26545
816.103	26678
816.244	26457
816.385	26309
816.526	26324
816.666	26176
816.807	26024
816.948	26164
817.089	26320
817.23	26107
817.371	26084
817.512	26008
817.653	26088
817.793	26134
817.934	26122
818.075	26024
818.216	26092
818.356	26088
818.497	25856
818.638	25780
818.778	25799
818.919	25750
819.06	25883
819.2	25913
819.341	26050
819.481	26039
819.622	26168
819.762	26278
819.903	26218
820.043	26221
820.184	26058
820.324	26237
820.465	26282
820.605	26172
820.746	26218
820.886	26035
821.026	26119
821.167	26046
821.307	26122
821.447	26225
821.588	25856
821.728	25868
821.868	25601
822.008	25582
822.149	25597
822.289	25476
822.429	25308
822.569	25183
822.709	25251
822.849	25129
822.99	25050
823.13	25080
823.27	25019
823.41	24798
823.55	24681
823.69	25031
823.83	24989
823.97	24871
824.11	24536
824.25	24673
824.389	24620
824.529	24681
824.669	24661
824.809	24753
824.949	24673
825.089	24840
825.228	24700
825.368	24547
825.508	24631
825.648	24376
825.787	24711
825.927	24631
826.067	24566
826.206	24509
826.346	24642
826.485	24574
826.625	24532
826.765	24612
826.904	24669
827.044	24418
827.183	24380
827.323	24262
827.462	24308
827.601	24334
827.741	24334
827.88	24376
828.02	24182
828.159	24296
828.298	24338
828.437	24380
828.577	24224
828.716	24315
828.855	24182
828.994	23908
829.134	24007
829.273	24060
829.412	23889
829.551	23836
829.69	23851
829.829	23832
829.968	24148
830.107	24140
830.246	24079
830.385	23885
830.524	23828
830.663	23840
830.802	23649
830.941	23501
831.08	23589
831.219	23680
831.357	23756
831.496	23882
831.635	23596
831.774	23429
831.913	23478
832.051	23318
832.19	23330
832.329	23383
832.467	23227
832.606	23208
832.744	23258
832.883	23277
833.022	23250
833.16	23265
833.299	23349
833.437	23258
833.576	23303
833.714	23273
833.852	23433
833.991	23322
834.129	23425
834.267	23467
834.406	23486
834.544	23410
834.682	23452
834.821	23341
834.959	23570
835.097	23296
835.235	23478
835.373	23273
835.511	23303
835.65	23318
835.788	23151
835.926	23136
836.064	23014
836.202	23071
836.34	23140
836.478	23360
836.615	23121
836.753	23105
836.891	23204
837.029	23239
837.167	23178
837.305	23147
837.443	23185
837.58	23086
837.718	23132
837.856	23056
837.993	22984
838.131	23155
838.269	22908
838.406	22892
838.544	22854
838.681	22656
838.819	22713
838.956	22413
839.094	22550
839.231	22538
839.369	22641
839.506	22908
839.643	22824
839.781	22466
839.918	22538
840.055	22497
840.193	22565
840.33	22493
840.467	22405
840.604	22512
840.742	22687
840.879	22409
841.016	22272
841.153	22424
841.29	22485
841.427	22375
841.564	22440
841.701	22402
841.838	22405
841.975	22284
842.112	22390
842.249	22287
842.385	22234
842.522	22481
842.659	22246
842.796	22276
842.933	22325
843.069	22200
843.206	22131
843.343	22299
843.479	22090
843.616	22306
843.752	21949
843.889	22029
844.025	22200
844.162	22139
844.298	22070
844.435	21956
844.571	21983
844.708	22002
844.844	22200
844.98	22086
845.117	22109
845.253	21922
845.389	21949
845.525	21926
845.661	21812
845.798	21679
845.934	21827
846.07	21812
846.206	21781
846.342	21998
846.478	21694
846.614	21595
846.75	21431
846.886	21526
847.022	21671
847.158	21538
847.294	21447
847.429	21534
847.565	21443
847.701	21717
847.837	21161
847.972	21264
848.108	21325
848.244	21275
848.379	21081
848.515	20994
848.65	20948
848.786	20986
848.921	21203
849.057	21112
849.192	21131
849.328	21173
849.463	21192
849.598	20944
849.734	20963
849.869	20876
850.004	20667
850.14	20902
850.275	20830
850.41	20686
850.545	20735
850.68	20872
850.815	20819
850.95	20807
851.085	21047
851.22	20944
851.355	20910
851.49	20872
851.625	20883
851.76	20861
851.895	20762
852.03	20708
852.165	20815
852.299	20857
852.434	20838
852.569	20849
852.703	20842
852.838	20883
852.973	20982
853.107	20910
853.242	20777
853.376	20769
853.511	20598
853.645	20571
853.78	20697
853.914	20716
854.048	20636
854.183	20727
854.317	20773
854.451	20819
854.585	20682
854.72	20716
854.854	20743
854.988	20762
855.122	20796
855.256	20530
855.39	20682
855.524	20807
855.658	20655
855.792	20686
855.926	20701
856.06	20701
856.194	20716
856.327	20632
856.461	20636
856.595	20609
856.729	20765
856.862	20849
856.996	20667
857.13	20815
857.263	20765
857.397	20773
857.53	20686
857.664	20765
857.797	20724
857.931	20815
858.064	20731
858.197	20864
858.331	20571
858.464	20739
858.597	20606
858.731	20644
858.864	20693
858.997	20568
859.13	20594
859.263	20838
859.396	20762
859.529	20583
859.662	20697
859.795	20606
859.928	20712
860.061	20933
860.194	20891
860.327	20815
860.46	20746
860.592	20891
860.725	20902
860.858	20819
860.99	20625
861.123	20457
861.256	20590
861.388	20625
861.521	21340
861.653	20613
861.786	20579
861.918	20438
862.05	20598
862.183	20602
862.315	20602
862.447	20724
862.58	20731
862.712	20492
862.844	20381
862.976	20434
863.108	20549
863.24	20849
863.372	20381
863.504	20412
863.636	20377
863.768	20492
863.9	20415
864.032	20298
864.164	20499
864.296	20476
864.428	20480
864.559	20457
864.691	20560
864.823	20461
864.954	20404
865.086	20457
865.217	20298
865.349	20248
865.48	20370
865.612	20358
865.743	20381
865.875	20366
866.006	20206
866.137	20366
866.269	20396
866.4	20301
866.531	20275
866.662	20229
866.793	20187
866.924	20210
867.055	20324
867.186	20320
867.317	20286
867.448	20244
867.579	20161
867.71	20218
867.841	20164
867.972	20275
868.103	20263
868.233	20313
868.364	20248
868.495	20374
868.625	20560
868.756	20667
868.886	20339
869.017	20598
869.147	20579
869.278	20663
869.408	20434
869.539	20442
869.669	20564
869.799	20606
869.929	20621
870.06	20571
870.19	20895
870.32	20819
870.45	20868
870.58	20796
870.71	20986
870.84	20994
870.97	20838
871.1	20868
871.23	21135
871.36	20963
871.489	20895
871.619	20971
871.749	21066
871.879	21207
872.008	21298
872.138	21116
872.267	21142
872.397	20967
872.526	20887
872.656	21009
872.785	20891
872.915	21135
873.044	21119
873.173	21157
873.303	21066
873.432	21135
873.561	21332
873.69	21157
873.819	21070
873.948	21169
874.077	21077
874.206	21108
874.335	20998
874.464	21207
874.593	21545
874.722	21325
874.851	21428
874.979	21279
875.108	21359
875.237	21401
875.365	21363
875.494	21355
875.623	21439
875.751	21355
875.88	21412
876.008	21397
876.136	21583
876.265	21903
876.393	21884
876.521	21842
876.65	21907
876.778	21804
876.906	21724
877.034	21728
877.162	21717
877.29	21519
877.418	21717
877.546	21755
877.674	21720
877.802	21644
877.93	21671
878.058	21652
878.185	21629
878.313	21629
878.441	21599
878.568	21561
878.696	21618
878.824	21720
878.951	21823
879.079	21960
879.206	21975
879.333	21869
879.461	21739
879.588	21709
879.715	21884
879.842	21949
879.97	21873
880.097	21583
880.224	21576
880.351	21530
880.478	21583
880.605	21511
880.732	21507
880.859	21808
880.986	21530
881.112	21572
881.239	21473
881.366	21218
881.493	21142
881.619	21043
881.746	21233
881.872	21192
881.999	21020
882.125	21085
882.252	21199
882.378	21180
882.505	21161
882.631	20960
882.757	20864
882.883	21005
883.01	20819
883.136	20876
883.262	20731
883.388	20674
883.514	20762
883.64	20895
883.766	20777
883.892	20587
884.018	20625
884.143	20621
884.269	20910
884.395	20598
884.52	20537
884.646	20530
884.772	20484
884.897	20396
885.023	20492
885.148	20507
885.274	20621
885.399	20682
885.524	20442
885.65	20400
885.775	20419
885.9	20469
886.025	20579
886.15	20545
886.275	20541
886.4	20355
886.525	20438
886.65	20473
886.775	20389
886.9	20434
887.025	20716
887.149	20518
887.274	20385
887.399	20267
887.523	20225
887.648	20157
887.773	20073
887.897	20278
888.021	20328
888.146	20168
888.27	20385
888.395	20381
888.519	20248
888.643	20366
888.767	20366
888.891	20138
889.015	20115
889.139	20199
889.263	20088
889.387	20176
889.511	20191
889.635	20263
889.759	20043
889.883	20027
890.006	19989
890.13	20244
890.254	19974
890.377	19951
890.501	19879
890.624	19696
890.748	19837
890.871	19712
890.995	19590
891.118	19575
891.241	19780
891.364	19594
891.488	19822
891.611	19715
891.734	19715
891.857	19712
891.98	19742
892.103	19628
892.226	19681
892.349	19582
892.471	19438
892.594	19552
892.717	19510
892.839	19487
892.962	19540
893.085	19628
893.207	19586
893.33	19438
893.452	19525
893.575	19628
893.697	19525
893.819	19616
893.941	19674
894.064	19795
894.186	19594
894.308	19510
894.43	19670
894.552	19635
894.674	19715
894.796	19578
894.918	19559
895.04	19586
895.161	19563
895.283	19635
895.405	19411
895.526	19597
895.648	19571
895.769	19635
895.891	19525
896.012	19586
896.134	19571
896.255	19556
896.376	19510
896.498	19495
896.619	19537
896.74	19529
896.861	19620
896.982	19906
897.103	19890
897.224	19795
897.345	19712
897.466	19677
897.587	19890
897.708	20001
897.828	19875
897.949	19727
898.07	19632
898.19	19753
898.311	19970
898.431	19685
898.552	19791
898.672	19841
898.792	19830
898.913	19883
899.033	19662
899.153	19582
899.273	19563
899.393	19571
899.513	19548
899.633	19552
899.753	19502
899.873	19434
899.993	19476
900.113	19384
900.232	19540
900.352	19525
900.472	19381
900.591	19308
900.711	19304
900.83	19293
900.95	19381
901.069	19506
901.189	19263
901.308	18947
901.427	18909
901.546	18989
901.665	18996
901.784	18943
901.904	18730
902.023	18650
902.141	18521
902.26	18452
902.379	18513
902.498	18327
902.617	18399
902.735	18426
902.854	18403
902.973	18342
903.091	18174
903.21	18091
903.328	18087
903.446	17988
903.565	18022
903.683	17885
903.801	17920
903.919	17786
904.038	17882
904.156	17771
904.274	17809
904.392	17668
904.51	17638
904.627	17779
904.745	17741
904.863	17775
904.981	17547
905.098	17387
905.216	17334
905.334	17417
905.451	17376
905.569	17345
905.686	17387
905.803	17223
905.921	17353
906.038	17334
906.155	17086
906.272	17048
906.389	17056
906.506	16957
906.623	16927
906.74	16915
906.857	16759
906.974	16862
907.091	17102
907.208	17048
907.324	16904
907.441	16900
907.557	16835
907.674	16565
907.79	16637
907.907	16508
908.023	16683
908.139	16679
908.256	16580
908.372	16607
908.488	16409
908.604	16500
908.72	16356
908.836	16413
908.952	16363
909.068	16447
909.184	16481
909.3	16352
909.415	16348
909.531	16440
909.647	16112
909.762	15972
909.878	15998
909.993	16032
910.108	16013
910.224	16017
910.339	15949
910.454	15915
910.57	15831
910.685	15819
910.8	16135
910.915	16071
911.03	15892
911.145	15747
911.259	15705
911.374	15633
911.489	15679
911.604	15568
911.718	15454
911.833	15530
911.947	15378
912.062	15192
912.176	15454
912.291	15389
912.405	15473
912.519	15614
912.633	15580
912.748	15386
912.862	15469
912.976	15275
913.09	15173
913.204	15207
913.318	15283
913.431	15302
913.545	15336
913.659	15355
913.772	15180
913.886	15032
914	15032
914.113	15119
914.226	15207
914.34	15176
914.453	14864
914.566	15051
914.68	14975
914.793	14880
914.906	14792
915.019	14617
915.132	14549
915.245	14606
915.358	14640
915.47	14727
915.583	14667
915.696	14670
915.809	14781
915.921	14720
916.034	14598
916.146	14526
916.259	14560
916.371	14590
916.483	14674
916.595	14419
916.708	14488
916.82	14533
916.932	14480
917.044	14522
917.156	14408
917.268	14355
917.38	14415
917.491	14358
917.603	14347
917.715	14377
917.826	14438
917.938	14309
918.049	14161
918.161	14301
918.272	14454
918.384	14381
918.495	14275
918.606	14161
918.717	14016
918.828	14119
918.939	14225
919.05	14016
919.161	14115
919.272	13856
919.383	13982
919.494	14142
919.604	14286
919.715	14168
919.826	13959
919.936	14035
920.047	14084
920.157	14123
920.267	14237
920.378	14103
920.488	14062
920.598	14229
920.708	14454
920.818	14126
920.928	14180
921.038	14351
921.148	14385
921.258	14054
921.368	13955
921.477	13902
921.587	13715
921.697	13693
921.806	13845
921.916	13750
922.025	13529
922.134	13396
922.244	13457
922.353	13533
922.462	13369
922.571	13289
922.68	13088
922.789	13084
922.898	13164
923.007	13099
923.116	13175
923.224	13156
923.333	13141
923.442	13034
923.55	12947
923.659	12981
923.767	12981
923.876	12962
923.984	12993
924.092	12875
924.201	12886
924.309	12856
924.417	12878
924.525	12798
924.633	12776
924.741	13639
924.849	12627
924.956	12795
925.064	12597
925.172	12486
925.279	12525
925.387	12616
925.494	12597
925.602	12658
925.709	12612
925.816	12540
925.924	12506
926.031	12551
926.138	12585
926.245	12620
926.352	12448
926.459	12521
926.566	12639
926.673	12372
926.779	12315
926.886	12285
926.993	12277
927.099	12144
927.206	12133
927.312	12083
927.419	12121
927.525	12205
927.631	12213
927.737	12060
927.843	12114
927.95	11870
928.056	11897
928.162	11999
928.267	12019
928.373	12578
928.479	12007
928.585	11726
928.69	12022
928.796	11965
928.901	11882
929.007	11611
929.112	11889
929.218	11843
929.323	11809
929.428	11695
929.533	11756
929.638	11634
929.743	11688
929.848	11771
929.953	11634
930.058	11535
930.163	11406
930.267	11402
930.372	11535
930.477	11326
930.581	11627
930.685	11448
930.79	11303
930.894	11303
930.998	11227
931.103	11425
931.207	11128
931.311	10972
931.415	10923
931.519	10767
931.623	10721
