Data from test_V78500241_1654.txt Node
Date: Fri Mar 25 15:21:22 CST 2022
User: usil
Spectrometer: V785-0024
Trigger mode: 0
Integration Time (sec): 4.000000E-1
Scans to average: 1
Nonlinearity correction enabled: false
Boxcar width: 0
Storing dark spectrum: false
XAxis mode: Wavelengths
Number of Pixels in Spectrum: 1024
>>>>>Begin Spectral Data<<<<<
801.071	28025
801.214	27884
801.356	27553
801.499	27538
801.641	27500
801.783	27507
801.926	27469
802.068	27462
802.211	27466
802.353	27272
802.496	27252
802.638	27127
802.78	27104
802.923	27017
803.065	26937
803.208	27074
803.35	27195
803.492	27272
803.635	27214
803.777	27070
803.919	27306
804.061	27526
804.204	27515
804.346	27188
804.488	27287
804.63	27237
804.773	27310
804.915	27256
805.057	27348
805.199	27283
805.341	27424
805.483	27325
805.626	27382
805.768	27298
805.91	27359
806.052	27534
806.194	27310
806.336	27644
806.478	27515
806.62	27435
806.762	27507
806.904	27747
807.046	27914
807.188	27797
807.33	27705
807.472	27728
807.614	27751
807.756	27743
807.898	27755
808.04	27542
808.182	27652
808.324	27762
808.465	27755
808.607	27899
808.749	28196
808.891	28105
809.033	28158
809.174	27949
809.316	28002
809.458	28017
809.6	27968
809.741	28177
809.883	28169
810.025	28337
810.166	28348
810.308	28295
810.45	28329
810.591	28192
810.733	28048
810.875	27991
811.016	27964
811.158	27804
811.299	28135
811.441	28131
811.582	28314
811.724	28059
811.865	28048
812.007	27945
812.148	27956
812.29	28013
812.431	28303
812.573	28314
812.714	28527
812.855	28557
812.997	28694
813.138	28763
813.279	28599
813.421	28519
813.562	28615
813.703	28352
813.845	28291
813.986	28086
814.127	27892
814.268	27781
814.41	27895
814.551	27686
814.692	27979
814.833	27583
814.974	27762
815.115	27751
815.256	27583
815.397	27709
815.539	27500
815.68	27424
815.821	27504
815.962	27595
816.103	27488
816.244	27408
816.385	27329
816.526	27104
816.666	27093
816.807	26994
816.948	27009
817.089	27173
817.23	27093
817.371	26948
817.512	27005
817.653	26914
817.793	26910
817.934	26982
818.075	27066
818.216	26952
818.356	26887
818.497	26937
818.638	26705
818.778	26689
818.919	26823
819.06	26906
819.2	26895
819.341	27157
819.481	26956
819.622	27036
819.762	27424
819.903	27313
820.043	27291
820.184	27169
820.324	27230
820.465	27195
820.605	27108
820.746	27081
820.886	27009
821.026	27093
821.167	27043
821.307	27230
821.447	27066
821.588	27017
821.728	26792
821.868	26590
822.008	26530
822.149	26575
822.289	26473
822.429	26259
822.569	26218
822.709	26195
822.849	26126
822.99	26138
823.13	26016
823.27	26050
823.41	25753
823.55	25769
823.69	25879
823.83	25925
823.97	25879
824.11	25556
824.25	25643
824.389	25674
824.529	25677
824.669	25594
824.809	25830
824.949	25833
825.089	25818
825.228	25712
825.368	25392
825.508	25487
825.648	25457
825.787	25479
825.927	25575
826.067	25544
826.206	25647
826.346	25639
826.485	25597
826.625	25449
826.765	25651
826.904	25468
827.044	25247
827.183	25358
827.323	25232
827.462	25354
827.601	25236
827.741	25289
827.88	25251
828.02	25069
828.159	25126
828.298	25183
828.437	25190
828.577	25255
828.716	25274
828.855	25019
828.994	24954
829.134	24966
829.273	24909
829.412	24901
829.551	24977
829.69	24821
829.829	24973
829.968	24996
830.107	25027
830.246	24928
830.385	24920
830.524	24776
830.663	24711
830.802	24658
830.941	24547
831.08	24479
831.219	24722
831.357	24631
831.496	24722
831.635	24475
831.774	24448
831.913	24486
832.051	24429
832.19	24338
832.329	24247
832.467	24163
832.606	24171
832.744	24110
832.883	24258
833.022	24178
833.16	24232
833.299	24338
833.437	24289
833.576	24251
833.714	24254
833.852	24319
833.991	24171
834.129	24395
834.267	24422
834.406	24315
834.544	24273
834.682	24243
834.821	24178
834.959	24547
835.097	24098
835.235	24270
835.373	24083
835.511	24205
835.65	24098
835.788	24159
835.926	23878
836.064	23920
836.202	23821
836.34	24083
836.478	24205
836.615	24140
836.753	24209
836.891	24186
837.029	24106
837.167	24034
837.305	24076
837.443	23969
837.58	24053
837.718	23980
837.856	23977
837.993	23973
838.131	23904
838.269	23916
838.406	23809
838.544	23866
838.681	23657
838.819	23520
838.956	23444
839.094	23452
839.231	23455
839.369	23649
839.506	23752
839.643	23661
839.781	23379
839.918	23452
840.055	23383
840.193	23356
840.33	23311
840.467	23307
840.604	23330
840.742	23528
840.879	23174
841.016	23261
841.153	23003
841.29	23455
841.427	23383
841.564	23402
841.701	23280
841.838	23292
841.975	23185
842.112	23216
842.249	23121
842.385	23052
842.522	23242
842.659	23124
842.796	23052
842.933	23079
843.069	23037
843.206	23102
843.343	23098
843.479	23075
843.616	22995
843.752	22862
843.889	22850
844.025	22987
844.162	22854
844.298	22972
844.435	22786
844.571	22949
844.708	23010
844.844	22957
844.98	22984
845.117	22938
845.253	22752
845.389	22687
845.525	22797
845.661	22717
845.798	22550
845.934	22611
846.07	22592
846.206	22599
846.342	22843
846.478	22630
846.614	22265
846.75	22356
846.886	22265
847.022	22417
847.158	22295
847.294	22390
847.429	22333
847.565	22234
847.701	22580
847.837	22082
847.972	21922
848.108	22188
848.244	22051
848.379	22063
848.515	21945
848.65	21838
848.786	21899
848.921	21930
849.057	22097
849.192	22032
849.328	21949
849.463	21903
849.598	21865
849.734	21770
849.869	21774
850.004	21671
850.14	21762
850.275	21728
850.41	21599
850.545	21629
850.68	21644
850.815	21679
850.95	21778
851.085	21838
851.22	21831
851.355	21759
851.49	21625
851.625	21709
851.76	21599
851.895	21599
852.03	21553
852.165	21633
852.299	21724
852.434	21762
852.569	21652
852.703	21568
852.838	21713
852.973	21770
853.107	21800
853.242	21656
853.376	21549
853.511	21469
853.645	21515
853.78	21542
853.914	21496
854.048	21408
854.183	21492
854.317	21462
854.451	21641
854.585	21473
854.72	21519
854.854	21606
854.988	21454
855.122	21606
855.256	21424
855.39	21428
855.524	21572
855.658	21488
855.792	21545
855.926	21496
856.06	21500
856.194	21709
856.327	21637
856.461	21511
856.595	21538
856.729	21477
856.862	21549
856.996	21526
857.13	21492
857.263	21656
857.397	21614
857.53	21454
857.664	21523
857.797	21526
857.931	21564
858.064	21595
858.197	21534
858.331	21561
858.464	21416
858.597	21435
858.731	21462
858.864	21408
858.997	21389
859.13	21454
859.263	21313
859.396	21587
859.529	21454
859.662	21515
859.795	21424
859.928	21458
860.061	21576
860.194	21709
860.327	21523
860.46	21481
860.592	21622
860.725	21595
860.858	21720
860.99	21431
861.123	21412
861.256	21435
861.388	21545
861.521	22166
861.653	21397
861.786	21382
861.918	21260
862.05	21504
862.183	21538
862.315	21511
862.447	21523
862.58	21450
862.712	21245
862.844	21192
862.976	21329
863.108	21344
863.24	21656
863.372	21233
863.504	21256
863.636	21203
863.768	21154
863.9	21233
864.032	21173
864.164	21226
864.296	21359
864.428	21329
864.559	21325
864.691	21336
864.823	21218
864.954	21230
865.086	21154
865.217	21150
865.349	21039
865.48	20998
865.612	21135
865.743	21256
865.875	21154
866.006	21192
866.137	21199
866.269	21218
866.4	21207
866.531	21055
866.662	21032
866.793	21112
866.924	21169
867.055	21154
867.186	20975
867.317	21028
867.448	20994
867.579	21142
867.71	20853
867.841	21013
867.972	21104
868.103	20933
868.233	21020
868.364	21108
868.495	21199
868.625	21256
868.756	21405
868.886	21119
869.017	21279
869.147	21477
869.278	21447
869.408	21348
869.539	21397
869.669	21298
869.799	21370
869.929	21462
870.06	21291
870.19	21481
870.32	21507
870.45	21637
870.58	21717
870.71	21865
870.84	21816
870.97	21816
871.1	21652
871.23	21850
871.36	21892
871.489	21816
871.619	21774
871.749	21918
871.879	21941
872.008	22013
872.138	21922
872.267	21865
872.397	21759
872.526	21736
872.656	21606
872.785	21720
872.915	21941
873.044	22051
873.173	21937
873.303	21873
873.432	21949
873.561	21964
873.69	21926
873.819	21869
873.948	21930
874.077	21827
874.206	21812
874.335	21934
874.464	21975
874.593	22181
874.722	22143
874.851	22135
874.979	22101
875.108	22173
875.237	22162
875.365	22093
875.494	22040
875.623	22226
875.751	21941
875.88	22025
876.008	22185
876.136	22188
876.265	22554
876.393	22675
876.521	22618
876.65	22603
876.778	22592
876.906	22466
877.034	22417
877.162	22531
877.29	22424
877.418	22546
877.546	22546
877.674	22459
877.802	22375
877.93	22470
878.058	22428
878.185	22470
878.313	22375
878.441	22508
878.568	22249
878.696	22318
878.824	22497
878.951	22462
879.079	22778
879.206	22736
879.333	22634
879.461	22561
879.588	22565
879.715	22782
879.842	22774
879.97	22546
880.097	22451
880.224	22405
880.351	22219
880.478	22344
880.605	22226
880.732	22234
880.859	22478
880.986	22272
881.112	22459
881.239	22181
881.366	22036
881.493	21918
881.619	21850
881.746	21983
881.872	21915
881.999	21838
882.125	21857
882.252	21876
882.378	21861
882.505	21949
882.631	21698
882.757	21549
882.883	21637
883.01	21564
883.136	21466
883.262	21454
883.388	21424
883.514	21564
883.64	21580
883.766	21534
883.892	21332
884.018	21435
884.143	21542
884.269	21583
884.395	21268
884.52	21199
884.646	21203
884.772	21214
884.897	21093
885.023	21188
885.148	21157
885.274	21420
885.399	21340
885.524	21192
885.65	21256
885.775	21096
885.9	21131
886.025	21192
886.15	21351
886.275	21256
886.4	21096
886.525	21131
886.65	21138
886.775	21093
886.9	21310
887.025	21348
887.149	21108
887.274	20963
887.399	20918
887.523	20998
887.648	20986
887.773	20842
887.897	21055
888.021	21028
888.146	20895
888.27	21055
888.395	21005
888.519	21165
888.643	21017
888.767	21043
888.891	20811
889.015	20819
889.139	20792
889.263	20697
889.387	20963
889.511	21081
889.635	20861
889.759	20720
889.883	20705
890.006	20777
890.13	20792
890.254	20651
890.377	20792
890.501	20503
890.624	20583
890.748	20446
890.871	20457
890.995	20313
891.118	20267
891.241	20400
891.364	20210
891.488	20469
891.611	20301
891.734	20362
891.857	20351
891.98	20339
892.103	20450
892.226	20473
892.349	20244
892.471	20077
892.594	20161
892.717	20282
892.839	20259
892.962	20240
893.085	20290
893.207	20313
893.33	20065
893.452	20077
893.575	20343
893.697	20210
893.819	20301
893.941	20434
894.064	20434
894.186	20214
894.308	20214
894.43	20320
894.552	20317
894.674	20309
894.796	20145
894.918	20218
895.04	20161
895.161	20202
895.283	20343
895.405	20092
895.526	20187
895.648	20263
895.769	20263
895.891	20237
896.012	20317
896.134	20267
896.255	20309
896.376	20221
896.498	20301
896.619	20336
896.74	20301
896.861	20233
896.982	20587
897.103	20697
897.224	20522
897.345	20530
897.466	20336
897.587	20454
897.708	20568
897.828	20396
897.949	20290
898.07	20347
898.19	20400
898.311	20552
898.431	20332
898.552	20404
898.672	20556
898.792	20495
898.913	20381
899.033	20317
899.153	20221
899.273	20092
899.393	20187
899.513	20233
899.633	20100
899.753	20130
899.873	20039
899.993	20244
900.113	20183
900.232	20202
900.352	20111
900.472	20069
900.591	19986
900.711	19986
900.83	19989
900.95	20084
901.069	20031
901.189	19898
901.308	19742
901.427	19597
901.546	19567
901.665	19525
901.784	19537
901.904	19392
902.023	19259
902.141	19126
902.26	19114
902.379	19171
902.498	19038
902.617	19038
902.735	19091
902.854	18916
902.973	19065
903.091	18711
903.21	18760
903.328	18760
903.446	18608
903.565	18620
903.683	18585
903.801	18426
903.919	18467
904.038	18525
904.156	18376
904.274	18380
904.392	18330
904.51	18232
904.627	18239
904.745	18346
904.863	18262
904.981	18182
905.098	18015
905.216	17885
905.334	18053
905.451	18121
905.569	17942
905.686	18060
905.803	17927
905.921	17668
906.038	17859
906.155	17828
906.272	17760
906.389	17600
906.506	17486
906.623	17611
906.74	17463
906.857	17356
906.974	17353
907.091	17558
907.208	17653
907.324	17532
907.441	17429
907.557	17334
907.674	17204
907.79	17162
907.907	17208
908.023	17216
908.139	17174
908.256	17174
908.372	17102
908.488	17056
908.604	16984
908.72	16869
908.836	17006
908.952	16991
909.068	16889
909.184	16999
909.3	16892
909.415	16999
909.531	16995
909.647	16698
909.762	16759
909.878	16698
909.993	16649
910.108	16702
910.224	16588
910.339	16527
910.454	16550
910.57	16512
910.685	16348
910.8	16603
910.915	16516
911.03	16516
911.145	16329
911.259	16272
911.374	16242
911.489	16158
911.604	16055
911.718	16082
911.833	15972
911.947	15895
912.062	15838
912.176	15903
912.291	15911
912.405	15888
912.519	16207
912.633	16051
912.748	15915
912.862	15945
912.976	15854
913.09	15720
913.204	15823
913.318	15804
913.431	15838
913.545	15892
913.659	15884
913.772	15736
913.886	15698
914	15507
914.113	15713
914.226	15698
914.34	15610
914.453	15488
914.566	15701
914.68	15538
914.793	15435
914.906	15283
915.019	15249
915.132	15188
915.245	15135
915.358	15184
915.47	15272
915.583	15184
915.696	15127
915.809	15310
915.921	15336
916.034	15226
916.146	15043
916.259	15036
916.371	15135
916.483	15123
916.595	15100
916.708	14998
916.82	15020
916.932	15036
917.044	15036
917.156	14952
917.268	14963
917.38	14864
917.491	14876
917.603	14781
917.715	14960
917.826	14929
917.938	14872
918.049	14686
918.161	14845
918.272	14952
918.384	14815
918.495	14830
918.606	14708
918.717	14476
918.828	14651
918.939	14632
919.05	14476
919.161	14533
919.272	14408
919.383	14438
919.494	14640
919.604	14762
919.715	14533
919.826	14404
919.936	14503
920.047	14659
920.157	14598
920.267	14750
920.378	14579
920.488	14537
920.598	14693
920.708	14910
920.818	14735
920.928	14720
921.038	14830
921.148	14769
921.258	14511
921.368	14454
921.477	14412
921.587	14351
921.697	14183
921.806	14305
921.916	14096
922.025	13940
922.134	13925
922.244	13921
922.353	13894
922.462	13784
922.571	13753
922.68	13647
922.789	13597
922.898	13658
923.007	13605
923.116	13632
923.224	13533
923.333	13567
923.442	13445
923.55	13381
923.659	13441
923.767	13499
923.876	13335
923.984	13419
924.092	13320
924.201	13289
924.309	13327
924.417	13244
924.525	13194
924.633	13168
924.741	14126
924.849	13091
924.956	13114
925.064	13042
925.172	12977
925.279	12924
925.387	12989
925.494	12966
925.602	13179
925.709	12993
925.816	12886
925.924	12966
926.031	13027
926.138	13031
926.245	12951
926.352	12772
926.459	12894
926.566	13080
926.673	12924
926.779	12760
926.886	12700
926.993	12601
927.099	12559
927.206	12570
927.312	12403
927.419	12684
927.525	12627
927.631	12597
927.737	12445
927.843	12399
927.95	12285
928.056	12323
928.162	12464
928.267	12490
928.373	13027
928.479	12422
928.585	12304
928.69	12300
928.796	12350
928.901	12281
929.007	12159
929.112	12285
929.218	12205
929.323	12049
929.428	12083
929.533	12213
929.638	12133
929.743	12087
929.848	12155
929.953	12038
930.058	11984
930.163	11798
930.267	11859
930.372	11954
930.477	11843
930.581	12064
930.685	11882
930.79	11642
930.894	11722
930.998	11642
931.103	11790
931.207	11497
931.311	11471
931.415	11345
931.519	11056
931.623	11090
