Data from test_V78500241_642.txt Node
Date: Fri Mar 25 15:14:19 CST 2022
User: usil
Spectrometer: V785-0024
Trigger mode: 0
Integration Time (sec): 4.000000E-1
Scans to average: 1
Nonlinearity correction enabled: false
Boxcar width: 0
Storing dark spectrum: false
XAxis mode: Wavelengths
Number of Pixels in Spectrum: 1024
>>>>>Begin Spectral Data<<<<<
801.071	27093
801.214	27077
801.356	26956
801.499	26883
801.641	26640
801.783	26830
801.926	26712
802.068	26522
802.211	26575
802.353	26427
802.496	26545
802.638	26423
802.78	26301
802.923	26206
803.065	26206
803.208	26343
803.35	26370
803.492	26476
803.635	26503
803.777	26301
803.919	26427
804.061	26727
804.204	26476
804.346	26415
804.488	26423
804.63	26427
804.773	26396
804.915	26526
805.057	26499
805.199	26393
805.341	26533
805.483	26606
805.626	26492
805.768	26476
805.91	26655
806.052	26640
806.194	26590
806.336	26682
806.478	26648
806.62	26598
806.762	26625
806.904	26819
807.046	27058
807.188	26975
807.33	27104
807.472	27074
807.614	26902
807.756	26883
807.898	26773
808.04	26796
808.182	26864
808.324	26876
808.465	26823
808.607	26998
808.749	27127
808.891	27332
809.033	27287
809.174	27214
809.316	27184
809.458	27199
809.6	27184
809.741	27359
809.883	27374
810.025	27492
810.166	27614
810.308	27412
810.45	27439
810.591	27424
810.733	27351
810.875	27207
811.016	27180
811.158	27047
811.299	27230
811.441	27344
811.582	27268
811.724	27169
811.865	26960
812.007	27165
812.148	27272
812.29	27195
812.431	27481
812.573	27610
812.714	27675
812.855	27656
812.997	27759
813.138	27949
813.279	27823
813.421	27774
813.562	27736
813.703	27580
813.845	27408
813.986	27275
814.127	26975
814.268	26872
814.41	26990
814.551	26792
814.692	26910
814.833	26769
814.974	26750
815.115	26815
815.256	26746
815.397	26689
815.539	26651
815.68	26621
815.821	26667
815.962	26689
816.103	26632
816.244	26629
816.385	26400
816.526	26427
816.666	26240
816.807	26183
816.948	26210
817.089	26301
817.23	26142
817.371	26180
817.512	26145
817.653	26069
817.793	26016
817.934	26153
818.075	26191
818.216	26115
818.356	25917
818.497	26046
818.638	26012
818.778	25871
818.919	25913
819.06	26111
819.2	26119
819.341	26107
819.481	26115
819.622	26309
819.762	26457
819.903	26355
820.043	26320
820.184	26134
820.324	26278
820.465	26320
820.605	26305
820.746	26218
820.886	26172
821.026	26256
821.167	26210
821.307	26199
821.447	26210
821.588	26001
821.728	25936
821.868	25841
822.008	25624
822.149	25597
822.289	25476
822.429	25434
822.569	25384
822.709	25365
822.849	25046
822.99	25263
823.13	25004
823.27	25069
823.41	24863
823.55	24844
823.69	24951
823.83	24924
823.97	24814
824.11	24604
824.25	24661
824.389	24726
824.529	24730
824.669	24795
824.809	24905
824.949	24779
825.089	24772
825.228	24798
825.368	24608
825.508	24597
825.648	24635
825.787	24536
825.927	24642
826.067	24528
826.206	24460
826.346	24673
826.485	24677
826.625	24593
826.765	24700
826.904	24513
827.044	24281
827.183	24407
827.323	24308
827.462	24270
827.601	24304
827.741	24239
827.88	24281
828.02	24133
828.159	24270
828.298	24365
828.437	24422
828.577	24258
828.716	24422
828.855	24041
828.994	23988
829.134	24007
829.273	24072
829.412	23996
829.551	23821
829.69	23870
829.829	23958
829.968	24098
830.107	24049
830.246	24007
830.385	23912
830.524	23859
830.663	23775
830.802	23722
830.941	23554
831.08	23535
831.219	23752
831.357	23653
831.496	23798
831.635	23630
831.774	23471
831.913	23543
832.051	23436
832.19	23444
832.329	23531
832.467	23353
832.606	23189
832.744	23208
832.883	23353
833.022	23292
833.16	23315
833.299	23410
833.437	23334
833.576	23387
833.714	23303
833.852	23398
833.991	23558
834.129	23497
834.267	23364
834.406	23463
834.544	23334
834.682	23360
834.821	23379
834.959	23608
835.097	23383
835.235	23383
835.373	23292
835.511	23372
835.65	23246
835.788	23250
835.926	23162
836.064	23064
836.202	23044
836.34	23128
836.478	23239
836.615	23200
836.753	23204
836.891	23318
837.029	23193
837.167	23094
837.305	23166
837.443	23094
837.58	22927
837.718	23250
837.856	23025
837.993	22873
838.131	23003
838.269	22965
838.406	22911
838.544	22793
838.681	22668
838.819	22721
838.956	22519
839.094	22424
839.231	22459
839.369	22573
839.506	22847
839.643	22763
839.781	22557
839.918	22447
840.055	22561
840.193	22459
840.33	22443
840.467	22428
840.604	22497
840.742	22733
840.879	22363
841.016	22421
841.153	22337
841.29	22527
841.427	22394
841.564	22462
841.701	22417
841.838	22394
841.975	22405
842.112	22299
842.249	22261
842.385	22196
842.522	22402
842.659	22204
842.796	22143
842.933	22223
843.069	22200
843.206	22192
843.343	22207
843.479	22169
843.616	22219
843.752	22097
843.889	22021
844.025	22147
844.162	21922
844.298	22059
844.435	21998
844.571	21956
844.708	22002
844.844	22090
844.98	22070
845.117	22101
845.253	21797
845.389	21705
845.525	21831
845.661	21960
845.798	21812
845.934	21705
846.07	21686
846.206	21717
846.342	21713
846.478	21759
846.614	21492
846.75	21428
846.886	21393
847.022	21542
847.158	21542
847.294	21488
847.429	21515
847.565	21393
847.701	21709
847.837	21230
847.972	21249
848.108	21226
848.244	21218
848.379	21093
848.515	20979
848.65	21199
848.786	21089
848.921	21024
849.057	21100
849.192	21275
849.328	21104
849.463	21039
849.598	20948
849.734	20975
849.869	20963
850.004	20781
850.14	20849
850.275	20815
850.41	20785
850.545	20769
850.68	20838
850.815	20754
850.95	20830
851.085	20914
851.22	20826
851.355	20842
851.49	20712
851.625	20788
851.76	20830
851.895	20762
852.03	20689
852.165	20811
852.299	20899
852.434	20872
852.569	20937
852.703	20887
852.838	20811
852.973	21070
853.107	20979
853.242	20750
853.376	20689
853.511	20552
853.645	20583
853.78	20663
853.914	20655
854.048	20674
854.183	20613
854.317	20773
854.451	20823
854.585	20720
854.72	20632
854.854	20800
854.988	20530
855.122	20564
855.256	20560
855.39	20640
855.524	20640
855.658	20697
855.792	20648
855.926	20750
856.06	20537
856.194	20807
856.327	20594
856.461	20598
856.595	20583
856.729	20640
856.862	20720
856.996	20598
857.13	20746
857.263	20807
857.397	20773
857.53	20568
857.664	20648
857.797	20807
857.931	20720
858.064	20667
858.197	20724
858.331	20533
858.464	20533
858.597	20552
858.731	20632
858.864	20708
858.997	20537
859.13	20594
859.263	20693
859.396	20765
859.529	20636
859.662	20701
859.795	20590
859.928	20731
860.061	20758
860.194	20777
860.327	20735
860.46	20686
860.592	20750
860.725	20640
860.858	20788
860.99	20697
861.123	20530
861.256	20503
861.388	20549
861.521	21500
861.653	20457
861.786	20434
861.918	20427
862.05	20606
862.183	20602
862.315	20526
862.447	20625
862.58	20541
862.712	20358
862.844	20328
862.976	20454
863.108	20374
863.24	20746
863.372	20298
863.504	20400
863.636	20423
863.768	20324
863.9	20336
864.032	20286
864.164	20332
864.296	20275
864.428	20385
864.559	20461
864.691	20476
864.823	20431
864.954	20278
865.086	20355
865.217	20225
865.349	20210
865.48	20199
865.612	20267
865.743	20438
865.875	20275
866.006	20195
866.137	20351
866.269	20248
866.4	20176
866.531	20183
866.662	20252
866.793	20119
866.924	20271
867.055	20157
867.186	20225
867.317	20244
867.448	19997
867.579	20164
867.71	20187
867.841	20092
867.972	20271
868.103	20199
868.233	20134
868.364	20237
868.495	20324
868.625	20370
868.756	20609
868.886	20332
869.017	20259
869.147	20594
869.278	20617
869.408	20423
869.539	20423
869.669	20446
869.799	20545
869.929	20769
870.06	20556
870.19	20746
870.32	20735
870.45	20819
870.58	20815
870.71	21001
870.84	20956
870.97	20804
871.1	20910
871.23	20998
871.36	21085
871.489	20902
871.619	21013
871.749	21032
871.879	20975
872.008	21192
872.138	21032
872.267	21119
872.397	20914
872.526	20815
872.656	20880
872.785	20891
872.915	21070
873.044	21013
873.173	21066
873.303	21001
873.432	21104
873.561	21214
873.69	21009
873.819	21070
873.948	21074
874.077	21047
874.206	21020
874.335	21005
874.464	21150
874.593	21294
874.722	21298
874.851	21218
874.979	21317
875.108	21302
875.237	21245
875.365	21165
875.494	21127
875.623	21378
875.751	21272
875.88	21249
876.008	21389
876.136	21568
876.265	21739
876.393	21785
876.521	21804
876.65	21755
876.778	21819
876.906	21564
877.034	21618
877.162	21720
877.29	21766
877.418	21709
877.546	21743
877.674	21736
877.802	21663
877.93	21580
878.058	21519
878.185	21500
878.313	21538
878.441	21557
878.568	21431
878.696	21629
878.824	21663
878.951	21732
879.079	21793
879.206	21850
879.333	21797
879.461	21610
879.588	21660
879.715	21770
879.842	21869
879.97	21732
880.097	21504
880.224	21549
880.351	21447
880.478	21500
880.605	21393
880.732	21507
880.859	21679
880.986	21576
881.112	21397
881.239	21389
881.366	21184
881.493	21306
881.619	21020
881.746	21062
881.872	21081
881.999	20998
882.125	20941
882.252	21108
882.378	21104
882.505	21112
882.631	20956
882.757	20727
882.883	20887
883.01	20823
883.136	20712
883.262	20670
883.388	20613
883.514	20815
883.64	20765
883.766	20670
883.892	20541
884.018	20629
884.143	20765
884.269	20800
884.395	20469
884.52	20381
884.646	20541
884.772	20495
884.897	20431
885.023	20446
885.148	20298
885.274	20541
885.399	20583
885.524	20438
885.65	20469
885.775	20480
885.9	20427
886.025	20461
886.15	20549
886.275	20415
886.4	20267
886.525	20419
886.65	20381
886.775	20389
886.9	20549
887.025	20648
887.149	20450
887.274	20214
887.399	20210
887.523	20229
887.648	20161
887.773	20024
887.897	20218
888.021	20161
888.146	20153
888.27	20339
888.395	20267
888.519	20332
888.643	20221
888.767	20343
888.891	20096
889.015	19932
889.139	20073
889.263	20058
889.387	20027
889.511	20195
889.635	20077
889.759	19928
889.883	19852
890.006	20016
890.13	20027
890.254	19928
890.377	19875
890.501	19753
890.624	19765
890.748	19818
890.871	19708
890.995	19540
891.118	19457
891.241	19700
891.364	19616
891.488	19753
891.611	19521
891.734	19559
891.857	19628
891.98	19582
892.103	19677
892.226	19620
892.349	19476
892.471	19480
892.594	19445
892.717	19464
892.839	19514
892.962	19514
893.085	19506
893.207	19506
893.33	19419
893.452	19346
893.575	19529
893.697	19441
893.819	19502
893.941	19776
894.064	19696
894.186	19403
894.308	19278
894.43	19544
894.552	19635
894.674	19537
894.796	19384
894.918	19335
895.04	19620
895.161	19628
895.283	19487
895.405	19567
895.526	19548
895.648	19491
895.769	19537
895.891	19556
896.012	19624
896.134	19510
896.255	19529
896.376	19518
896.498	19449
896.619	19586
896.74	19487
896.861	19563
896.982	19845
897.103	19906
897.224	19791
897.345	19742
897.466	19635
897.587	19784
897.708	19860
897.828	19837
897.949	19670
898.07	19495
898.19	19590
898.311	19780
898.431	19712
898.552	19738
898.672	19856
898.792	19761
898.913	19700
899.033	19586
899.153	19491
899.273	19468
899.393	19506
899.513	19521
899.633	19495
899.753	19426
899.873	19499
899.993	19529
900.113	19480
900.232	19483
900.352	19457
900.472	19343
900.591	19266
900.711	19285
900.83	19274
900.95	19392
901.069	19324
901.189	19088
901.308	18970
901.427	18890
901.546	18814
901.665	18901
901.784	18867
901.904	18726
902.023	18639
902.141	18490
902.26	18418
902.379	18452
902.498	18380
902.617	18380
902.735	18525
902.854	18391
902.973	18315
903.091	18121
903.21	18144
903.328	18106
903.446	17923
903.565	17927
903.683	17885
903.801	17817
903.919	17866
904.038	17794
904.156	17687
904.274	17824
904.392	17680
904.51	17551
904.627	17741
904.745	17783
904.863	17642
904.981	17414
905.098	17402
905.216	17303
905.334	17322
905.451	17353
905.569	17303
905.686	17330
905.803	17318
905.921	17155
906.038	17181
906.155	17109
906.272	17037
906.389	17037
906.506	16904
906.623	16820
906.74	16930
906.857	16812
906.974	16748
907.091	16930
907.208	17006
907.324	16869
907.441	16729
907.557	16649
907.674	16592
907.79	16516
907.907	16459
908.023	16694
908.139	16626
908.256	16538
908.372	16474
908.488	16470
908.604	16207
908.72	16367
908.836	16348
908.952	16295
909.068	16371
909.184	16398
909.3	16314
909.415	16310
909.531	16287
909.647	16086
909.762	15930
909.878	15941
909.993	16101
910.108	15968
910.224	15960
910.339	16131
910.454	15915
910.57	15808
910.685	15804
910.8	16074
910.915	15949
911.03	15865
911.145	15675
911.259	15644
911.374	15713
911.489	15610
911.604	15606
911.718	15374
911.833	15306
911.947	15279
912.062	15226
912.176	15412
912.291	15378
912.405	15412
912.519	15534
912.633	15500
912.748	15439
912.862	15287
912.976	15249
913.09	15157
913.204	15154
913.318	15241
913.431	15287
913.545	15180
913.659	15291
913.772	15169
913.886	15119
914	14994
914.113	15108
914.226	15074
914.34	15097
914.453	14868
914.566	15062
914.68	14967
914.793	14895
914.906	14693
915.019	14735
915.132	14613
915.245	14617
915.358	14651
915.47	14663
915.583	14678
915.696	14594
915.809	14800
915.921	14750
916.034	14545
916.146	14560
916.259	14522
916.371	14598
916.483	14602
916.595	14465
916.708	14537
916.82	14530
916.932	14465
917.044	14473
917.156	14488
917.268	14332
917.38	14408
917.491	14301
917.603	14324
917.715	14305
917.826	14385
917.938	14385
918.049	14107
918.161	14320
918.272	14377
918.384	14389
918.495	14263
918.606	14119
918.717	14020
918.828	14084
918.939	14107
919.05	13932
919.161	14073
919.272	13868
919.383	14043
919.494	14153
919.604	14328
919.715	14027
919.826	13947
919.936	14039
920.047	14107
920.157	14103
920.267	14134
920.378	14092
920.488	14050
920.598	14282
920.708	14320
920.818	14195
920.928	14202
921.038	14355
921.148	14263
921.258	14024
921.368	13856
921.477	13845
921.587	13780
921.697	13643
921.806	13822
921.916	13647
922.025	13575
922.134	13464
922.244	13312
922.353	13415
922.462	13392
922.571	13297
922.68	13160
922.789	13133
922.898	13084
923.007	13046
923.116	13129
923.224	13091
923.333	13065
923.442	12977
923.55	12882
923.659	12905
923.767	12947
923.876	12821
923.984	12909
924.092	12810
924.201	12833
924.309	12947
924.417	12798
924.525	12757
924.633	12734
924.741	13495
924.849	12601
924.956	12738
925.064	12494
925.172	12448
925.279	12646
925.387	12467
925.494	12612
925.602	12646
925.709	12585
925.816	12445
925.924	12509
926.031	12544
926.138	12456
926.245	12509
926.352	12403
926.459	12464
926.566	12563
926.673	12414
926.779	12361
926.886	12372
926.993	12201
927.099	12045
927.206	12091
927.312	12072
927.419	12076
927.525	12106
927.631	12129
927.737	12038
927.843	12110
927.95	11889
928.056	11961
928.162	11897
928.267	11984
928.373	12597
928.479	11980
928.585	11748
928.69	11965
928.796	11885
928.901	11874
929.007	11695
929.112	11832
929.218	11745
929.323	11699
929.428	11672
929.533	11802
929.638	11661
929.743	11642
929.848	11672
929.953	11691
930.058	11543
930.163	11349
930.267	11353
930.372	11532
930.477	11360
930.581	11608
930.685	11482
930.79	11284
930.894	11288
930.998	11280
931.103	11395
931.207	11029
931.311	10946
931.415	10919
931.519	10748
931.623	10672
