Data from test_V78500241_1908.txt Node
Date: Fri Mar 25 15:23:08 CST 2022
User: usil
Spectrometer: V785-0024
Trigger mode: 0
Integration Time (sec): 4.000000E-1
Scans to average: 1
Nonlinearity correction enabled: false
Boxcar width: 0
Storing dark spectrum: false
XAxis mode: Wavelengths
Number of Pixels in Spectrum: 1024
>>>>>Begin Spectral Data<<<<<
801.071	27142
801.214	27272
801.356	27066
801.499	27058
801.641	26876
801.783	26651
801.926	26716
802.068	26659
802.211	26883
802.353	26697
802.496	26492
802.638	26450
802.78	26408
802.923	26248
803.065	26355
803.208	26355
803.35	26286
803.492	26499
803.635	26594
803.777	26473
803.919	26640
804.061	26883
804.204	26735
804.346	26503
804.488	26446
804.63	26549
804.773	26552
804.915	26648
805.057	26651
805.199	26594
805.341	26571
805.483	26792
805.626	26765
805.768	26621
805.91	26545
806.052	26632
806.194	26693
806.336	26845
806.478	26682
806.62	26568
806.762	26788
806.904	26933
807.046	27192
807.188	27146
807.33	27127
807.472	27066
807.614	26895
807.756	27089
807.898	26948
808.04	26895
808.182	26918
808.324	27096
808.465	26998
808.607	27161
808.749	27317
808.891	27431
809.033	27359
809.174	27367
809.316	27306
809.458	27241
809.6	27260
809.741	27348
809.883	27576
810.025	27576
810.166	27454
810.308	27500
810.45	27355
810.591	27549
810.733	27302
810.875	27359
811.016	27043
811.158	27207
811.299	27287
811.441	27393
811.582	27462
811.724	27317
811.865	27332
812.007	27294
812.148	27306
812.29	27161
812.431	27325
812.573	27633
812.714	27686
812.855	27793
812.997	27956
813.138	27991
813.279	27899
813.421	27838
813.562	27656
813.703	27538
813.845	27466
813.986	27252
814.127	26937
814.268	27047
814.41	27005
814.551	26963
814.692	26963
814.833	26899
814.974	26910
815.115	27032
815.256	26842
815.397	26800
815.539	26819
815.68	26720
815.821	26632
815.962	26727
816.103	26697
816.244	26590
816.385	26571
816.526	26537
816.666	26218
816.807	26180
816.948	26259
817.089	26282
817.23	26328
817.371	26233
817.512	26225
817.653	26172
817.793	26191
817.934	26138
818.075	26100
818.216	26351
818.356	26172
818.497	26081
818.638	25944
818.778	26065
818.919	25830
819.06	26001
819.2	26012
819.341	26191
819.481	26126
819.622	26267
819.762	26514
819.903	26488
820.043	26202
820.184	26332
820.324	26362
820.465	26328
820.605	26301
820.746	26298
820.886	26221
821.026	26225
821.167	26202
821.307	26248
821.447	26237
821.588	26046
821.728	26046
821.868	25849
822.008	25757
822.149	25658
822.289	25731
822.429	25316
822.569	25324
822.709	25350
822.849	25255
822.99	25088
823.13	25114
823.27	25354
823.41	24920
823.55	24954
823.69	24977
823.83	25031
823.97	25012
824.11	24821
824.25	24848
824.389	24684
824.529	24856
824.669	24791
824.809	25008
824.949	24859
825.089	24909
825.228	24871
825.368	24715
825.508	24665
825.648	24669
825.787	24745
825.927	24681
826.067	24707
826.206	24608
826.346	24768
826.485	24707
826.625	24642
826.765	24833
826.904	24684
827.044	24525
827.183	24544
827.323	24327
827.462	24422
827.601	24498
827.741	24323
827.88	24357
828.02	24319
828.159	24350
828.298	24376
828.437	24410
828.577	24350
828.716	24452
828.855	24266
828.994	24296
829.134	24049
829.273	24102
829.412	24190
829.551	24155
829.69	24045
829.829	24117
829.968	24068
830.107	24224
830.246	24026
830.385	24049
830.524	23946
830.663	23916
830.802	23885
830.941	23779
831.08	23642
831.219	23718
831.357	23741
831.496	23999
831.635	23817
831.774	23771
831.913	23592
832.051	23547
832.19	23516
832.329	23619
832.467	23425
832.606	23322
832.744	23353
832.883	23303
833.022	23402
833.16	23433
833.299	23364
833.437	23459
833.576	23364
833.714	23448
833.852	23566
833.991	23486
834.129	23467
834.267	23581
834.406	23471
834.544	23573
834.682	23425
834.821	23337
834.959	23642
835.097	23372
835.235	23509
835.373	23558
835.511	23387
835.65	23326
835.788	23265
835.926	23132
836.064	23067
836.202	23109
836.34	23368
836.478	23296
836.615	23273
836.753	23299
836.891	23318
837.029	23269
837.167	23212
837.305	23299
837.443	23166
837.58	23079
837.718	23337
837.856	23140
837.993	23071
838.131	23223
838.269	22968
838.406	23132
838.544	22987
838.681	22809
838.819	22698
838.956	22771
839.094	22675
839.231	22698
839.369	22885
839.506	22889
839.643	22755
839.781	22721
839.918	22546
840.055	22596
840.193	22599
840.33	22596
840.467	22554
840.604	22717
840.742	22801
840.879	22268
841.016	22443
841.153	22474
841.29	22660
841.427	22554
841.564	22599
841.701	22485
841.838	22512
841.975	22569
842.112	22500
842.249	22405
842.385	22344
842.522	22360
842.659	22325
842.796	22329
842.933	22299
843.069	22382
843.206	22265
843.343	22306
843.479	22478
843.616	22333
843.752	22192
843.889	22188
844.025	22223
844.162	22234
844.298	22143
844.435	22070
844.571	22048
844.708	22238
844.844	22348
844.98	22097
845.117	22166
845.253	22105
845.389	21964
845.525	21895
845.661	22025
845.798	21812
845.934	21884
846.07	21747
846.206	21934
846.342	21987
846.478	21854
846.614	21542
846.75	21652
846.886	21755
847.022	21610
847.158	21717
847.294	21660
847.429	21614
847.565	21504
847.701	21732
847.837	21294
847.972	21237
848.108	21416
848.244	21321
848.379	21291
848.515	21138
848.65	21081
848.786	21165
848.921	21173
849.057	21256
849.192	21222
849.328	21260
849.463	21173
849.598	21116
849.734	21085
849.869	21074
850.004	20952
850.14	20948
850.275	20933
850.41	20872
850.545	20868
850.68	20857
850.815	20914
850.95	20914
851.085	20967
851.22	21062
851.355	20823
851.49	21001
851.625	20834
851.76	20960
851.895	20914
852.03	20758
852.165	20933
852.299	21017
852.434	20979
852.569	20998
852.703	20948
852.838	20910
852.973	21013
853.107	21005
853.242	20807
853.376	20819
853.511	20655
853.645	20708
853.78	20785
853.914	20792
854.048	20667
854.183	20800
854.317	20819
854.451	20944
854.585	20792
854.72	20731
854.854	20849
854.988	20682
855.122	20674
855.256	20530
855.39	20743
855.524	20842
855.658	20800
855.792	20880
855.926	20720
856.06	20872
856.194	20883
856.327	20746
856.461	20670
856.595	20712
856.729	20663
856.862	20826
856.996	20815
857.13	20762
857.263	20921
857.397	20796
857.53	20754
857.664	20754
857.797	20849
857.931	20941
858.064	20804
858.197	20944
858.331	20800
858.464	20598
858.597	20648
858.731	20621
858.864	20663
858.997	20651
859.13	20735
859.263	20689
859.396	20857
859.529	20762
859.662	20727
859.795	20682
859.928	20743
860.061	20971
860.194	20937
860.327	20788
860.46	20804
860.592	20918
860.725	20777
860.858	20853
860.99	20708
861.123	20659
861.256	20705
861.388	20781
861.521	21408
861.653	20571
861.786	20499
861.918	20541
862.05	20594
862.183	20750
862.315	20727
862.447	20716
862.58	20701
862.712	20499
862.844	20469
862.976	20431
863.108	20556
863.24	20785
863.372	20408
863.504	20541
863.636	20461
863.768	20465
863.9	20522
864.032	20438
864.164	20457
864.296	20549
864.428	20533
864.559	20583
864.691	20617
864.823	20594
864.954	20473
865.086	20492
865.217	20469
865.349	20343
865.48	20275
865.612	20423
865.743	20469
865.875	20370
866.006	20343
866.137	20309
866.269	20339
866.4	20389
866.531	20339
866.662	20294
866.793	20206
866.924	20389
867.055	20431
867.186	20256
867.317	20210
867.448	20229
867.579	20278
867.71	20256
867.841	20187
867.972	20275
868.103	20237
868.233	20214
868.364	20385
868.495	20313
868.625	20537
868.756	20670
868.886	20526
869.017	20568
869.147	20758
869.278	20743
869.408	20568
869.539	20537
869.669	20541
869.799	20629
869.929	20670
870.06	20724
870.19	20899
870.32	20777
870.45	20838
870.58	20929
870.71	21020
870.84	21066
870.97	20891
871.1	20864
871.23	21066
871.36	21096
871.489	21116
871.619	21100
871.749	21096
871.879	21085
872.008	21275
872.138	21077
872.267	21081
872.397	20986
872.526	21020
872.656	20937
872.785	21024
872.915	21154
873.044	21260
873.173	21131
873.303	21218
873.432	21294
873.561	21317
873.69	21138
873.819	21275
873.948	21222
874.077	21188
874.206	21154
874.335	21039
874.464	21275
874.593	21469
874.722	21359
874.851	21488
874.979	21408
875.108	21473
875.237	21317
875.365	21336
875.494	21336
875.623	21450
875.751	21348
875.88	21363
876.008	21568
876.136	21542
876.265	21804
876.393	21846
876.521	21861
876.65	21972
876.778	21903
876.906	21663
877.034	21804
877.162	21778
877.29	21728
877.418	21835
877.546	21846
877.674	21542
877.802	21698
877.93	21652
878.058	21694
878.185	21663
878.313	21637
878.441	21667
878.568	21690
878.696	21682
878.824	21835
878.951	21884
879.079	22032
879.206	22090
879.333	22029
879.461	21739
879.588	21854
879.715	21991
879.842	22029
879.97	21686
880.097	21606
880.224	21583
880.351	21500
880.478	21698
880.605	21496
880.732	21622
880.859	21899
880.986	21686
881.112	21545
881.239	21477
881.366	21188
881.493	21268
881.619	21241
881.746	21249
881.872	21058
881.999	21138
882.125	21081
882.252	21226
882.378	21260
882.505	21336
882.631	21028
882.757	20921
882.883	21043
883.01	20956
883.136	20838
883.262	20739
883.388	20655
883.514	20883
883.64	20899
883.766	20819
883.892	20708
884.018	20739
884.143	20788
884.269	20823
884.395	20594
884.52	20541
884.646	20575
884.772	20423
884.897	20351
885.023	20609
885.148	20488
885.274	20712
885.399	20541
885.524	20469
885.65	20518
885.775	20476
885.9	20583
886.025	20632
886.15	20629
886.275	20590
886.4	20256
886.525	20450
886.65	20408
886.775	20355
886.9	20484
887.025	20712
887.149	20583
887.274	20324
887.399	20172
887.523	20313
887.648	20275
887.773	20168
887.897	20393
888.021	20332
888.146	20214
888.27	20347
888.395	20366
888.519	20317
888.643	20271
888.767	20339
888.891	20225
889.015	20103
889.139	20259
889.263	20065
889.387	20088
889.511	20381
889.635	20282
889.759	20039
889.883	20062
890.006	20206
890.13	20210
890.254	19947
890.377	20062
890.501	19776
890.624	19826
890.748	19951
890.871	19769
890.995	19674
891.118	19578
891.241	19772
891.364	19803
891.488	19833
891.611	19734
891.734	19765
891.857	19700
891.98	19693
892.103	19780
892.226	19685
892.349	19605
892.471	19457
892.594	19590
892.717	19559
892.839	19506
892.962	19662
893.085	19712
893.207	19529
893.33	19419
893.452	19540
893.575	19681
893.697	19586
893.819	19772
893.941	19738
894.064	19795
894.186	19510
894.308	19559
894.43	19594
894.552	19742
894.674	19712
894.796	19476
894.918	19571
895.04	19445
895.161	19651
895.283	19613
895.405	19594
895.526	19594
895.648	19685
895.769	19578
895.891	19677
896.012	19552
896.134	19655
896.255	19628
896.376	19480
896.498	19548
896.619	19700
896.74	19624
896.861	19674
896.982	19913
897.103	20001
897.224	19913
897.345	19890
897.466	19753
897.587	19700
897.708	19890
897.828	19776
897.949	19738
898.07	19795
898.19	19734
898.311	19940
898.431	19628
898.552	19746
898.672	19921
898.792	19818
898.913	19818
899.033	19727
899.153	19609
899.273	19533
899.393	19502
899.513	19658
899.633	19609
899.753	19639
899.873	19514
899.993	19529
900.113	19620
900.232	19575
900.352	19415
900.472	19381
900.591	19369
900.711	19358
900.83	19377
900.95	19434
901.069	19438
901.189	19202
901.308	19133
901.427	18856
901.546	18985
901.665	18981
901.784	18985
901.904	18825
902.023	18700
902.141	18483
902.26	18513
902.379	18601
902.498	18540
902.617	18452
902.735	18540
902.854	18407
902.973	18388
903.091	18110
903.21	18144
903.328	18155
903.446	18060
903.565	17973
903.683	17931
903.801	17809
903.919	17965
904.038	17965
904.156	17661
904.274	17893
904.392	17703
904.51	17733
904.627	17771
904.745	17889
904.863	17737
904.981	17448
905.098	17406
905.216	17524
905.334	17379
905.451	17334
905.569	17337
905.686	17505
905.803	17356
905.921	17170
906.038	17337
906.155	17231
906.272	17029
906.389	17052
906.506	16923
906.623	16938
906.74	16885
906.857	16862
906.974	16778
907.091	17025
907.208	17022
907.324	17029
907.441	16854
907.557	16721
907.674	16634
907.79	16649
907.907	16512
908.023	16809
908.139	16634
908.256	16607
908.372	16546
908.488	16584
908.604	16421
908.72	16348
908.836	16413
908.952	16352
909.068	16421
909.184	16451
909.3	16398
909.415	16382
909.531	16344
909.647	16173
909.762	16120
909.878	16112
909.993	16105
910.108	16090
910.224	16059
910.339	16048
910.454	16044
910.57	15895
910.685	15797
910.8	16147
910.915	16010
911.03	16006
911.145	15793
911.259	15778
911.374	15717
911.489	15675
911.604	15587
911.718	15507
911.833	15462
911.947	15306
912.062	15260
912.176	15485
912.291	15435
912.405	15397
912.519	15564
912.633	15652
912.748	15542
912.862	15408
912.976	15321
913.09	15100
913.204	15173
913.318	15241
913.431	15420
913.545	15291
913.659	15310
913.772	15230
913.886	15039
914	15058
914.113	15169
914.226	15169
914.34	15066
914.453	14986
914.566	15142
914.68	14990
914.793	14982
914.906	14739
915.019	14720
915.132	14659
915.245	14674
915.358	14727
915.47	14697
915.583	14663
915.696	14621
915.809	14781
915.921	14864
916.034	14659
916.146	14552
916.259	14556
916.371	14746
916.483	14594
916.595	14613
916.708	14511
916.82	14625
916.932	14514
917.044	14499
917.156	14450
917.268	14446
917.38	14332
917.491	14278
917.603	14393
917.715	14400
917.826	14484
917.938	14237
918.049	14259
918.161	14366
918.272	14461
918.384	14423
918.495	14275
918.606	14123
918.717	14069
918.828	14191
918.939	14157
919.05	14092
919.161	14088
919.272	13932
919.383	13967
919.494	14183
919.604	14305
919.715	14092
919.826	14012
919.936	14134
920.047	14161
920.157	14126
920.267	14275
920.378	14176
920.488	14012
920.598	14157
920.708	14503
920.818	14195
920.928	14267
921.038	14336
921.148	14313
921.258	14142
921.368	13982
921.477	13913
921.587	13875
921.697	13738
921.806	13879
921.916	13715
922.025	13575
922.134	13552
922.244	13339
922.353	13464
922.462	13270
922.571	13282
922.68	13228
922.789	13145
922.898	13187
923.007	13149
923.116	13179
923.224	13095
923.333	13107
923.442	13034
923.55	12920
923.659	12993
923.767	13122
923.876	12951
923.984	13019
924.092	12825
924.201	12939
924.309	12966
924.417	13004
924.525	12852
924.633	12829
924.741	13765
924.849	12681
924.956	12859
925.064	12658
925.172	12559
925.279	12479
925.387	12612
925.494	12601
925.602	12741
925.709	12635
925.816	12593
925.924	12589
926.031	12681
926.138	12532
926.245	12608
926.352	12418
926.459	12532
926.566	12582
926.673	12475
926.779	12350
926.886	12289
926.993	12243
927.099	12186
927.206	12266
927.312	12072
927.419	12338
927.525	12133
927.631	12167
927.737	12102
927.843	12087
927.95	11809
928.056	11988
928.162	12087
928.267	12095
928.373	12536
928.479	12030
928.585	11813
928.69	11992
928.796	11999
928.901	11904
929.007	11703
929.112	11897
929.218	11927
929.323	11790
929.428	11714
929.533	11832
929.638	11642
929.743	11676
929.848	11737
929.953	11642
930.058	11535
930.163	11482
930.267	11406
930.372	11520
930.477	11429
930.581	11585
930.685	11474
930.79	11284
930.894	11414
930.998	11364
931.103	11410
931.207	11132
931.311	10938
931.415	10927
931.519	10706
931.623	10656
