Data from test_V78500241_2684.txt Node
Date: Fri Mar 25 15:28:32 CST 2022
User: usil
Spectrometer: V785-0024
Trigger mode: 0
Integration Time (sec): 4.000000E-1
Scans to average: 1
Nonlinearity correction enabled: false
Boxcar width: 0
Storing dark spectrum: false
XAxis mode: Wavelengths
Number of Pixels in Spectrum: 1024
>>>>>Begin Spectral Data<<<<<
801.071	26918
801.214	27043
801.356	26693
801.499	26743
801.641	26651
801.783	26560
801.926	26613
802.068	26640
802.211	26453
802.353	26408
802.496	26138
802.638	26320
802.78	26039
802.923	26187
803.065	26084
803.208	26065
803.35	26058
803.492	26278
803.635	26442
803.777	26206
803.919	26526
804.061	26674
804.204	26248
804.346	26343
804.488	26172
804.63	26393
804.773	26229
804.915	26259
805.057	26480
805.199	26199
805.341	26343
805.483	26511
805.626	26419
805.768	26438
805.91	26351
806.052	26355
806.194	26366
806.336	26412
806.478	26511
806.62	26385
806.762	26473
806.904	26667
807.046	27005
807.188	26921
807.33	26933
807.472	26876
807.614	26659
807.756	26788
807.898	26731
808.04	26511
808.182	26644
808.324	26697
808.465	26807
808.607	26845
808.749	27066
808.891	27138
809.033	27252
809.174	26994
809.316	26940
809.458	27001
809.6	26940
809.741	27096
809.883	27237
810.025	27443
810.166	27226
810.308	27336
810.45	27310
810.591	27123
810.733	27089
810.875	26971
811.016	27036
811.158	27017
811.299	27214
811.441	27184
811.582	27237
811.724	27051
811.865	26929
812.007	27066
812.148	26940
812.29	26960
812.431	27169
812.573	27226
812.714	27405
812.855	27538
812.997	27614
813.138	27743
813.279	27576
813.421	27435
813.562	27504
813.703	27340
813.845	27127
813.986	26826
814.127	26701
814.268	26826
814.41	26602
814.551	26556
814.692	26743
814.833	26648
814.974	26579
815.115	26568
815.256	26526
815.397	26609
815.539	26507
815.68	26415
815.821	26221
815.962	26480
816.103	26385
816.244	26263
816.385	26180
816.526	26263
816.666	26020
816.807	25974
816.948	25913
817.089	26103
817.23	25917
817.371	25928
817.512	25852
817.653	25898
817.793	25814
817.934	25845
818.075	25906
818.216	25887
818.356	25898
818.497	25860
818.638	25605
818.778	25613
818.919	25628
819.06	25696
819.2	25719
819.341	25852
819.481	25944
819.622	26081
819.762	26244
819.903	26084
820.043	26225
820.184	26096
820.324	26027
820.465	26046
820.605	26024
820.746	26043
820.886	25738
821.026	25993
821.167	25928
821.307	26031
821.447	25955
821.588	25791
821.728	25704
821.868	25552
822.008	25392
822.149	25403
822.289	25396
822.429	25202
822.569	25027
822.709	25095
822.849	25046
822.99	24909
823.13	24886
823.27	24848
823.41	24574
823.55	24696
823.69	24760
823.83	24646
823.97	24646
824.11	24502
824.25	24483
824.389	24642
824.529	24525
824.669	24681
824.809	24700
824.949	24696
825.089	24688
825.228	24623
825.368	24429
825.508	24330
825.648	24456
825.787	24388
825.927	24521
826.067	24399
826.206	24414
826.346	24361
826.485	24536
826.625	24372
826.765	24490
826.904	24353
827.044	24201
827.183	24121
827.323	24072
827.462	24140
827.601	24144
827.741	24117
827.88	24072
828.02	23977
828.159	24133
828.298	24098
828.437	24235
828.577	23992
828.716	24205
828.855	24007
828.994	23707
829.134	23817
829.273	23859
829.412	23843
829.551	23809
829.69	23798
829.829	23821
829.968	23935
830.107	23882
830.246	23752
830.385	23824
830.524	23885
830.663	23642
830.802	23551
830.941	23512
831.08	23417
831.219	23501
831.357	23551
831.496	23600
831.635	23353
831.774	23433
831.913	23250
832.051	23105
832.19	23113
832.329	23166
832.467	23075
832.606	23128
832.744	23094
832.883	23086
833.022	23071
833.16	23037
833.299	23140
833.437	23083
833.576	23159
833.714	23284
833.852	23136
833.991	23246
834.129	23410
834.267	23090
834.406	23193
834.544	23235
834.682	23094
834.821	22972
834.959	23334
835.097	23018
835.235	23242
835.373	23166
835.511	23254
835.65	23132
835.788	23086
835.926	22957
836.064	22748
836.202	22839
836.34	23025
836.478	23151
836.615	23033
836.753	22957
836.891	23071
837.029	23029
837.167	22949
837.305	22831
837.443	22911
837.58	22778
837.718	22968
837.856	22725
837.993	22820
838.131	22805
838.269	22782
838.406	22786
838.544	22622
838.681	22550
838.819	22417
838.956	22356
839.094	22314
839.231	22375
839.369	22504
839.506	22812
839.643	22561
839.781	22333
839.918	22470
840.055	22322
840.193	22173
840.33	22333
840.467	22265
840.604	22299
840.742	22527
840.879	22265
841.016	22337
841.153	22272
841.29	22375
841.427	22265
841.564	22329
841.701	22329
841.838	22242
841.975	22287
842.112	22287
842.249	22166
842.385	22116
842.522	22268
842.659	22242
842.796	22021
842.933	22044
843.069	21960
843.206	22040
843.343	22070
843.479	21964
843.616	22109
843.752	21793
843.889	21778
844.025	22021
844.162	21869
844.298	21816
844.435	21789
844.571	21812
844.708	21937
844.844	21953
844.98	21953
845.117	22048
845.253	21747
845.389	21781
845.525	21652
845.661	21705
845.798	21610
845.934	21553
846.07	21572
846.206	21549
846.342	21618
846.478	21431
846.614	21313
846.75	21249
846.886	21306
847.022	21496
847.158	21291
847.294	21359
847.429	21332
847.565	21211
847.701	21538
847.837	21036
847.972	21001
848.108	21176
848.244	21017
848.379	20921
848.515	20864
848.65	20899
848.786	20804
848.921	20948
849.057	21036
849.192	20895
849.328	20861
849.463	20933
849.598	20868
849.734	20785
849.869	20781
850.004	20697
850.14	20609
850.275	20560
850.41	20686
850.545	20651
850.68	20533
850.815	20621
850.95	20651
851.085	20724
851.22	20735
851.355	20686
851.49	20629
851.625	20705
851.76	20659
851.895	20552
852.03	20587
852.165	20724
852.299	20663
852.434	20750
852.569	20743
852.703	20667
852.838	20621
852.973	20785
853.107	20731
853.242	20655
853.376	20492
853.511	20381
853.645	20370
853.78	20564
853.914	20545
854.048	20389
854.183	20541
854.317	20560
854.451	20632
854.585	20438
854.72	20465
854.854	20594
854.988	20305
855.122	20545
855.256	20263
855.39	20450
855.524	20568
855.658	20446
855.792	20381
855.926	20590
856.06	20423
856.194	20648
856.327	20374
856.461	20533
856.595	20400
856.729	20549
856.862	20602
856.996	20358
857.13	20461
857.263	20412
857.397	20640
857.53	20492
857.664	20434
857.797	20488
857.931	20526
858.064	20522
858.197	20594
858.331	20526
858.464	20488
858.597	20404
858.731	20438
858.864	20351
858.997	20434
859.13	20434
859.263	20446
859.396	20583
859.529	20492
859.662	20351
859.795	20343
859.928	20556
860.061	20636
860.194	20663
860.327	20511
860.46	20434
860.592	20629
860.725	20602
860.858	20644
860.99	20450
861.123	20412
861.256	20385
861.388	20499
861.521	21173
861.653	20408
861.786	20221
861.918	20355
862.05	20298
862.183	20374
862.315	20469
862.447	20480
862.58	20396
862.712	20180
862.844	20126
862.976	20309
863.108	20172
863.24	20651
863.372	20043
863.504	20286
863.636	20229
863.768	20149
863.9	20229
864.032	20100
864.164	20115
864.296	20168
864.428	20180
864.559	20305
864.691	20183
864.823	20088
864.954	20157
865.086	20062
865.217	20103
865.349	20107
865.48	20096
865.612	20088
865.743	20176
865.875	20130
866.006	20145
866.137	20096
866.269	20107
866.4	20103
866.531	20115
866.662	20157
866.793	20145
866.924	19970
867.055	20035
867.186	20020
867.317	19913
867.448	19875
867.579	19982
867.71	19906
867.841	20058
867.972	20073
868.103	20024
868.233	20020
868.364	20161
868.495	20065
868.625	20225
868.756	20370
868.886	20248
869.017	20286
869.147	20457
869.278	20484
869.408	20309
869.539	20271
869.669	20332
869.799	20275
869.929	20404
870.06	20389
870.19	20636
870.32	20564
870.45	20765
870.58	20659
870.71	20727
870.84	20773
870.97	20625
871.1	20731
871.23	20834
871.36	20838
871.489	20796
871.619	20944
871.749	20781
871.879	20906
872.008	20982
872.138	20929
872.267	20914
872.397	20689
872.526	20575
872.656	20682
872.785	20712
872.915	20826
873.044	20986
873.173	20845
873.303	20914
873.432	20937
873.561	21001
873.69	20895
873.819	20921
873.948	21032
874.077	20887
874.206	20838
874.335	20815
874.464	21074
874.593	21085
874.722	21047
874.851	21138
874.979	21096
875.108	21150
875.237	21074
875.365	21062
875.494	21123
875.623	21211
875.751	21131
875.88	21154
876.008	21275
876.136	21348
876.265	21606
876.393	21625
876.521	21534
876.65	21720
876.778	21671
876.906	21469
877.034	21603
877.162	21454
877.29	21439
877.418	21545
877.546	21534
877.674	21408
877.802	21523
877.93	21572
878.058	21488
878.185	21363
878.313	21359
878.441	21500
878.568	21405
878.696	21481
878.824	21507
878.951	21572
879.079	21736
879.206	21800
879.333	21781
879.461	21580
879.588	21637
879.715	21583
879.842	21675
879.97	21583
880.097	21355
880.224	21302
880.351	21401
880.478	21408
880.605	21363
880.732	21211
880.859	21568
880.986	21272
881.112	21302
881.239	21245
881.366	21104
881.493	20944
881.619	20777
881.746	20960
881.872	20910
881.999	20899
882.125	20902
882.252	20895
882.378	20880
882.505	21032
882.631	20735
882.757	20549
882.883	20625
883.01	20488
883.136	20541
883.262	20575
883.388	20503
883.514	20541
883.64	20606
883.766	20617
883.892	20457
884.018	20454
884.143	20564
884.269	20640
884.395	20339
884.52	20233
884.646	20259
884.772	20149
884.897	20180
885.023	20309
885.148	20305
885.274	20438
885.399	20412
885.524	20214
885.65	20275
885.775	20339
885.9	20278
886.025	20393
886.15	20400
886.275	20225
886.4	20225
886.525	20202
886.65	20157
886.775	20180
886.9	20488
887.025	20446
887.149	20240
887.274	20096
887.399	20092
887.523	20008
887.648	20031
887.773	20039
887.897	20111
888.021	19997
888.146	20005
888.27	20050
888.395	20088
888.519	20001
888.643	20088
888.767	20046
888.891	19963
889.015	19803
889.139	19921
889.263	19913
889.387	19883
889.511	19989
889.635	19967
889.759	19902
889.883	19860
890.006	19837
890.13	19849
890.254	19670
890.377	19807
890.501	19780
890.624	19552
890.748	19594
890.871	19468
890.995	19449
891.118	19244
891.241	19422
891.364	19369
891.488	19529
891.611	19392
891.734	19438
891.857	19464
891.98	19327
892.103	19540
892.226	19373
892.349	19438
892.471	19282
892.594	19320
892.717	19335
892.839	19320
892.962	19377
893.085	19419
893.207	19331
893.33	19225
893.452	19228
893.575	19422
893.697	19426
893.819	19582
893.941	19521
894.064	19483
894.186	19304
894.308	19255
894.43	19384
894.552	19521
894.674	19468
894.796	19259
894.918	19358
895.04	19278
895.161	19445
895.283	19373
895.405	19282
895.526	19457
895.648	19411
895.769	19266
895.891	19327
896.012	19540
896.134	19400
896.255	19365
896.376	19320
896.498	19373
896.619	19362
896.74	19392
896.861	19422
896.982	19651
897.103	19822
897.224	19590
897.345	19491
897.466	19457
897.587	19624
897.708	19712
897.828	19537
897.949	19575
898.07	19480
898.19	19453
898.311	19578
898.431	19586
898.552	19609
898.672	19734
898.792	19757
898.913	19594
899.033	19571
899.153	19365
899.273	19400
899.393	19327
899.513	19362
899.633	19358
899.753	19426
899.873	19274
899.993	19316
900.113	19312
900.232	19358
900.352	19236
900.472	19259
900.591	19183
900.711	19297
900.83	19129
900.95	19194
901.069	19251
901.189	19038
901.308	18897
901.427	18719
901.546	18768
901.665	18753
901.784	18726
901.904	18658
902.023	18525
902.141	18235
902.26	18357
902.379	18369
902.498	18296
902.617	18247
902.735	18220
902.854	18254
902.973	18232
903.091	17954
903.21	17912
903.328	17965
903.446	17923
903.565	17756
903.683	17691
903.801	17695
903.919	17657
904.038	17577
904.156	17581
904.274	17714
904.392	17490
904.51	17516
904.627	17532
904.745	17600
904.863	17627
904.981	17292
905.098	17155
905.216	17147
905.334	17197
905.451	17239
905.569	17124
905.686	17208
905.803	17162
905.921	16991
906.038	16995
906.155	16995
906.272	16881
906.389	16847
906.506	16752
906.623	16717
906.74	16645
906.857	16641
906.974	16653
907.091	16736
907.208	16858
907.324	16801
907.441	16702
907.557	16489
907.674	16519
907.79	16379
907.907	16455
908.023	16485
908.139	16455
908.256	16398
908.372	16344
908.488	16329
908.604	16169
908.72	16120
908.836	16192
908.952	16135
909.068	16268
909.184	16352
909.3	16169
909.415	16234
909.531	16150
909.647	15983
909.762	15998
909.878	15895
909.993	15949
910.108	15865
910.224	15808
910.339	15785
910.454	15774
910.57	15751
910.685	15660
910.8	15922
910.915	15911
911.03	15633
911.145	15629
911.259	15424
911.374	15557
911.489	15412
911.604	15382
911.718	15363
911.833	15329
911.947	15241
912.062	15157
912.176	15264
912.291	15256
912.405	15386
912.519	15591
912.633	15367
912.748	15287
912.862	15279
912.976	15127
913.09	14971
913.204	15001
913.318	15036
913.431	15138
913.545	15233
913.659	15260
913.772	15039
913.886	14914
914	14823
914.113	15005
914.226	15024
914.34	14948
914.453	14781
914.566	14880
914.68	14880
914.793	14727
914.906	14530
915.019	14492
915.132	14454
915.245	14507
915.358	14499
915.47	14564
915.583	14457
915.696	14533
915.809	14598
915.921	14579
916.034	14503
916.146	14393
916.259	14419
916.371	14507
916.483	14465
916.595	14362
916.708	14358
916.82	14366
916.932	14278
917.044	14278
917.156	14317
917.268	14244
917.38	14244
917.491	14126
917.603	14164
917.715	14290
917.826	14240
917.938	14126
918.049	14058
918.161	14183
918.272	14263
918.384	14187
918.495	14096
918.606	13993
918.717	13830
918.828	13978
918.939	14024
919.05	13932
919.161	14008
919.272	13788
919.383	13803
919.494	14016
919.604	14138
919.715	13921
919.826	13875
919.936	13860
920.047	14005
920.157	13883
920.267	14050
920.378	13963
920.488	13921
920.598	14103
920.708	14214
920.818	14077
920.928	14020
921.038	14225
921.148	14229
921.258	13909
921.368	13883
921.477	13647
921.587	13681
921.697	13499
921.806	13761
921.916	13559
922.025	13388
922.134	13346
922.244	13324
922.353	13266
922.462	13232
922.571	13187
922.68	12985
922.789	12962
922.898	12989
923.007	12973
923.116	12909
923.224	13019
923.333	12981
923.442	12863
923.55	12894
923.659	12848
923.767	12909
923.876	12829
923.984	12916
924.092	12692
924.201	12681
924.309	12738
924.417	12734
924.525	12738
924.633	12700
924.741	13704
924.849	12582
924.956	12658
925.064	12467
925.172	12361
925.279	12357
925.387	12399
925.494	12422
925.602	12559
925.709	12597
925.816	12376
925.924	12384
926.031	12445
926.138	12342
926.245	12285
926.352	12289
926.459	12460
926.566	12464
926.673	12319
926.779	12205
926.886	12262
926.993	12098
927.099	11988
927.206	11939
927.312	11988
927.419	12022
927.525	11958
927.631	12034
927.737	11939
927.843	11798
927.95	11779
928.056	11832
928.162	11832
928.267	11897
928.373	12327
928.479	11916
928.585	11649
928.69	11874
928.796	11908
928.901	11710
929.007	11558
929.112	11718
929.218	11714
929.323	11573
929.428	11581
929.533	11718
929.638	11486
929.743	11543
929.848	11592
929.953	11539
930.058	11372
930.163	11227
930.267	11349
930.372	11474
930.477	11204
930.581	11509
930.685	11353
930.79	11174
930.894	11269
930.998	11143
931.103	11379
931.207	10965
931.311	10847
931.415	10782
931.519	10550
931.623	10599
