Data from test_V78500241_3173.txt Node
Date: Fri Mar 25 15:31:57 CST 2022
User: usil
Spectrometer: V785-0024
Trigger mode: 0
Integration Time (sec): 4.000000E-1
Scans to average: 1
Nonlinearity correction enabled: false
Boxcar width: 0
Storing dark spectrum: false
XAxis mode: Wavelengths
Number of Pixels in Spectrum: 1024
>>>>>Begin Spectral Data<<<<<
801.071	27138
801.214	27081
801.356	26838
801.499	26739
801.641	26682
801.783	26613
801.926	26883
802.068	26682
802.211	26632
802.353	26632
802.496	26476
802.638	26229
802.78	26282
802.923	26183
803.065	26195
803.208	26100
803.35	26206
803.492	26396
803.635	26495
803.777	26393
803.919	26473
804.061	26819
804.204	26469
804.346	26370
804.488	26317
804.63	26374
804.773	26282
804.915	26419
805.057	26484
805.199	26377
805.341	26434
805.483	26530
805.626	26545
805.768	26358
805.91	26575
806.052	26499
806.194	26400
806.336	26678
806.478	26629
806.62	26434
806.762	26644
806.904	26785
807.046	27066
807.188	27013
807.33	26929
807.472	27017
807.614	26823
807.756	26861
807.898	26868
808.04	26701
808.182	26651
808.324	26686
808.465	26785
808.607	27055
808.749	27131
808.891	27302
809.033	27336
809.174	27344
809.316	27184
809.458	27180
809.6	27062
809.741	27310
809.883	27237
810.025	27401
810.166	27332
810.308	27412
810.45	27298
810.591	27382
810.733	27116
810.875	27214
811.016	27009
811.158	27085
811.299	27233
811.441	27325
811.582	27138
811.724	27123
811.865	27203
812.007	27104
812.148	27043
812.29	27192
812.431	27249
812.573	27359
812.714	27431
812.855	27587
812.997	27785
813.138	27762
813.279	27766
813.421	27572
813.562	27572
813.703	27618
813.845	27264
813.986	27051
814.127	26823
814.268	26826
814.41	26731
814.551	26716
814.692	26906
814.833	26735
814.974	26644
815.115	26746
815.256	26522
815.397	26640
815.539	26476
815.68	26537
815.821	26358
815.962	26655
816.103	26434
816.244	26400
816.385	26259
816.526	26419
816.666	26122
816.807	25887
816.948	26073
817.089	26183
817.23	26054
817.371	26031
817.512	26088
817.653	26062
817.793	25970
817.934	26069
818.075	26119
818.216	26088
818.356	25936
818.497	25822
818.638	25681
818.778	25788
818.919	25875
819.06	25734
819.2	25883
819.341	25993
819.481	25989
819.622	26081
819.762	26507
819.903	26259
820.043	26092
820.184	26229
820.324	26092
820.465	26122
820.605	26161
820.746	26130
820.886	25879
821.026	26103
821.167	26069
821.307	26100
821.447	25966
821.588	25955
821.728	25841
821.868	25578
822.008	25487
822.149	25430
822.289	25415
822.429	25198
822.569	25187
822.709	25240
822.849	25019
822.99	24973
823.13	24943
823.27	24932
823.41	24943
823.55	24734
823.69	24909
823.83	24802
823.97	24760
824.11	24593
824.25	24616
824.389	24627
824.529	24711
824.669	24578
824.809	24696
824.949	24753
825.089	24692
825.228	24601
825.368	24490
825.508	24601
825.648	24547
825.787	24460
825.927	24494
826.067	24384
826.206	24471
826.346	24604
826.485	24563
826.625	24483
826.765	24521
826.904	24593
827.044	24258
827.183	24254
827.323	24163
827.462	24201
827.601	24338
827.741	24235
827.88	24171
828.02	23950
828.159	24209
828.298	24281
828.437	24281
828.577	24258
828.716	24281
828.855	24110
828.994	23958
829.134	23969
829.273	23923
829.412	23939
829.551	23790
829.69	23920
829.829	24083
829.968	24045
830.107	23958
830.246	23942
830.385	23965
830.524	23741
830.663	23847
830.802	23638
830.941	23406
831.08	23600
831.219	23585
831.357	23638
831.496	23802
831.635	23524
831.774	23474
831.913	23353
832.051	23345
832.19	23185
832.329	23368
832.467	23265
832.606	23155
832.744	23178
832.883	23242
833.022	23067
833.16	23227
833.299	23197
833.437	23322
833.576	23303
833.714	23223
833.852	23356
833.991	23440
834.129	23296
834.267	23467
834.406	23391
834.544	23261
834.682	23417
834.821	23235
834.959	23421
835.097	23227
835.235	23307
835.373	23223
835.511	23242
835.65	23181
835.788	23147
835.926	22934
836.064	23003
836.202	22968
836.34	23079
836.478	23208
836.615	22976
836.753	23052
836.891	23273
837.029	22995
837.167	23124
837.305	22980
837.443	23014
837.58	22999
837.718	23094
837.856	23143
837.993	22889
838.131	22850
838.269	22847
838.406	22862
838.544	22767
838.681	22668
838.819	22535
838.956	22363
839.094	22451
839.231	22462
839.369	22740
839.506	22869
839.643	22717
839.781	22497
839.918	22421
840.055	22360
840.193	22413
840.33	22322
840.467	22394
840.604	22348
840.742	22611
840.879	22230
841.016	22329
841.153	22280
841.29	22421
841.427	22386
841.564	22386
841.701	22371
841.838	22325
841.975	22242
842.112	22287
842.249	22265
842.385	22246
842.522	22299
842.659	22268
842.796	22143
842.933	22177
843.069	22070
843.206	22063
843.343	22196
843.479	22177
843.616	22219
843.752	21930
843.889	21930
844.025	21972
844.162	22006
844.298	22010
844.435	21960
844.571	21850
844.708	21945
844.844	21964
844.98	22010
845.117	21930
845.253	21918
845.389	21808
845.525	21876
845.661	21713
845.798	21736
845.934	21808
846.07	21580
846.206	21804
846.342	21861
846.478	21686
846.614	21485
846.75	21325
846.886	21344
847.022	21568
847.158	21511
847.294	21428
847.429	21481
847.565	21317
847.701	21610
847.837	21108
847.972	21127
848.108	21336
848.244	21233
848.379	21005
848.515	20941
848.65	20845
848.786	20906
848.921	20971
849.057	21051
849.192	21013
849.328	20986
849.463	21020
849.598	20902
849.734	20895
849.869	20994
850.004	20788
850.14	20842
850.275	20792
850.41	20530
850.545	20648
850.68	20762
850.815	20864
850.95	20720
851.085	20925
851.22	20902
851.355	20705
851.49	20769
851.625	20785
851.76	20701
851.895	20663
852.03	20640
852.165	20686
852.299	20739
852.434	20754
852.569	20754
852.703	20724
852.838	20724
852.973	20834
853.107	20762
853.242	20686
853.376	20629
853.511	20514
853.645	20476
853.78	20663
853.914	20606
854.048	20594
854.183	20514
854.317	20499
854.451	20667
854.585	20568
854.72	20575
854.854	20640
854.988	20499
855.122	20473
855.256	20438
855.39	20461
855.524	20682
855.658	20682
855.792	20503
855.926	20651
856.06	20549
856.194	20503
856.327	20556
856.461	20450
856.595	20469
856.729	20564
856.862	20724
856.996	20617
857.13	20621
857.263	20845
857.397	20587
857.53	20587
857.664	20636
857.797	20606
857.931	20644
858.064	20450
858.197	20735
858.331	20579
858.464	20552
858.597	20408
858.731	20518
858.864	20412
858.997	20473
859.13	20571
859.263	20674
859.396	20564
859.529	20503
859.662	20461
859.795	20602
859.928	20499
860.061	20735
860.194	20712
860.327	20689
860.46	20530
860.592	20686
860.725	20727
860.858	20731
860.99	20507
861.123	20594
861.256	20518
861.388	20537
861.521	21074
861.653	20442
861.786	20355
861.918	20427
862.05	20552
862.183	20598
862.315	20511
862.447	20514
862.58	20609
862.712	20366
862.844	20225
862.976	20328
863.108	20454
863.24	20708
863.372	20286
863.504	20320
863.636	20313
863.768	20301
863.9	20336
864.032	20077
864.164	20286
864.296	20267
864.428	20438
864.559	20366
864.691	20480
864.823	20286
864.954	20221
865.086	20286
865.217	20256
865.349	20130
865.48	20366
865.612	20233
865.743	20271
865.875	20301
866.006	20221
866.137	20259
866.269	20210
866.4	20115
866.531	20103
866.662	20176
866.793	20210
866.924	20100
867.055	20130
867.186	20248
867.317	20187
867.448	20096
867.579	20122
867.71	20092
867.841	20035
867.972	20195
868.103	20225
868.233	20103
868.364	20199
868.495	20229
868.625	20400
868.756	20457
868.886	20332
869.017	20434
869.147	20484
869.278	20545
869.408	20393
869.539	20450
869.669	20431
869.799	20400
869.929	20526
870.06	20495
870.19	20629
870.32	20712
870.45	20705
870.58	20823
870.71	21017
870.84	20918
870.97	20807
871.1	20769
871.23	20990
871.36	20990
871.489	20944
871.619	21055
871.749	21066
871.879	21032
872.008	21096
872.138	21055
872.267	21100
872.397	20929
872.526	20914
872.656	20880
872.785	20830
872.915	21058
873.044	21142
873.173	20975
873.303	21089
873.432	21096
873.561	21093
873.69	20979
873.819	21074
873.948	21135
874.077	20933
874.206	20982
874.335	21074
874.464	21146
874.593	21237
874.722	21249
874.851	21420
874.979	21317
875.108	21317
875.237	21123
875.365	21192
875.494	21150
875.623	21428
875.751	21249
875.88	21291
876.008	21447
876.136	21610
876.265	21770
876.393	21899
876.521	21812
876.65	21774
876.778	21717
876.906	21633
877.034	21660
877.162	21595
877.29	21762
877.418	21610
877.546	21720
877.674	21717
877.802	21580
877.93	21641
878.058	21587
878.185	21408
878.313	21671
878.441	21656
878.568	21507
878.696	21644
878.824	21576
878.951	21671
879.079	21956
879.206	21949
879.333	21766
879.461	21675
879.588	21675
879.715	21778
879.842	21926
879.97	21762
880.097	21435
880.224	21515
880.351	21515
880.478	21534
880.605	21492
880.732	21481
880.859	21724
880.986	21469
881.112	21397
881.239	21374
881.366	21192
881.493	21127
881.619	20937
881.746	21165
881.872	20979
881.999	21047
882.125	21077
882.252	20994
882.378	20918
882.505	21135
882.631	20952
882.757	20773
882.883	20807
883.01	20754
883.136	20636
883.262	20632
883.388	20621
883.514	20758
883.64	20826
883.766	20682
883.892	20579
884.018	20670
884.143	20606
884.269	20743
884.395	20522
884.52	20404
884.646	20393
884.772	20381
884.897	20248
885.023	20408
885.148	20484
885.274	20587
885.399	20533
885.524	20263
885.65	20446
885.775	20362
885.9	20423
886.025	20454
886.15	20442
886.275	20347
886.4	20347
886.525	20309
886.65	20366
886.775	20339
886.9	20598
887.025	20568
887.149	20347
887.274	20309
887.399	20199
887.523	20096
887.648	20046
887.773	20020
887.897	20221
888.021	20210
888.146	20092
888.27	20138
888.395	20221
888.519	20233
888.643	20153
888.767	20248
888.891	20069
889.015	20069
889.139	19986
889.263	20046
889.387	20145
889.511	20210
889.635	20145
889.759	19986
889.883	19928
890.006	20081
890.13	20161
890.254	19852
890.377	19982
890.501	19788
890.624	19689
890.748	19769
890.871	19544
890.995	19575
891.118	19491
891.241	19529
891.364	19655
891.488	19651
891.611	19476
891.734	19571
891.857	19655
891.98	19521
892.103	19559
892.226	19643
892.349	19537
892.471	19464
892.594	19472
892.717	19468
892.839	19384
892.962	19464
893.085	19487
893.207	19601
893.33	19392
893.452	19411
893.575	19487
893.697	19495
893.819	19563
893.941	19685
894.064	19590
894.186	19537
894.308	19312
894.43	19624
894.552	19552
894.674	19499
894.796	19407
894.918	19476
895.04	19525
895.161	19597
895.283	19495
895.405	19335
895.526	19464
895.648	19373
895.769	19537
895.891	19438
896.012	19590
896.134	19571
896.255	19438
896.376	19438
896.498	19468
896.619	19396
896.74	19415
896.861	19594
896.982	19681
897.103	20008
897.224	19833
897.345	19830
897.466	19605
897.587	19723
897.708	19791
897.828	19826
897.949	19597
898.07	19597
898.19	19738
898.311	19871
898.431	19552
898.552	19776
898.672	19696
898.792	19818
898.913	19814
899.033	19639
899.153	19662
899.273	19464
899.393	19540
899.513	19605
899.633	19502
899.753	19499
899.873	19521
899.993	19468
900.113	19537
900.232	19544
900.352	19373
900.472	19213
900.591	19187
900.711	19274
900.83	19240
900.95	19320
901.069	19350
901.189	19221
901.308	18958
901.427	18905
901.546	18909
901.665	18897
901.784	18970
901.904	18719
902.023	18650
902.141	18502
902.26	18410
902.379	18540
902.498	18410
902.617	18350
902.735	18350
902.854	18311
902.973	18220
903.091	18091
903.21	18068
903.328	18041
903.446	17988
903.565	17882
903.683	17954
903.801	17775
903.919	17916
904.038	17783
904.156	17687
904.274	17741
904.392	17623
904.51	17581
904.627	17687
904.745	17745
904.863	17634
904.981	17463
905.098	17383
905.216	17326
905.334	17478
905.451	17383
905.569	17208
905.686	17311
905.803	17311
905.921	17014
906.038	17193
906.155	17098
906.272	17105
906.389	16930
906.506	16908
906.623	16911
906.74	16915
906.857	16687
906.974	16812
907.091	16831
907.208	16919
907.324	16892
907.441	16790
907.557	16615
907.674	16561
907.79	16561
907.907	16561
908.023	16668
908.139	16615
908.256	16462
908.372	16447
908.488	16504
908.604	16322
908.72	16451
908.836	16344
908.952	16382
909.068	16325
909.184	16436
909.3	16314
909.415	16356
909.531	16265
909.647	16006
909.762	15998
909.878	15945
909.993	16086
910.108	15983
910.224	16002
910.339	15937
910.454	15956
910.57	15854
910.685	15720
910.8	16071
910.915	15873
911.03	15812
911.145	15675
911.259	15705
911.374	15595
911.489	15595
911.604	15534
911.718	15473
911.833	15264
911.947	15348
912.062	15287
912.176	15382
912.291	15397
912.405	15454
912.519	15572
912.633	15488
912.748	15428
912.862	15401
912.976	15245
913.09	15108
913.204	15252
913.318	15195
913.431	15313
913.545	15313
913.659	15279
913.772	15230
913.886	15051
914	14971
914.113	15005
914.226	15127
914.34	15104
914.453	14857
914.566	15020
914.68	14921
914.793	14857
914.906	14724
915.019	14663
915.132	14617
915.245	14651
915.358	14625
915.47	14678
915.583	14674
915.696	14579
915.809	14686
915.921	14746
916.034	14434
916.146	14492
916.259	14423
916.371	14617
916.483	14541
916.595	14419
916.708	14587
916.82	14313
916.932	14571
917.044	14313
917.156	14434
917.268	14290
917.38	14347
917.491	14332
917.603	14263
917.715	14328
917.826	14259
917.938	14199
918.049	14168
918.161	14248
918.272	14366
918.384	14408
918.495	14161
918.606	14058
918.717	13982
918.828	14107
918.939	13997
919.05	13928
919.161	14111
919.272	13871
919.383	13936
919.494	14069
919.604	14263
919.715	14024
919.826	13978
919.936	14073
920.047	14088
920.157	14001
920.267	14149
920.378	13955
920.488	13986
920.598	14278
920.708	14278
920.818	14237
920.928	14271
921.038	14381
921.148	14206
921.258	14039
921.368	13841
921.477	13765
921.587	13795
921.697	13723
921.806	13837
921.916	13636
922.025	13499
922.134	13529
922.244	13392
922.353	13548
922.462	13377
922.571	13320
922.68	13194
922.789	13107
922.898	13080
923.007	13080
923.116	13122
923.224	13023
923.333	13076
923.442	12840
923.55	12924
923.659	12916
923.767	12970
923.876	12795
923.984	12913
924.092	12749
924.201	12882
924.309	12753
924.417	12867
924.525	12730
924.633	12833
924.741	13662
924.849	12627
924.956	12684
925.064	12551
925.172	12494
925.279	12464
925.387	12608
925.494	12483
925.602	12692
925.709	12601
925.816	12502
925.924	12471
926.031	12578
926.138	12483
926.245	12399
926.352	12376
926.459	12448
926.566	12555
926.673	12350
926.779	12296
926.886	12273
926.993	12079
927.099	12197
927.206	12087
927.312	12117
927.419	12186
927.525	12133
927.631	12117
927.737	11923
927.843	11969
927.95	11802
928.056	11901
928.162	11942
928.267	11954
928.373	12604
928.479	12011
928.585	11752
928.69	11863
928.796	12026
928.901	11771
929.007	11665
929.112	11802
929.218	11691
929.323	11737
929.428	11764
929.533	11741
929.638	11691
929.743	11726
929.848	11714
929.953	11589
930.058	11570
930.163	11265
930.267	11372
930.372	11478
930.477	11372
930.581	11619
930.685	11406
930.79	11242
930.894	11280
930.998	11235
931.103	11429
931.207	11018
931.311	10961
931.415	10915
931.519	10729
931.623	10740
