Data from test_V78500241_1656.txt Node
Date: Fri Mar 25 15:21:23 CST 2022
User: usil
Spectrometer: V785-0024
Trigger mode: 0
Integration Time (sec): 4.000000E-1
Scans to average: 1
Nonlinearity correction enabled: false
Boxcar width: 0
Storing dark spectrum: false
XAxis mode: Wavelengths
Number of Pixels in Spectrum: 1024
>>>>>Begin Spectral Data<<<<<
801.071	27972
801.214	27842
801.356	27701
801.499	27656
801.641	27515
801.783	27348
801.926	27462
802.068	27526
802.211	27447
802.353	27317
802.496	27074
802.638	27055
802.78	27214
802.923	27009
803.065	27089
803.208	27062
803.35	27188
803.492	27169
803.635	27348
803.777	27268
803.919	27272
804.061	27572
804.204	27321
804.346	27294
804.488	27310
804.63	27272
804.773	27370
804.915	27195
805.057	27386
805.199	27294
805.341	27466
805.483	27336
805.626	27496
805.768	27268
805.91	27424
806.052	27511
806.194	27344
806.336	27587
806.478	27389
806.62	27553
806.762	27534
806.904	27686
807.046	27945
807.188	27854
807.33	27759
807.472	27949
807.614	27873
807.756	27960
807.898	27797
808.04	27785
808.182	27793
808.324	27827
808.465	27823
808.607	27892
808.749	27975
808.891	28131
809.033	28306
809.174	28097
809.316	28040
809.458	28139
809.6	28010
809.741	28200
809.883	28234
810.025	28284
810.166	28432
810.308	28382
810.45	28318
810.591	28207
810.733	28143
810.875	28002
811.016	27953
811.158	28044
811.299	28158
811.441	28124
811.582	28192
811.724	27968
811.865	27991
812.007	27934
812.148	28147
812.29	28097
812.431	28192
812.573	28588
812.714	28538
812.855	28554
812.997	28584
813.138	28843
813.279	28569
813.421	28664
813.562	28615
813.703	28607
813.845	28238
813.986	28177
814.127	27797
814.268	27835
814.41	27747
814.551	27641
814.692	27941
814.833	27831
814.974	27698
815.115	27717
815.256	27720
815.397	27698
815.539	27587
815.68	27614
815.821	27561
815.962	27450
816.103	27637
816.244	27325
816.385	27336
816.526	27382
816.666	27096
816.807	27142
816.948	27272
817.089	27161
817.23	27165
817.371	27055
817.512	27104
817.653	27043
817.793	27028
817.934	27127
818.075	27108
818.216	27142
818.356	27024
818.497	26883
818.638	26838
818.778	26804
818.919	26967
819.06	26918
819.2	26895
819.341	27028
819.481	26982
819.622	27165
819.762	27408
819.903	27332
820.043	27169
820.184	27146
820.324	27165
820.465	27108
820.605	27222
820.746	26967
820.886	27058
821.026	27100
821.167	27188
821.307	27214
821.447	27001
821.588	26963
821.728	26902
821.868	26781
822.008	26629
822.149	26590
822.289	26590
822.429	26187
822.569	26134
822.709	26225
822.849	26005
822.99	26062
823.13	25974
823.27	26069
823.41	25879
823.55	25811
823.69	25913
823.83	25902
823.97	25719
824.11	25696
824.25	25540
824.389	25533
824.529	25788
824.669	25750
824.809	25761
824.949	25757
825.089	25734
825.228	25746
825.368	25586
825.508	25502
825.648	25506
825.787	25578
825.927	25594
826.067	25567
826.206	25373
826.346	25464
826.485	25605
826.625	25506
826.765	25670
826.904	25525
827.044	25354
827.183	25362
827.323	25206
827.462	25365
827.601	25266
827.741	25285
827.88	25358
828.02	25145
828.159	25251
828.298	25278
828.437	25240
828.577	25285
828.716	25327
828.855	25236
828.994	25015
829.134	24977
829.273	25000
829.412	24890
829.551	24852
829.69	24798
829.829	24985
829.968	25053
830.107	24985
830.246	25008
830.385	24962
830.524	24943
830.663	24772
830.802	24650
830.941	24654
831.08	24578
831.219	24711
831.357	24719
831.496	24886
831.635	24589
831.774	24525
831.913	24414
832.051	24376
832.19	24323
832.329	24300
832.467	24213
832.606	24197
832.744	24159
832.883	24330
833.022	24296
833.16	24258
833.299	24388
833.437	24220
833.576	24190
833.714	24338
833.852	24361
833.991	24422
834.129	24334
834.267	24319
834.406	24361
834.544	24414
834.682	24281
834.821	24213
834.959	24532
835.097	24228
835.235	24384
835.373	24391
835.511	24323
835.65	24159
835.788	24174
835.926	23980
836.064	23980
836.202	24041
836.34	24243
836.478	24258
836.615	24045
836.753	24243
836.891	24292
837.029	24201
837.167	24197
837.305	24022
837.443	24026
837.58	23935
837.718	24060
837.856	23950
837.993	23901
838.131	23923
838.269	23764
838.406	23946
838.544	23798
838.681	23596
838.819	23608
838.956	23395
839.094	23383
839.231	23535
839.369	23710
839.506	23790
839.643	23653
839.781	23471
839.918	23322
840.055	23547
840.193	23391
840.33	23436
840.467	23410
840.604	23429
840.742	23623
840.879	23250
841.016	23364
841.153	23235
841.29	23493
841.427	23383
841.564	23303
841.701	23433
841.838	23311
841.975	23231
842.112	23307
842.249	23170
842.385	23102
842.522	23356
842.659	23265
842.796	23048
842.933	23159
843.069	23075
843.206	23174
843.343	23140
843.479	23140
843.616	23121
843.752	22873
843.889	22980
844.025	23204
844.162	22809
844.298	23140
844.435	23003
844.571	22904
844.708	22896
844.844	23105
844.98	22927
845.117	22961
845.253	22843
845.389	22850
845.525	22805
845.661	22713
845.798	22672
845.934	22672
846.07	22656
846.206	22542
846.342	22748
846.478	22615
846.614	22451
846.75	22386
846.886	22337
847.022	22474
847.158	22550
847.294	22497
847.429	22375
847.565	22386
847.701	22561
847.837	22230
847.972	22109
848.108	22367
848.244	22249
848.379	21956
848.515	22063
848.65	21838
848.786	22051
848.921	21941
849.057	22082
849.192	22135
849.328	22029
849.463	22021
849.598	21819
849.734	21842
849.869	21671
850.004	21808
850.14	21743
850.275	21759
850.41	21663
850.545	21739
850.68	21713
850.815	21663
850.95	21751
851.085	21850
851.22	21793
851.355	21850
851.49	21762
851.625	21648
851.76	21625
851.895	21720
852.03	21660
852.165	21625
852.299	21739
852.434	21789
852.569	21797
852.703	21663
852.838	21739
852.973	21808
853.107	21759
853.242	21686
853.376	21572
853.511	21378
853.645	21500
853.78	21690
853.914	21542
854.048	21462
854.183	21439
854.317	21629
854.451	21591
854.585	21603
854.72	21595
854.854	21633
854.988	21466
855.122	21473
855.256	21447
855.39	21545
855.524	21660
855.658	21572
855.792	21633
855.926	21561
856.06	21496
856.194	21618
856.327	21587
856.461	21538
856.595	21473
856.729	21564
856.862	21701
856.996	21591
857.13	21595
857.263	21663
857.397	21568
857.53	21424
857.664	21690
857.797	21469
857.931	21641
858.064	21564
858.197	21705
858.331	21511
858.464	21488
858.597	21382
858.731	21542
858.864	21595
858.997	21439
859.13	21416
859.263	21492
859.396	21637
859.529	21545
859.662	21488
859.795	21492
859.928	21644
860.061	21739
860.194	21804
860.327	21629
860.46	21428
860.592	21564
860.725	21751
860.858	21629
860.99	21545
861.123	21420
861.256	21526
861.388	21538
861.521	22166
861.653	21610
861.786	21332
861.918	21447
862.05	21443
862.183	21393
862.315	21553
862.447	21504
862.58	21534
862.712	21268
862.844	21241
862.976	21382
863.108	21435
863.24	21652
863.372	21233
863.504	21150
863.636	21192
863.768	21279
863.9	21329
864.032	21218
864.164	21199
864.296	21294
864.428	21306
864.559	21287
864.691	21401
864.823	21325
864.954	21302
865.086	21146
865.217	21131
865.349	21028
865.48	21195
865.612	21150
865.743	21283
865.875	21112
866.006	21222
866.137	21093
866.269	21116
866.4	21188
866.531	21077
866.662	20963
866.793	21089
866.924	21032
867.055	21066
867.186	21116
867.317	21001
867.448	21009
867.579	21024
867.71	20982
867.841	21036
867.972	21104
868.103	20979
868.233	21013
868.364	21104
868.495	21192
868.625	21294
868.756	21401
868.886	21199
869.017	21272
869.147	21458
869.278	21313
869.408	21329
869.539	21287
869.669	21367
869.799	21313
869.929	21496
870.06	21321
870.19	21633
870.32	21614
870.45	21595
870.58	21667
870.71	21774
870.84	21762
870.97	21713
871.1	21698
871.23	21926
871.36	21850
871.489	21766
871.619	21857
871.749	21838
871.879	21953
872.008	21991
872.138	21838
872.267	21975
872.397	21899
872.526	21717
872.656	21838
872.785	21701
872.915	21953
873.044	22055
873.173	21960
873.303	21945
873.432	22013
873.561	21987
873.69	21915
873.819	21861
873.948	22017
874.077	21915
874.206	21945
874.335	21899
874.464	22044
874.593	22219
874.722	21983
874.851	22154
874.979	22101
875.108	22219
875.237	22135
875.365	21968
875.494	22139
875.623	22310
875.751	22185
875.88	22204
876.008	22333
876.136	22375
876.265	22569
876.393	22694
876.521	22573
876.65	22577
876.778	22500
876.906	22504
877.034	22436
877.162	22508
877.29	22527
877.418	22447
877.546	22459
877.674	22443
877.802	22375
877.93	22577
878.058	22455
878.185	22318
878.313	22344
878.441	22398
878.568	22276
878.696	22409
878.824	22569
878.951	22573
879.079	22649
879.206	22733
879.333	22622
879.461	22447
879.588	22519
879.715	22668
879.842	22774
879.97	22641
880.097	22363
880.224	22424
880.351	22363
880.478	22272
880.605	22295
880.732	22257
880.859	22481
880.986	22234
881.112	22280
881.239	22238
881.366	21994
881.493	22044
881.619	21907
881.746	21876
881.872	21884
881.999	21781
882.125	21797
882.252	21869
882.378	21755
882.505	21960
882.631	21720
882.757	21656
882.883	21709
883.01	21698
883.136	21610
883.262	21348
883.388	21466
883.514	21603
883.64	21583
883.766	21564
883.892	21310
884.018	21443
884.143	21462
884.269	21667
884.395	21344
884.52	21173
884.646	21275
884.772	21161
884.897	21112
885.023	21268
885.148	21268
885.274	21511
885.399	21313
885.524	21135
885.65	21298
885.775	21157
885.9	21207
886.025	21291
886.15	21222
886.275	21203
886.4	21085
886.525	21230
886.65	21089
886.775	21119
886.9	21291
887.025	21370
887.149	21207
887.274	20998
887.399	20944
887.523	20952
887.648	20952
887.773	20739
887.897	21135
888.021	20998
888.146	20948
888.27	21032
888.395	21081
888.519	21066
888.643	20982
888.767	21104
888.891	20796
889.015	20735
889.139	20754
889.263	20929
889.387	20902
889.511	20971
889.635	20925
889.759	20712
889.883	20830
890.006	20823
890.13	20944
890.254	20670
890.377	20651
890.501	20507
890.624	20457
890.748	20571
890.871	20484
890.995	20431
891.118	20271
891.241	20355
891.364	20438
891.488	20450
891.611	20355
891.734	20294
891.857	20469
891.98	20343
892.103	20377
892.226	20480
892.349	20256
892.471	20077
892.594	20294
892.717	20313
892.839	20317
892.962	20229
893.085	20461
893.207	20195
893.33	20130
893.452	20187
893.575	20263
893.697	20202
893.819	20400
893.941	20355
894.064	20332
894.186	20256
894.308	20183
894.43	20336
894.552	20457
894.674	20396
894.796	20176
894.918	20221
895.04	20214
895.161	20313
895.283	20237
895.405	20168
895.526	20324
895.648	20282
895.769	20259
895.891	20240
896.012	20298
896.134	20339
896.255	20286
896.376	20214
896.498	20282
896.619	20229
896.74	20206
896.861	20278
896.982	20560
897.103	20545
897.224	20465
897.345	20396
897.466	20332
897.587	20526
897.708	20629
897.828	20465
897.949	20442
898.07	20301
898.19	20393
898.311	20552
898.431	20374
898.552	20442
898.672	20434
898.792	20549
898.913	20579
899.033	20347
899.153	20256
899.273	20168
899.393	20221
899.513	20191
899.633	20275
899.753	20237
899.873	20138
899.993	20161
900.113	20145
900.232	20142
900.352	20111
900.472	20103
900.591	20005
900.711	20062
900.83	19997
900.95	20092
901.069	20122
901.189	19925
901.308	19734
901.427	19605
901.546	19533
901.665	19537
901.784	19449
901.904	19476
902.023	19362
902.141	19160
902.26	19065
902.379	19209
902.498	19152
902.617	19061
902.735	19206
902.854	18966
902.973	18981
903.091	18787
903.21	18749
903.328	18833
903.446	18665
903.565	18604
903.683	18456
903.801	18448
903.919	18456
904.038	18544
904.156	18300
904.274	18350
904.392	18323
904.51	18285
904.627	18334
904.745	18410
904.863	18323
904.981	18220
905.098	17935
905.216	18053
905.334	18098
905.451	17954
905.569	17969
905.686	18053
905.803	17942
905.921	17802
906.038	17916
906.155	17813
906.272	17627
906.389	17646
906.506	17585
906.623	17532
906.74	17505
906.857	17501
906.974	17455
907.091	17577
907.208	17756
907.324	17630
907.441	17364
907.557	17269
907.674	17292
907.79	17235
907.907	17204
908.023	17284
908.139	17242
908.256	17197
908.372	17079
908.488	17140
908.604	16999
908.72	16923
908.836	16908
908.952	16885
909.068	16889
909.184	17029
909.3	16889
909.415	16965
909.531	16847
909.647	16664
909.762	16653
909.878	16641
909.993	16645
910.108	16588
910.224	16672
910.339	16527
910.454	16455
910.57	16386
910.685	16337
910.8	16660
910.915	16599
911.03	16344
911.145	16299
911.259	16287
911.374	16268
911.489	16192
911.604	16071
911.718	15979
911.833	15998
911.947	15873
912.062	15835
912.176	16055
912.291	15934
912.405	15968
912.519	16169
912.633	16082
912.748	15903
912.862	15949
912.976	15819
913.09	15698
913.204	15816
913.318	15831
913.431	15960
913.545	15911
913.659	15812
913.772	15781
913.886	15705
914	15572
914.113	15644
914.226	15686
914.34	15690
914.453	15507
914.566	15644
914.68	15458
914.793	15488
914.906	15329
915.019	15214
915.132	15142
915.245	15173
915.358	15108
915.47	15237
915.583	15279
915.696	15188
915.809	15329
915.921	15241
916.034	15218
916.146	15192
916.259	15161
916.371	15173
916.483	15089
916.595	15032
916.708	15089
916.82	14956
916.932	15070
917.044	15009
917.156	14975
917.268	14834
917.38	14807
917.491	14792
917.603	14838
917.715	14883
917.826	15001
917.938	14743
918.049	14765
918.161	14731
918.272	14899
918.384	14861
918.495	14762
918.606	14705
918.717	14571
918.828	14571
918.939	14697
919.05	14511
919.161	14537
919.272	14396
919.383	14404
919.494	14697
919.604	14762
919.715	14583
919.826	14454
919.936	14484
920.047	14689
920.157	14541
920.267	14724
920.378	14552
920.488	14480
920.598	14743
920.708	14819
920.818	14644
920.928	14659
921.038	14823
921.148	14807
921.258	14511
921.368	14484
921.477	14294
921.587	14324
921.697	14134
921.806	14237
921.916	14180
922.025	14020
922.134	13970
922.244	13909
922.353	13913
922.462	13830
922.571	13734
922.68	13723
922.789	13571
922.898	13601
923.007	13533
923.116	13609
923.224	13601
923.333	13571
923.442	13392
923.55	13384
923.659	13422
923.767	13453
923.876	13285
923.984	13422
924.092	13335
924.201	13346
924.309	13343
924.417	13263
924.525	13263
924.633	13217
924.741	14157
924.849	13110
924.956	13179
925.064	13072
925.172	12989
925.279	12985
925.387	13004
925.494	12962
925.602	13099
925.709	13084
925.816	12943
925.924	12878
926.031	13015
926.138	13042
926.245	12951
926.352	12920
926.459	13088
926.566	13008
926.673	12848
926.779	12806
926.886	12741
926.993	12578
927.099	12547
927.206	12521
927.312	12456
927.419	12623
927.525	12589
927.631	12601
927.737	12467
927.843	12410
927.95	12266
928.056	12452
928.162	12353
928.267	12448
928.373	13008
928.479	12475
928.585	12243
928.69	12357
928.796	12437
928.901	12296
929.007	12098
929.112	12270
929.218	12125
929.323	12201
929.428	12114
929.533	12224
929.638	12011
929.743	12049
929.848	12121
929.953	12076
930.058	11965
930.163	11767
930.267	11783
930.372	11927
930.477	11699
930.581	11984
930.685	11851
930.79	11733
930.894	11668
930.998	11688
931.103	11821
931.207	11398
931.311	11474
931.415	11292
931.519	11098
931.623	11014
