Data from test_V78500241_1346.txt Node
Date: Fri Mar 25 15:19:13 CST 2022
User: usil
Spectrometer: V785-0024
Trigger mode: 0
Integration Time (sec): 4.000000E-1
Scans to average: 1
Nonlinearity correction enabled: false
Boxcar width: 0
Storing dark spectrum: false
XAxis mode: Wavelengths
Number of Pixels in Spectrum: 1024
>>>>>Begin Spectral Data<<<<<
801.071	28158
801.214	28192
801.356	27930
801.499	27854
801.641	27842
801.783	27797
801.926	27937
802.068	27770
802.211	27641
802.353	27656
802.496	27374
802.638	27359
802.78	27214
802.923	27332
803.065	27275
803.208	27355
803.35	27344
803.492	27420
803.635	27557
803.777	27447
803.919	27580
804.061	28010
804.204	27717
804.346	27568
804.488	27561
804.63	27595
804.773	27435
804.915	27663
805.057	27751
805.199	27572
805.341	27595
805.483	27911
805.626	27888
805.768	27603
805.91	27667
806.052	27629
806.194	27629
806.336	27899
806.478	27781
806.62	27831
806.762	27956
806.904	28109
807.046	28063
807.188	28188
807.33	28120
807.472	28143
807.614	28158
807.756	28265
807.898	28097
808.04	28010
808.182	28029
808.324	28044
808.465	28128
808.607	28249
808.749	28417
808.891	28398
809.033	28398
809.174	28481
809.316	28379
809.458	28363
809.6	28379
809.741	28417
809.883	28459
810.025	28771
810.166	28683
810.308	28706
810.45	28721
810.591	28580
810.733	28523
810.875	28485
811.016	28238
811.158	28234
811.299	28523
811.441	28417
811.582	28542
811.724	28466
811.865	28352
812.007	28356
812.148	28417
812.29	28390
812.431	28626
812.573	28847
812.714	28888
812.855	28885
812.997	28976
813.138	29307
813.279	29075
813.421	28965
813.562	29022
813.703	28835
813.845	28527
813.986	28352
814.127	28192
814.268	28032
814.41	28078
814.551	28063
814.692	28325
814.833	28109
814.974	28139
815.115	28124
815.256	27956
815.397	28093
815.539	27998
815.68	27975
815.821	27869
815.962	27960
816.103	27903
816.244	27739
816.385	27724
816.526	27709
816.666	27561
816.807	27336
816.948	27458
817.089	27625
817.23	27427
817.371	27553
817.512	27443
817.653	27272
817.793	27408
817.934	27405
818.075	27408
818.216	27504
818.356	27469
818.497	27203
818.638	27173
818.778	27157
818.919	27150
819.06	27184
819.2	27252
819.341	27389
819.481	27454
819.622	27576
819.762	27759
819.903	27641
820.043	27553
820.184	27507
820.324	27485
820.465	27549
820.605	27675
820.746	27435
820.886	27370
821.026	27496
821.167	27515
821.307	27488
821.447	27443
821.588	27431
821.728	27279
821.868	26944
822.008	27032
822.149	26899
822.289	26872
822.429	26640
822.569	26667
822.709	26526
822.849	26404
822.99	26484
823.13	26434
823.27	26259
823.41	26138
823.55	25982
823.69	26233
823.83	26317
823.97	26134
824.11	25993
824.25	25974
824.389	26077
824.529	26214
824.669	26073
824.809	26240
824.949	26294
825.089	26081
825.228	26111
825.368	25856
825.508	25898
825.648	25947
825.787	26069
825.927	25925
826.067	25776
826.206	25909
826.346	25997
826.485	25913
826.625	26027
826.765	25959
826.904	25936
827.044	25685
827.183	25651
827.323	25597
827.462	25693
827.601	25658
827.741	25620
827.88	25655
828.02	25712
828.159	25571
828.298	25578
828.437	25655
828.577	25655
828.716	25708
828.855	25491
828.994	25301
829.134	25228
829.273	25312
829.412	25289
829.551	25209
829.69	25301
829.829	25381
829.968	25304
830.107	25339
830.246	25362
830.385	25365
830.524	25278
830.663	25095
830.802	25027
830.941	24985
831.08	24920
831.219	24954
831.357	24966
831.496	25206
831.635	24943
831.774	24920
831.913	24749
832.051	24757
832.19	24738
832.329	24741
832.467	24821
832.606	24566
832.744	24597
832.883	24661
833.022	24646
833.16	24547
833.299	24532
833.437	24692
833.576	24639
833.714	24715
833.852	24791
833.991	24829
834.129	24901
834.267	24783
834.406	24722
834.544	24650
834.682	24612
834.821	24597
834.959	24886
835.097	24566
835.235	24859
835.373	24646
835.511	24597
835.65	24616
835.788	24502
835.926	24471
836.064	24395
836.202	24361
836.34	24612
836.478	24460
836.615	24456
836.753	24483
836.891	24547
837.029	24601
837.167	24505
837.305	24391
837.443	24414
837.58	24220
837.718	24479
837.856	24300
837.993	24201
838.131	24213
838.269	24270
838.406	24201
838.544	24167
838.681	24060
838.819	23908
838.956	23813
839.094	23821
839.231	23923
839.369	24041
839.506	24171
839.643	23950
839.781	23821
839.918	23813
840.055	23840
840.193	23764
840.33	23676
840.467	23870
840.604	23752
840.742	24045
840.879	23589
841.016	23577
841.153	23619
841.29	23790
841.427	23661
841.564	23817
841.701	23665
841.838	23653
841.975	23752
842.112	23630
842.249	23414
842.385	23528
842.522	23657
842.659	23482
842.796	23288
842.933	23383
843.069	23360
843.206	23452
843.343	23395
843.479	23516
843.616	23516
843.752	23204
843.889	23284
844.025	23414
844.162	23265
844.298	23353
844.435	23288
844.571	23064
844.708	23216
844.844	23448
844.98	23433
845.117	23326
845.253	23246
845.389	23143
845.525	23269
845.661	23067
845.798	22934
845.934	23143
846.07	22934
846.206	23010
846.342	23098
846.478	22957
846.614	22858
846.75	22573
846.886	22736
847.022	22854
847.158	22881
847.294	22691
847.429	22679
847.565	22622
847.701	22999
847.837	22474
847.972	22546
848.108	22417
848.244	22649
848.379	22341
848.515	22295
848.65	22230
848.786	22242
848.921	22257
849.057	22398
849.192	22409
849.328	22322
849.463	22314
849.598	22306
849.734	22360
849.869	22196
850.004	22059
850.14	22120
850.275	22207
850.41	21903
850.545	21987
850.68	21991
850.815	22090
850.95	21975
851.085	22215
851.22	22150
851.355	22116
851.49	22154
851.625	21903
851.76	22029
851.895	21918
852.03	21941
852.165	22067
852.299	22040
852.434	22188
852.569	22055
852.703	22006
852.838	22090
852.973	22188
853.107	22097
853.242	22093
853.376	21873
853.511	21755
853.645	21888
853.78	22002
853.914	21880
854.048	21804
854.183	21857
854.317	21945
854.451	22048
854.585	21869
854.72	21736
854.854	21876
854.988	21694
855.122	21930
855.256	21720
855.39	21846
855.524	22044
855.658	21873
855.792	21812
855.926	21835
856.06	21842
856.194	21987
856.327	21812
856.461	21732
856.595	21835
856.729	21854
856.862	21884
856.996	21915
857.13	21915
857.263	22025
857.397	21918
857.53	21797
857.664	21873
857.797	21968
857.931	22002
858.064	21953
858.197	21922
858.331	21819
858.464	21808
858.597	21816
858.731	21880
858.864	21808
858.997	21778
859.13	21812
859.263	21789
859.396	21903
859.529	21861
859.662	21778
859.795	21960
859.928	21979
860.061	22006
860.194	22063
860.327	21949
860.46	21972
860.592	22086
860.725	22036
860.858	21937
860.99	21857
861.123	21892
861.256	21793
861.388	21846
861.521	22428
861.653	21656
861.786	21675
861.918	21705
862.05	21724
862.183	21785
862.315	21797
862.447	21850
862.58	21888
862.712	21561
862.844	21462
862.976	21595
863.108	21644
863.24	21949
863.372	21576
863.504	21591
863.636	21629
863.768	21606
863.9	21545
864.032	21481
864.164	21644
864.296	21614
864.428	21675
864.559	21766
864.691	21606
864.823	21660
864.954	21660
865.086	21538
865.217	21485
865.349	21412
865.48	21553
865.612	21382
865.743	21545
865.875	21405
866.006	21492
866.137	21496
866.269	21492
866.4	21462
866.531	21386
866.662	21420
866.793	21431
866.924	21291
867.055	21447
867.186	21226
867.317	21222
867.448	21252
867.579	21329
867.71	21310
867.841	21199
867.972	21367
868.103	21382
868.233	21351
868.364	21321
868.495	21492
868.625	21724
868.756	21660
868.886	21500
869.017	21679
869.147	21633
869.278	21728
869.408	21599
869.539	21766
869.669	21629
869.799	21648
869.929	21781
870.06	21671
870.19	22002
870.32	21915
870.45	21884
870.58	22017
870.71	22158
870.84	22032
870.97	22059
871.1	22002
871.23	22166
871.36	22200
871.489	22002
871.619	22230
871.749	22070
871.879	22219
872.008	22181
872.138	22257
872.267	22223
872.397	22242
872.526	22063
872.656	22116
872.785	21979
872.915	22299
873.044	22379
873.173	22120
873.303	22196
873.432	22284
873.561	22405
873.69	22219
873.819	22219
873.948	22360
874.077	22204
874.206	22177
874.335	22181
874.464	22379
874.593	22348
874.722	22405
874.851	22451
874.979	22504
875.108	22432
875.237	22329
875.365	22295
875.494	22421
875.623	22516
875.751	22474
875.88	22497
876.008	22527
876.136	22481
876.265	22889
876.393	22889
876.521	22904
876.65	22942
876.778	22995
876.906	22774
877.034	22805
877.162	22946
877.29	22649
877.418	22740
877.546	22850
877.674	22862
877.802	22736
877.93	22725
878.058	22748
878.185	22797
878.313	22786
878.441	22801
878.568	22622
878.696	22683
878.824	22850
878.951	22900
879.079	22968
879.206	23128
879.333	22919
879.461	22889
879.588	22885
879.715	22927
879.842	23018
879.97	22862
880.097	22675
880.224	22706
880.351	22603
880.478	22588
880.605	22573
880.732	22535
880.859	22698
880.986	22565
881.112	22634
881.239	22573
881.366	22246
881.493	22284
881.619	22246
881.746	22303
881.872	22124
881.999	22101
882.125	22162
882.252	22276
882.378	22150
882.505	22303
882.631	22044
882.757	21972
882.883	21827
883.01	21915
883.136	21857
883.262	21759
883.388	21903
883.514	21911
883.64	21854
883.766	21797
883.892	21675
884.018	21713
884.143	21770
884.269	21865
884.395	21553
884.52	21496
884.646	21561
884.772	21416
884.897	21519
885.023	21572
885.148	21656
885.274	21800
885.399	21618
885.524	21583
885.65	21663
885.775	21591
885.9	21428
886.025	21698
886.15	21488
886.275	21622
886.4	21435
886.525	21625
886.65	21504
886.775	21443
886.9	21679
887.025	21869
887.149	21610
887.274	21199
887.399	21260
887.523	21146
887.648	21298
887.773	21188
887.897	21443
888.021	21435
888.146	21260
888.27	21485
888.395	21435
888.519	21313
888.643	21386
888.767	21443
888.891	21211
889.015	21020
889.139	21283
889.263	21161
889.387	21306
889.511	21302
889.635	21142
889.759	21066
889.883	21119
890.006	21116
890.13	21252
890.254	20994
890.377	20986
890.501	20918
890.624	20853
890.748	20872
890.871	20739
890.995	20689
891.118	20564
891.241	20724
891.364	20663
891.488	20826
891.611	20682
891.734	20716
891.857	20788
891.98	20663
892.103	20674
892.226	20716
892.349	20762
892.471	20415
892.594	20545
892.717	20632
892.839	20602
892.962	20568
893.085	20651
893.207	20579
893.33	20461
893.452	20419
893.575	20507
893.697	20545
893.819	20785
893.941	20697
894.064	20708
894.186	20552
894.308	20404
894.43	20636
894.552	20701
894.674	20617
894.796	20366
894.918	20530
895.04	20495
895.161	20511
895.283	20495
895.405	20446
895.526	20404
895.648	20594
895.769	20598
895.891	20552
896.012	20537
896.134	20552
896.255	20648
896.376	20507
896.498	20617
896.619	20613
896.74	20461
896.861	20602
896.982	20853
897.103	20979
897.224	20891
897.345	20788
897.466	20720
897.587	20754
897.708	20743
897.828	20765
897.949	20758
898.07	20636
898.19	20853
898.311	20785
898.431	20678
898.552	20758
898.672	20743
898.792	20788
898.913	20781
899.033	20727
899.153	20442
899.273	20492
899.393	20514
899.513	20526
899.633	20514
899.753	20507
899.873	20400
899.993	20503
900.113	20476
900.232	20484
900.352	20336
900.472	20454
900.591	20278
900.711	20374
900.83	20309
900.95	20282
901.069	20317
901.189	20202
901.308	19955
901.427	19849
901.546	19780
901.665	19849
901.784	19830
901.904	19734
902.023	19620
902.141	19312
902.26	19324
902.379	19400
902.498	19304
902.617	19301
902.735	19297
902.854	19373
902.973	19339
903.091	18932
903.21	18962
903.328	18993
903.446	18962
903.565	18817
903.683	18764
903.801	18821
903.919	18825
904.038	18795
904.156	18620
904.274	18719
904.392	18559
904.51	18597
904.627	18563
904.745	18585
904.863	18757
904.981	18407
905.098	18209
905.216	18232
905.334	18216
905.451	18292
905.569	18224
905.686	18292
905.803	18239
905.921	18140
906.038	18106
906.155	18038
906.272	17946
906.389	17912
906.506	17817
906.623	17786
906.74	17779
906.857	17710
906.974	17726
907.091	17874
907.208	17874
907.324	17676
907.441	17615
907.557	17558
907.674	17501
907.79	17398
907.907	17448
908.023	17570
908.139	17516
908.256	17444
908.372	17356
908.488	17387
908.604	17231
908.72	17124
908.836	17174
908.952	17071
909.068	17261
909.184	17258
909.3	17204
909.415	17246
909.531	17166
909.647	17048
909.762	16976
909.878	17037
909.993	16991
910.108	16831
910.224	16828
910.339	16908
910.454	16755
910.57	16755
910.685	16694
910.8	16946
910.915	16949
911.03	16790
911.145	16588
911.259	16584
911.374	16577
911.489	16394
911.604	16459
911.718	16272
911.833	16325
911.947	16154
912.062	16090
912.176	16196
912.291	16196
912.405	16230
912.519	16386
912.633	16344
912.748	16360
912.862	16306
912.976	15998
913.09	16036
913.204	16025
913.318	16101
913.431	16124
913.545	16074
913.659	16230
913.772	16029
913.886	15979
914	15827
914.113	15884
914.226	15922
914.34	15918
914.453	15713
914.566	15873
914.68	15667
914.793	15698
914.906	15564
915.019	15492
915.132	15367
915.245	15378
915.358	15485
915.47	15519
915.583	15542
915.696	15424
915.809	15534
915.921	15466
916.034	15447
916.146	15306
916.259	15370
916.371	15496
916.483	15310
916.595	15363
916.708	15249
916.82	15256
916.932	15226
917.044	15188
917.156	15195
917.268	15089
917.38	15108
917.491	15070
917.603	15070
917.715	15150
917.826	15081
917.938	15058
918.049	14929
918.161	15005
918.272	15081
918.384	15165
918.495	15127
918.606	14967
918.717	14788
918.828	14933
918.939	14823
919.05	14796
919.161	14880
919.272	14632
919.383	14689
919.494	14849
919.604	15066
919.715	14807
919.826	14648
919.936	14708
920.047	14845
920.157	14788
920.267	14967
920.378	14735
920.488	14746
920.598	14952
920.708	14994
920.818	14853
920.928	15013
921.038	15024
921.148	14979
921.258	14724
921.368	14568
921.477	14484
921.587	14533
921.697	14396
921.806	14522
921.916	14328
922.025	14225
922.134	14229
922.244	14043
922.353	14111
922.462	14058
922.571	13970
922.68	13788
922.789	13765
922.898	13860
923.007	13666
923.116	13791
923.224	13845
923.333	13750
923.442	13727
923.55	13693
923.659	13578
923.767	13677
923.876	13575
923.984	13624
924.092	13487
924.201	13590
924.309	13529
924.417	13624
924.525	13403
924.633	13445
924.741	14366
924.849	13225
924.956	13411
925.064	13236
925.172	13156
925.279	13202
925.387	13187
925.494	13228
925.602	13285
925.709	13213
925.816	13198
925.924	13103
926.031	13152
926.138	13141
926.245	13129
926.352	13084
926.459	13107
926.566	13175
926.673	13050
926.779	12920
926.886	13004
926.993	12738
927.099	12703
927.206	12795
927.312	12692
927.419	12772
927.525	12783
927.631	12726
927.737	12616
927.843	12604
927.95	12460
928.056	12532
928.162	12597
928.267	12608
928.373	13152
928.479	12631
928.585	12395
928.69	12479
928.796	12623
928.901	12414
929.007	12273
929.112	12452
929.218	12433
929.323	12369
929.428	12285
929.533	12391
929.638	12277
929.743	12243
929.848	12304
929.953	12273
930.058	12072
930.163	12015
930.267	12026
930.372	12072
930.477	11893
930.581	12224
930.685	12007
930.79	11802
930.894	11889
930.998	11790
931.103	12003
931.207	11653
931.311	11497
931.415	11387
931.519	11250
931.623	11151
