Data from test_V78500241_2117.txt Node
Date: Fri Mar 25 15:24:36 CST 2022
User: usil
Spectrometer: V785-0024
Trigger mode: 0
Integration Time (sec): 4.000000E-1
Scans to average: 1
Nonlinearity correction enabled: false
Boxcar width: 0
Storing dark spectrum: false
XAxis mode: Wavelengths
Number of Pixels in Spectrum: 1024
>>>>>Begin Spectral Data<<<<<
801.071	27717
801.214	27686
801.356	27534
801.499	27268
801.641	27192
801.783	27336
801.926	27291
802.068	27450
802.211	27230
802.353	27127
802.496	27013
802.638	26956
802.78	26944
802.923	26895
803.065	26811
803.208	26925
803.35	26929
803.492	27108
803.635	27199
803.777	27058
803.919	27100
804.061	27447
804.204	27264
804.346	27142
804.488	26952
804.63	27203
804.773	27077
804.915	27245
805.057	27192
805.199	27173
805.341	27192
805.483	27230
805.626	27142
805.768	27066
805.91	27245
806.052	27268
806.194	27203
806.336	27332
806.478	27382
806.62	27336
806.762	27431
806.904	27667
807.046	27884
807.188	27690
807.33	27705
807.472	27717
807.614	27538
807.756	27667
807.898	27492
808.04	27622
808.182	27538
808.324	27466
808.465	27564
808.607	27800
808.749	27774
808.891	28074
809.033	27895
809.174	27934
809.316	27892
809.458	27892
809.6	27709
809.741	28090
809.883	27998
810.025	28185
810.166	28238
810.308	28154
810.45	28067
810.591	28074
810.733	27873
810.875	27785
811.016	27766
811.158	27766
811.299	27861
811.441	28025
811.582	27998
811.724	27812
811.865	27873
812.007	27854
812.148	27732
812.29	28021
812.431	28074
812.573	28139
812.714	28249
812.855	28478
812.997	28565
813.138	28679
813.279	28405
813.421	28451
813.562	28398
813.703	28147
813.845	27922
813.986	27922
814.127	27724
814.268	27618
814.41	27675
814.551	27622
814.692	27595
814.833	27519
814.974	27580
815.115	27492
815.256	27458
815.397	27397
815.539	27447
815.68	27367
815.821	27329
815.962	27233
816.103	27378
816.244	27237
816.385	27066
816.526	27142
816.666	26944
816.807	26777
816.948	26967
817.089	26902
817.23	26887
817.371	26914
817.512	26902
817.653	26868
817.793	26731
817.934	26861
818.075	26834
818.216	26895
818.356	26887
818.497	26682
818.638	26564
818.778	26590
818.919	26552
819.06	26583
819.2	26758
819.341	26895
819.481	26906
819.622	26956
819.762	27093
819.903	27138
820.043	26960
820.184	27009
820.324	26956
820.465	27077
820.605	27058
820.746	26902
820.886	26807
821.026	26948
821.167	26895
821.307	26845
821.447	26861
821.588	26773
821.728	26644
821.868	26530
822.008	26240
822.149	26267
822.289	26305
822.429	25978
822.569	25830
822.709	25944
822.849	25944
822.99	25689
823.13	25940
823.27	25826
823.41	25643
823.55	25537
823.69	25632
823.83	25616
823.97	25582
824.11	25434
824.25	25453
824.389	25407
824.529	25624
824.669	25434
824.809	25567
824.949	25533
825.089	25472
825.228	25457
825.368	25373
825.508	25312
825.648	25335
825.787	25373
825.927	25316
826.067	25320
826.206	25228
826.346	25278
826.485	25415
826.625	25301
826.765	25563
826.904	25362
827.044	25019
827.183	25050
827.323	25012
827.462	25004
827.601	25099
827.741	24992
827.88	24992
828.02	25050
828.159	24977
828.298	25034
828.437	25114
828.577	24951
828.716	25122
828.855	24882
828.994	24730
829.134	24776
829.273	24707
829.412	24639
829.551	24692
829.69	24711
829.829	24719
829.968	24814
830.107	24886
830.246	24753
830.385	24646
830.524	24700
830.663	24498
830.802	24486
830.941	24292
831.08	24213
831.219	24403
831.357	24334
831.496	24608
831.635	24315
831.774	24308
831.913	24224
832.051	24102
832.19	24102
832.329	24262
832.467	23832
832.606	23969
832.744	24053
832.883	24102
833.022	24011
833.16	24034
833.299	24049
833.437	24060
833.576	24057
833.714	24159
833.852	24026
833.991	24167
834.129	24213
834.267	24129
834.406	24076
834.544	24079
834.682	24068
834.821	24022
834.959	24129
835.097	23912
835.235	24178
835.373	24015
835.511	24049
835.65	23939
835.788	23870
835.926	23786
836.064	23836
836.202	23752
836.34	23855
836.478	23901
836.615	23946
836.753	23851
836.891	23965
837.029	23836
837.167	23817
837.305	23851
837.443	23649
837.58	23775
837.718	23798
837.856	23684
837.993	23661
838.131	23756
838.269	23600
838.406	23634
838.544	23570
838.681	23315
838.819	23440
838.956	23193
839.094	23223
839.231	23318
839.369	23337
839.506	23570
839.643	23573
839.781	23296
839.918	23090
840.055	23258
840.193	23044
840.33	23113
840.467	23189
840.604	23147
840.742	23372
840.879	22938
841.016	23037
841.153	23193
841.29	23322
841.427	23132
841.564	23197
841.701	23075
841.838	23018
841.975	23003
842.112	22934
842.249	22946
842.385	22873
842.522	23067
842.659	22919
842.796	22782
842.933	22873
843.069	22702
843.206	22873
843.343	22873
843.479	22927
843.616	22889
843.752	22626
843.889	22721
844.025	22759
844.162	22630
844.298	22706
844.435	22573
844.571	22645
844.708	22577
844.844	22759
844.98	22710
845.117	22782
845.253	22580
845.389	22424
845.525	22584
845.661	22542
845.798	22394
845.934	22462
846.07	22440
846.206	22428
846.342	22493
846.478	22246
846.614	22158
846.75	21987
846.886	22067
847.022	22257
847.158	22105
847.294	22021
847.429	22154
847.565	22177
847.701	22238
847.837	21823
847.972	21831
848.108	21934
848.244	21945
848.379	21789
848.515	21625
848.65	21755
848.786	21648
848.921	21774
849.057	21819
849.192	21743
849.328	21713
849.463	21766
849.598	21618
849.734	21743
849.869	21507
850.004	21496
850.14	21488
850.275	21507
850.41	21374
850.545	21367
850.68	21351
850.815	21412
850.95	21458
851.085	21496
851.22	21564
851.355	21466
851.49	21454
851.625	21496
851.76	21454
851.895	21367
852.03	21363
852.165	21511
852.299	21523
852.434	21511
852.569	21428
852.703	21511
852.838	21431
852.973	21583
853.107	21618
853.242	21469
853.376	21408
853.511	21180
853.645	21291
853.78	21363
853.914	21214
854.048	21302
854.183	21317
854.317	21230
854.451	21523
854.585	21245
854.72	21321
854.854	21374
854.988	21264
855.122	21241
855.256	21165
855.39	21340
855.524	21382
855.658	21249
855.792	21241
855.926	21222
856.06	21378
856.194	21279
856.327	21298
856.461	21180
856.595	21142
856.729	21336
856.862	21458
856.996	21348
857.13	21466
857.263	21568
857.397	21294
857.53	21157
857.664	21351
857.797	21329
857.931	21351
858.064	21393
858.197	21477
858.331	21283
858.464	21207
858.597	21199
858.731	21211
858.864	21302
858.997	21222
859.13	21294
859.263	21306
859.396	21351
859.529	21260
859.662	21233
859.795	21264
859.928	21310
860.061	21435
860.194	21477
860.327	21310
860.46	21279
860.592	21329
860.725	21481
860.858	21454
860.99	21321
861.123	21214
861.256	21252
861.388	21245
861.521	21937
861.653	21195
861.786	21116
861.918	21055
862.05	21230
862.183	21184
862.315	21195
862.447	21275
862.58	21154
862.712	20971
862.844	20960
862.976	21135
863.108	21058
863.24	21428
863.372	20811
863.504	21020
863.636	20967
863.768	21096
863.9	21055
864.032	20944
864.164	20883
864.296	21112
864.428	21096
864.559	20967
864.691	20971
864.823	21001
864.954	20929
865.086	20887
865.217	20849
865.349	20720
865.48	20849
865.612	20834
865.743	21047
865.875	20975
866.006	20773
866.137	21009
866.269	20887
866.4	20914
866.531	20781
866.662	20765
866.793	20838
866.924	20857
867.055	20933
867.186	20925
867.317	20796
867.448	20727
867.579	20708
867.71	20701
867.841	20735
867.972	20853
868.103	20792
868.233	20769
868.364	20804
868.495	20887
868.625	21165
868.756	21230
868.886	20963
869.017	21013
869.147	21195
869.278	21100
869.408	21135
869.539	21180
869.669	21138
869.799	21077
869.929	21100
870.06	21104
870.19	21386
870.32	21488
870.45	21397
870.58	21393
870.71	21637
870.84	21610
870.97	21545
871.1	21485
871.23	21599
871.36	21629
871.489	21679
871.619	21618
871.749	21682
871.879	21568
872.008	21808
872.138	21728
872.267	21648
872.397	21450
872.526	21481
872.656	21545
872.785	21485
872.915	21648
873.044	21747
873.173	21698
873.303	21804
873.432	21739
873.561	21781
873.69	21682
873.819	21694
873.948	21694
874.077	21698
874.206	21694
874.335	21671
874.464	21694
874.593	21865
874.722	21823
874.851	21846
874.979	22044
875.108	21918
875.237	21831
875.365	21907
875.494	21884
875.623	22002
875.751	21838
875.88	21857
876.008	21991
876.136	22135
876.265	22360
876.393	22428
876.521	22318
876.65	22402
876.778	22291
876.906	22322
877.034	22211
877.162	22230
877.29	22306
877.418	22211
877.546	22234
877.674	22371
877.802	22230
877.93	22413
878.058	22242
878.185	22097
878.313	22219
878.441	22261
878.568	22097
878.696	22162
878.824	22234
878.951	22432
879.079	22363
879.206	22519
879.333	22470
879.461	22310
879.588	22432
879.715	22386
879.842	22436
879.97	22436
880.097	22147
880.224	22097
880.351	22147
880.478	22051
880.605	21987
880.732	22040
880.859	22215
880.986	22211
881.112	22139
881.239	21983
881.366	21831
881.493	21766
881.619	21679
881.746	21641
881.872	21656
881.999	21583
882.125	21587
882.252	21720
882.378	21720
882.505	21724
882.631	21488
882.757	21329
882.883	21488
883.01	21195
883.136	21245
883.262	21199
883.388	21264
883.514	21435
883.64	21401
883.766	21291
883.892	21077
884.018	21313
884.143	21344
884.269	21279
884.395	21112
884.52	21074
884.646	20918
884.772	20948
884.897	20906
885.023	20982
885.148	21077
885.274	21195
885.399	21077
885.524	20982
885.65	21017
885.775	21005
885.9	20998
886.025	21001
886.15	21043
886.275	20902
886.4	20963
886.525	20971
886.65	20929
886.775	20861
886.9	21218
887.025	21268
887.149	20960
887.274	20811
887.399	20800
887.523	20735
887.648	20910
887.773	20735
887.897	20872
888.021	20807
888.146	20659
888.27	20823
888.395	20975
888.519	20853
888.643	20815
888.767	20663
888.891	20537
889.015	20594
889.139	20632
889.263	20400
889.387	20762
889.511	20811
889.635	20583
889.759	20518
889.883	20522
890.006	20674
890.13	20640
890.254	20454
890.377	20613
890.501	20370
890.624	20355
890.748	20412
890.871	20294
890.995	20195
891.118	20187
891.241	20191
891.364	20206
891.488	20271
891.611	20084
891.734	20191
891.857	20195
891.98	20191
892.103	20164
892.226	20111
892.349	19993
892.471	19967
892.594	20077
892.717	20020
892.839	20073
892.962	20016
893.085	20206
893.207	20024
893.33	19883
893.452	20027
893.575	20092
893.697	20035
893.819	20240
893.941	20096
894.064	20183
894.186	19951
894.308	19852
894.43	20046
894.552	20149
894.674	20069
894.796	19978
894.918	20054
895.04	20001
895.161	20001
895.283	20100
895.405	20020
895.526	20024
895.648	19921
895.769	20046
895.891	20088
896.012	20172
896.134	20130
896.255	20119
896.376	19894
896.498	20035
896.619	20092
896.74	20035
896.861	20153
896.982	20370
897.103	20400
897.224	20358
897.345	20237
897.466	20240
897.587	20275
897.708	20377
897.828	20355
897.949	20168
898.07	20039
898.19	20195
898.311	20248
898.431	20320
898.552	20221
898.672	20278
898.792	20332
898.913	20278
899.033	20191
899.153	20043
899.273	19986
899.393	19974
899.513	20016
899.633	20039
899.753	20050
899.873	19871
899.993	19974
900.113	19906
900.232	19986
900.352	19818
900.472	19860
900.591	19852
900.711	19769
900.83	19700
900.95	19860
901.069	19738
901.189	19662
901.308	19449
901.427	19373
901.546	19422
901.665	19483
901.784	19422
901.904	19274
902.023	19247
902.141	19008
902.26	18962
902.379	18981
902.498	18817
902.617	18897
902.735	18875
902.854	18928
902.973	18913
903.091	18688
903.21	18502
903.328	18521
903.446	18418
903.565	18384
903.683	18319
903.801	18388
903.919	18277
904.038	18395
904.156	18106
904.274	18338
904.392	18136
904.51	18019
904.627	18106
904.745	18209
904.863	18159
904.981	17893
905.098	17878
905.216	17859
905.334	17786
905.451	17798
905.569	17718
905.686	17847
905.803	17779
905.921	17547
906.038	17672
906.155	17615
906.272	17512
906.389	17528
906.506	17379
906.623	17395
906.74	17307
906.857	17258
906.974	17193
907.091	17467
907.208	17459
907.324	17341
907.441	17189
907.557	17029
907.674	17109
907.79	17048
907.907	17006
908.023	17048
908.139	17003
908.256	16995
908.372	16946
908.488	16949
908.604	16790
908.72	16790
908.836	16782
908.952	16771
909.068	16862
909.184	16873
909.3	16786
909.415	16782
909.531	16801
909.647	16542
909.762	16474
909.878	16489
909.993	16459
910.108	16333
910.224	16459
910.339	16466
910.454	16424
910.57	16280
910.685	16185
910.8	16519
910.915	16455
911.03	16272
911.145	16048
911.259	16116
911.374	16101
911.489	16029
911.604	16082
911.718	15865
911.833	15903
911.947	15778
912.062	15576
912.176	15785
912.291	15854
912.405	15755
912.519	16036
912.633	15994
912.748	15812
912.862	15762
912.976	15644
913.09	15580
913.204	15648
913.318	15595
913.431	15690
913.545	15705
913.659	15732
913.772	15496
913.886	15462
914	15382
914.113	15530
914.226	15526
914.34	15504
914.453	15351
914.566	15481
914.68	15355
914.793	15313
914.906	15169
915.019	15024
915.132	14902
915.245	14990
915.358	15089
915.47	15032
915.583	15157
915.696	15104
915.809	15070
915.921	15066
916.034	15043
916.146	14933
916.259	14921
916.371	15020
916.483	15039
916.595	14826
916.708	14971
916.82	14925
916.932	14845
917.044	14857
917.156	14788
917.268	14739
917.38	14731
917.491	14682
917.603	14708
917.715	14823
917.826	14731
917.938	14708
918.049	14522
918.161	14659
918.272	14887
918.384	14640
918.495	14632
918.606	14495
918.717	14400
918.828	14450
918.939	14454
919.05	14309
919.161	14442
919.272	14225
919.383	14290
919.494	14454
919.604	14727
919.715	14469
919.826	14332
919.936	14396
920.047	14511
920.157	14461
920.267	14541
920.378	14575
920.488	14301
920.598	14682
920.708	14712
920.818	14469
920.928	14579
921.038	14670
921.148	14693
921.258	14488
921.368	14256
921.477	14149
921.587	14123
921.697	14081
921.806	14237
921.916	14020
922.025	13811
922.134	13807
922.244	13791
922.353	13830
922.462	13689
922.571	13719
922.68	13537
922.789	13521
922.898	13457
923.007	13392
923.116	13468
923.224	13438
923.333	13407
923.442	13282
923.55	13377
923.659	13324
923.767	13320
923.876	13274
923.984	13327
924.092	13259
924.201	13247
924.309	13168
924.417	13244
924.525	13076
924.633	13069
924.741	13875
924.849	12909
924.956	13069
925.064	12859
925.172	12776
925.279	12848
925.387	12905
925.494	12768
925.602	13038
925.709	12833
925.816	12817
925.924	12730
926.031	12973
926.138	12814
926.245	12859
926.352	12795
926.459	12878
926.566	12932
926.673	12806
926.779	12521
926.886	12639
926.993	12498
927.099	12418
927.206	12361
927.312	12464
927.419	12506
927.525	12395
927.631	12441
927.737	12410
927.843	12266
927.95	12098
928.056	12232
928.162	12281
928.267	12232
928.373	12897
928.479	12289
928.585	12140
928.69	12133
928.796	12228
928.901	12125
929.007	12041
929.112	12133
929.218	12087
929.323	12068
929.428	12041
929.533	12095
929.638	11889
929.743	11958
929.848	11961
929.953	11996
930.058	11775
930.163	11741
930.267	11695
930.372	11828
930.477	11589
930.581	11863
930.685	11729
930.79	11589
930.894	11653
930.998	11524
931.103	11611
931.207	11387
931.311	11242
931.415	11193
931.519	10949
931.623	10942
