Data from test_V78500241_271.txt Node
Date: Fri Mar 25 15:11:44 CST 2022
User: usil
Spectrometer: V785-0024
Trigger mode: 0
Integration Time (sec): 4.000000E-1
Scans to average: 1
Nonlinearity correction enabled: false
Boxcar width: 0
Storing dark spectrum: false
XAxis mode: Wavelengths
Number of Pixels in Spectrum: 1024
>>>>>Begin Spectral Data<<<<<
801.071	28021
801.214	27937
801.356	27690
801.499	27572
801.641	27545
801.783	27542
801.926	27599
802.068	27629
802.211	27504
802.353	27378
802.496	27241
802.638	27199
802.78	27275
802.923	27199
803.065	27131
803.208	27176
803.35	27119
803.492	27336
803.635	27336
803.777	27199
803.919	27367
804.061	27530
804.204	27359
804.346	27279
804.488	27302
804.63	27230
804.773	27230
804.915	27256
805.057	27458
805.199	27325
805.341	27329
805.483	27473
805.626	27279
805.768	27222
805.91	27477
806.052	27401
806.194	27344
806.336	27523
806.478	27466
806.62	27431
806.762	27511
806.904	27755
807.046	27903
807.188	27759
807.33	27857
807.472	27880
807.614	27587
807.756	27892
807.898	27705
808.04	27557
808.182	27583
808.324	27447
808.465	27682
808.607	27823
808.749	27899
808.891	28074
809.033	28188
809.174	28109
809.316	27972
809.458	28090
809.6	27930
809.741	28048
809.883	28059
810.025	28287
810.166	28287
810.308	28185
810.45	28067
810.591	28120
810.733	27838
810.875	28055
811.016	27964
811.158	27823
811.299	28036
811.441	28253
811.582	28040
811.724	28059
811.865	27823
812.007	27895
812.148	27930
812.29	27994
812.431	28116
812.573	28150
812.714	28143
812.855	28382
812.997	28485
813.138	28713
813.279	28538
813.421	28459
813.562	28409
813.703	28299
813.845	28223
813.986	27899
814.127	27679
814.268	27591
814.41	27717
814.551	27633
814.692	27667
814.833	27545
814.974	27641
815.115	27469
815.256	27443
815.397	27393
815.539	27481
815.68	27336
815.821	27291
815.962	27416
816.103	27427
816.244	27245
816.385	27188
816.526	27047
816.666	26891
816.807	26765
816.948	26876
817.089	27009
817.23	26826
817.371	26807
817.512	26819
817.653	26716
817.793	26724
817.934	26804
818.075	26853
818.216	26921
818.356	26739
818.497	26636
818.638	26495
818.778	26590
818.919	26549
819.06	26537
819.2	26678
819.341	26754
819.481	26739
819.622	26834
819.762	27013
819.903	27020
820.043	26963
820.184	26880
820.324	26880
820.465	26982
820.605	26819
820.746	26788
820.886	26697
821.026	26735
821.167	26800
821.307	26918
821.447	26697
821.588	26758
821.728	26689
821.868	26256
822.008	26244
822.149	26111
822.289	26126
822.429	25970
822.569	25936
822.709	25986
822.849	25761
822.99	25693
823.13	25712
823.27	25696
823.41	25632
823.55	25381
823.69	25559
823.83	25495
823.97	25510
824.11	25297
824.25	25263
824.389	25304
824.529	25263
824.669	25316
824.809	25354
824.949	25308
825.089	25392
825.228	25297
825.368	25190
825.508	25232
825.648	25091
825.787	25164
825.927	25145
826.067	25072
826.206	25141
826.346	25034
826.485	25206
826.625	25084
826.765	25217
826.904	25152
827.044	24992
827.183	24757
827.323	24806
827.462	24901
827.601	24825
827.741	24962
827.88	24806
828.02	24760
828.159	24962
828.298	24844
828.437	24871
828.577	24734
828.716	24867
828.855	24776
828.994	24620
829.134	24532
829.273	24646
829.412	24555
829.551	24494
829.69	24525
829.829	24509
829.968	24623
830.107	24688
830.246	24532
830.385	24334
830.524	24445
830.663	24486
830.802	24304
830.941	24060
831.08	24064
831.219	24228
831.357	24152
831.496	24334
831.635	24053
831.774	23999
831.913	24038
832.051	23946
832.19	23980
832.329	23977
832.467	23863
832.606	23764
832.744	23710
832.883	23847
833.022	23783
833.16	23840
833.299	23828
833.437	23927
833.576	23954
833.714	23859
833.852	24007
833.991	23813
834.129	24041
834.267	23984
834.406	23920
834.544	24003
834.682	23897
834.821	23866
834.959	23954
835.097	23786
835.235	23805
835.373	23843
835.511	23783
835.65	23748
835.788	23646
835.926	23471
836.064	23493
836.202	23695
836.34	23752
836.478	23741
836.615	23661
836.753	23722
836.891	23809
837.029	23718
837.167	23627
837.305	23634
837.443	23535
837.58	23520
837.718	23600
837.856	23547
837.993	23501
838.131	23589
838.269	23383
838.406	23440
838.544	23330
838.681	23140
838.819	23121
838.956	22965
839.094	22953
839.231	22930
839.369	23204
839.506	23448
839.643	23140
839.781	22972
839.918	22911
840.055	22957
840.193	22984
840.33	22908
840.467	22911
840.604	22755
840.742	23208
840.879	22767
841.016	22706
841.153	22828
841.29	22987
841.427	22972
841.564	22904
841.701	22923
841.838	22831
841.975	22702
842.112	22744
842.249	22721
842.385	22611
842.522	22831
842.659	22683
842.796	22478
842.933	22713
843.069	22497
843.206	22565
843.343	22767
843.479	22557
843.616	22717
843.752	22405
843.889	22390
844.025	22474
844.162	22295
844.298	22478
844.435	22352
844.571	22322
844.708	22310
844.844	22447
844.98	22478
845.117	22344
845.253	22428
845.389	22192
845.525	22265
845.661	22188
845.798	22162
845.934	22188
846.07	21983
846.206	22116
846.342	22196
846.478	22006
846.614	21797
846.75	21808
846.886	21766
847.022	21838
847.158	21899
847.294	21797
847.429	21937
847.565	21800
847.701	22029
847.837	21568
847.972	21553
848.108	21660
848.244	21698
848.379	21519
848.515	21378
848.65	21374
848.786	21450
848.921	21359
849.057	21378
849.192	21496
849.328	21443
849.463	21416
849.598	21378
849.734	21329
849.869	21184
850.004	21096
850.14	21188
850.275	21233
850.41	21131
850.545	21032
850.68	21055
850.815	21157
850.95	21085
851.085	21165
851.22	21169
851.355	21085
851.49	21108
851.625	21077
851.76	21150
851.895	21135
852.03	21009
852.165	21047
852.299	21131
852.434	21218
852.569	21173
852.703	21211
852.838	21188
852.973	21332
853.107	21344
853.242	21085
853.376	20899
853.511	20967
853.645	20880
853.78	21081
853.914	20975
854.048	20979
854.183	20979
854.317	20902
854.451	21108
854.585	21085
854.72	20895
854.854	20994
854.988	20857
855.122	21024
855.256	20708
855.39	20838
855.524	20975
855.658	21047
855.792	21039
855.926	21047
856.06	20986
856.194	20971
856.327	20910
856.461	20960
856.595	20933
856.729	20864
856.862	21028
856.996	20963
857.13	20914
857.263	21100
857.397	21108
857.53	20956
857.664	21051
857.797	20960
857.931	21055
858.064	21058
858.197	21081
858.331	20800
858.464	20895
858.597	20895
858.731	20899
858.864	20864
858.997	20826
859.13	20994
859.263	21009
859.396	20990
859.529	20842
859.662	20883
859.795	20765
859.928	20914
860.061	21135
860.194	21032
860.327	20906
860.46	20948
860.592	21009
860.725	21085
860.858	21039
860.99	20872
861.123	20849
861.256	20906
861.388	21020
861.521	21504
861.653	20796
861.786	20705
861.918	20834
862.05	20796
862.183	20902
862.315	20952
862.447	20811
862.58	20815
862.712	20705
862.844	20560
862.976	20781
863.108	20686
863.24	21066
863.372	20530
863.504	20617
863.636	20648
863.768	20682
863.9	20670
864.032	20488
864.164	20571
864.296	20659
864.428	20754
864.559	20613
864.691	20739
864.823	20598
864.954	20606
865.086	20590
865.217	20545
865.349	20461
865.48	20552
865.612	20480
865.743	20617
865.875	20674
866.006	20434
866.137	20602
866.269	20389
866.4	20568
866.531	20560
866.662	20347
866.793	20415
866.924	20396
867.055	20476
867.186	20598
867.317	20499
867.448	20355
867.579	20374
867.71	20278
867.841	20431
867.972	20541
868.103	20339
868.233	20522
868.364	20492
868.495	20514
868.625	20773
868.756	20727
868.886	20682
869.017	20693
869.147	20762
869.278	20811
869.408	20701
869.539	20674
869.669	20708
869.799	20697
869.929	20834
870.06	20811
870.19	20979
870.32	20906
870.45	21013
870.58	21096
870.71	21264
870.84	21237
870.97	21089
871.1	21161
871.23	21351
871.36	21367
871.489	21226
871.619	21161
871.749	21321
871.879	21245
872.008	21367
872.138	21344
872.267	21268
872.397	21192
872.526	21089
872.656	21108
872.785	21252
872.915	21260
873.044	21348
873.173	21393
873.303	21363
873.432	21275
873.561	21424
873.69	21306
873.819	21321
873.948	21260
874.077	21393
874.206	21313
874.335	21344
874.464	21313
874.593	21641
874.722	21545
874.851	21572
874.979	21542
875.108	21580
875.237	21469
875.365	21500
875.494	21519
875.623	21652
875.751	21599
875.88	21500
876.008	21568
876.136	21747
876.265	21876
876.393	22063
876.521	22017
876.65	22105
876.778	21953
876.906	21835
877.034	21873
877.162	21975
877.29	21831
877.418	21918
877.546	22010
877.674	21960
877.802	21785
877.93	21819
878.058	21831
878.185	21686
878.313	21892
878.441	21953
878.568	21759
878.696	21915
878.824	21975
878.951	21991
879.079	22192
879.206	22139
879.333	22063
879.461	21979
879.588	21968
879.715	22135
879.842	22109
879.97	21827
880.097	21728
880.224	21641
880.351	21713
880.478	21686
880.605	21545
880.732	21686
880.859	21934
880.986	21629
881.112	21660
881.239	21629
881.366	21401
881.493	21294
881.619	21260
881.746	21374
881.872	21336
881.999	21310
882.125	21119
882.252	21367
882.378	21351
882.505	21264
882.631	21275
882.757	20944
882.883	21135
883.01	21157
883.136	21001
883.262	20823
883.388	20918
883.514	21043
883.64	20948
883.766	20857
883.892	20887
884.018	20826
884.143	20998
884.269	21116
884.395	20804
884.52	20651
884.646	20587
884.772	20575
884.897	20594
885.023	20769
885.148	20785
885.274	20758
885.399	20746
885.524	20674
885.65	20724
885.775	20667
885.9	20583
886.025	20670
886.15	20693
886.275	20613
886.4	20621
886.525	20568
886.65	20560
886.775	20575
886.9	20838
887.025	20765
887.149	20648
887.274	20423
887.399	20412
887.523	20446
887.648	20438
887.773	20172
887.897	20545
888.021	20450
888.146	20317
888.27	20385
888.395	20488
888.519	20332
888.643	20465
888.767	20590
888.891	20275
889.015	20176
889.139	20199
889.263	20142
889.387	20282
889.511	20457
889.635	20381
889.759	20225
889.883	20119
890.006	20347
890.13	20400
890.254	20157
890.377	20005
890.501	20046
890.624	19871
890.748	19974
890.871	19947
890.995	19685
891.118	19655
891.241	19883
891.364	19696
891.488	19917
891.611	19864
891.734	19807
891.857	19795
891.98	19868
892.103	19845
892.226	19753
892.349	19795
892.471	19586
892.594	19807
892.717	19769
892.839	19765
892.962	19731
893.085	19845
893.207	19723
893.33	19647
893.452	19609
893.575	19753
893.697	19655
893.819	19837
893.941	19833
894.064	19864
894.186	19590
894.308	19613
894.43	19811
894.552	19955
894.674	19791
894.796	19655
894.918	19643
895.04	19601
895.161	19753
895.283	19753
895.405	19685
895.526	19620
895.648	19674
895.769	19769
895.891	19681
896.012	19681
896.134	19769
896.255	19814
896.376	19708
896.498	19715
896.619	19852
896.74	19788
896.861	19734
896.982	20081
897.103	20172
897.224	20111
897.345	19993
897.466	19750
897.587	19967
897.708	20195
897.828	20031
897.949	19852
898.07	19719
898.19	19814
898.311	19955
898.431	19913
898.552	19967
898.672	19986
898.792	19989
898.913	19959
899.033	19856
899.153	19655
899.273	19544
899.393	19658
899.513	19772
899.633	19647
899.753	19765
899.873	19613
899.993	19715
900.113	19651
900.232	19502
900.352	19578
900.472	19476
900.591	19445
900.711	19460
900.83	19362
900.95	19556
901.069	19624
901.189	19373
901.308	19065
901.427	19038
901.546	19031
901.665	19057
901.784	19168
901.904	18958
902.023	18913
902.141	18779
902.26	18654
902.379	18677
902.498	18578
902.617	18551
902.735	18509
902.854	18460
902.973	18429
903.091	18247
903.21	18171
903.328	18152
903.446	18125
903.565	18038
903.683	18072
903.801	17931
903.919	18026
904.038	18030
904.156	17882
904.274	17855
904.392	17809
904.51	17897
904.627	17752
904.745	17889
904.863	17851
904.981	17684
905.098	17516
905.216	17509
905.334	17474
905.451	17490
905.569	17406
905.686	17482
905.803	17459
905.921	17330
906.038	17455
906.155	17311
906.272	17140
906.389	17208
906.506	17056
906.623	17014
906.74	17052
906.857	16930
906.974	16930
907.091	17128
907.208	17098
907.324	17045
907.441	16908
907.557	16828
907.674	16736
907.79	16637
907.907	16675
908.023	16687
908.139	16698
908.256	16679
908.372	16618
908.488	16649
908.604	16516
908.72	16386
908.836	16417
908.952	16390
909.068	16470
909.184	16535
909.3	16432
909.415	16478
909.531	16394
909.647	16158
909.762	16162
909.878	16059
909.993	16173
910.108	16010
910.224	16105
910.339	16097
910.454	16010
910.57	16006
910.685	15873
910.8	16143
910.915	16093
911.03	15922
911.145	15831
911.259	15827
911.374	15682
911.489	15698
911.604	15644
911.718	15561
911.833	15488
911.947	15363
912.062	15256
912.176	15447
912.291	15447
912.405	15405
912.519	15606
912.633	15644
912.748	15469
912.862	15454
912.976	15321
913.09	15123
913.204	15188
913.318	15218
913.431	15329
913.545	15306
913.659	15325
913.772	15302
913.886	15112
914	15047
914.113	15119
914.226	15272
914.34	15214
914.453	15017
914.566	15062
914.68	14986
914.793	15028
914.906	14746
915.019	14762
915.132	14655
915.245	14731
915.358	14765
915.47	14678
915.583	14655
915.696	14792
915.809	14876
915.921	14918
916.034	14575
916.146	14579
916.259	14549
916.371	14724
916.483	14571
916.595	14674
916.708	14579
916.82	14613
916.932	14537
917.044	14560
917.156	14465
917.268	14358
917.38	14446
917.491	14362
917.603	14374
917.715	14495
917.826	14438
917.938	14328
918.049	14332
918.161	14313
918.272	14396
918.384	14484
918.495	14294
918.606	14202
918.717	14073
918.828	14187
918.939	14161
919.05	14054
919.161	14043
919.272	13932
919.383	14016
919.494	14168
919.604	14294
919.715	14119
919.826	14031
919.936	14088
920.047	14191
920.157	14145
920.267	14263
920.378	14126
920.488	14092
920.598	14389
920.708	14377
920.818	14309
920.928	14183
921.038	14355
921.148	14362
921.258	14103
921.368	13959
921.477	13837
921.587	13833
921.697	13738
921.806	13909
921.916	13662
922.025	13552
922.134	13529
922.244	13506
922.353	13495
922.462	13384
922.571	13285
922.68	13152
922.789	13099
922.898	13152
923.007	13164
923.116	13145
923.224	13145
923.333	13050
923.442	13053
923.55	12920
923.659	12977
923.767	13023
923.876	12970
923.984	12989
924.092	12787
924.201	12935
924.309	12924
924.417	12932
924.525	12791
924.633	12840
924.741	13537
924.849	12650
924.956	12772
925.064	12620
925.172	12506
925.279	12525
925.387	12574
925.494	12593
925.602	12726
925.709	12665
925.816	12399
925.924	12506
926.031	12597
926.138	12498
926.245	12623
926.352	12395
926.459	12509
926.566	12726
926.673	12418
926.779	12342
926.886	12311
926.993	12121
927.099	12072
927.206	12064
927.312	12106
927.419	12136
927.525	12224
927.631	12140
927.737	12057
927.843	12007
927.95	11893
928.056	11999
928.162	11889
928.267	12068
928.373	12544
928.479	12121
928.585	11794
928.69	11923
928.796	11954
928.901	11828
929.007	11668
929.112	11836
929.218	11843
929.323	11802
929.428	11684
929.533	11824
929.638	11707
929.743	11653
929.848	11699
929.953	11672
930.058	11539
930.163	11360
930.267	11429
930.372	11539
930.477	11261
930.581	11627
930.685	11410
930.79	11322
930.894	11307
930.998	11193
931.103	11421
931.207	10991
931.311	11083
931.415	10866
931.519	10702
931.623	10653
