Data from test_V78500241_28.txt Node
Date: Fri Mar 25 15:10:03 CST 2022
User: usil
Spectrometer: V785-0024
Trigger mode: 0
Integration Time (sec): 4.000000E-1
Scans to average: 1
Nonlinearity correction enabled: false
Boxcar width: 0
Storing dark spectrum: false
XAxis mode: Wavelengths
Number of Pixels in Spectrum: 1024
>>>>>Begin Spectral Data<<<<<
801.071	28596
801.214	28440
801.356	28219
801.499	28169
801.641	28074
801.783	28029
801.926	28211
802.068	27983
802.211	27983
802.353	27865
802.496	27766
802.638	27675
802.78	27762
802.923	27511
803.065	27591
803.208	27610
803.35	27603
803.492	27564
803.635	27732
803.777	27800
803.919	27876
804.061	28070
804.204	27876
804.346	27587
804.488	27511
804.63	27759
804.773	27561
804.915	27755
805.057	27854
805.199	27682
805.341	27736
805.483	27850
805.626	27823
805.768	27606
805.91	27789
806.052	27819
806.194	27595
806.336	27899
806.478	27793
806.62	27770
806.762	27941
806.904	27949
807.046	28268
807.188	28021
807.33	28120
807.472	27979
807.614	28040
807.756	28067
807.898	28010
808.04	27804
808.182	27865
808.324	27934
808.465	27907
808.607	28036
808.749	28032
808.891	28196
809.033	28303
809.174	28352
809.316	28234
809.458	28135
809.6	28131
809.741	28177
809.883	28306
810.025	28470
810.166	28436
810.308	28470
810.45	28455
810.591	28348
810.733	28249
810.875	28162
811.016	27975
811.158	28036
811.299	28150
811.441	28261
811.582	28261
811.724	28082
811.865	28181
812.007	28109
812.148	28109
812.29	28200
812.431	28185
812.573	28424
812.714	28546
812.855	28538
812.997	28740
813.138	28702
813.279	28672
813.421	28622
813.562	28634
813.703	28344
813.845	28310
813.986	28006
814.127	27895
814.268	27755
814.41	27717
814.551	27614
814.692	27880
814.833	27652
814.974	27690
815.115	27838
815.256	27629
815.397	27462
815.539	27542
815.68	27302
815.821	27211
815.962	27595
816.103	27344
816.244	27249
816.385	27161
816.526	27100
816.666	27009
816.807	26815
816.948	26944
817.089	27013
817.23	26773
817.371	26781
817.512	26716
817.653	26602
817.793	26651
817.934	26887
818.075	26880
818.216	26864
818.356	26571
818.497	26522
818.638	26526
818.778	26564
818.919	26400
819.06	26617
819.2	26568
819.341	26674
819.481	26762
819.622	26727
819.762	26971
819.903	26811
820.043	26853
820.184	26788
820.324	26727
820.465	26743
820.605	26807
820.746	26769
820.886	26587
821.026	26762
821.167	26629
821.307	26883
821.447	26629
821.588	26545
821.728	26537
821.868	26195
822.008	26100
822.149	26218
822.289	26039
822.429	25932
822.569	25761
822.709	25753
822.849	25586
822.99	25499
823.13	25430
823.27	25457
823.41	25506
823.55	25449
823.69	25316
823.83	25434
823.97	25251
824.11	25046
824.25	25179
824.389	25080
824.529	25301
824.669	25012
824.809	25129
824.949	25187
825.089	25072
825.228	25160
825.368	25069
825.508	24954
825.648	25057
825.787	25046
825.927	24947
826.067	24909
826.206	24928
826.346	25053
826.485	25088
826.625	24856
826.765	25061
826.904	24989
827.044	24806
827.183	24696
827.323	24585
827.462	24703
827.601	24608
827.741	24570
827.88	24601
828.02	24418
828.159	24578
828.298	24665
828.437	24604
828.577	24574
828.716	24757
828.855	24563
828.994	24437
829.134	24304
829.273	24399
829.412	24277
829.551	24194
829.69	24319
829.829	24289
829.968	24467
830.107	24266
830.246	24209
830.385	24030
830.524	24091
830.663	24060
830.802	23802
830.941	23866
831.08	23764
831.219	23931
831.357	23889
831.496	24057
831.635	23714
831.774	23604
831.913	23543
832.051	23562
832.19	23429
832.329	23547
832.467	23414
832.606	23246
832.744	23353
832.883	23440
833.022	23330
833.16	23337
833.299	23493
833.437	23474
833.576	23459
833.714	23577
833.852	23436
833.991	23387
834.129	23440
834.267	23585
834.406	23387
834.544	23505
834.682	23356
834.821	23505
834.959	23581
835.097	23303
835.235	23448
835.373	23307
835.511	23349
835.65	23208
835.788	23071
835.926	23170
836.064	22984
836.202	23052
836.34	23223
836.478	23349
836.615	23113
836.753	23216
836.891	23356
837.029	23303
837.167	23117
837.305	23155
837.443	23079
837.58	23117
837.718	23216
837.856	23064
837.993	22999
838.131	22984
838.269	23029
838.406	22987
838.544	22961
838.681	22744
838.819	22702
838.956	22542
839.094	22618
839.231	22455
839.369	22683
839.506	22889
839.643	22748
839.781	22489
839.918	22428
840.055	22455
840.193	22402
840.33	22398
840.467	22295
840.604	22390
840.742	22717
840.879	22074
841.016	22265
841.153	22363
841.29	22485
841.427	22375
841.564	22405
841.701	22276
841.838	22337
841.975	22074
842.112	22265
842.249	22090
842.385	21994
842.522	22253
842.659	22143
842.796	22070
842.933	22044
843.069	22010
843.206	22074
843.343	22070
843.479	21899
843.616	22162
843.752	21903
843.889	21720
844.025	22002
844.162	21808
844.298	21785
844.435	21743
844.571	21701
844.708	21827
844.844	21930
844.98	22051
845.117	21854
845.253	21641
845.389	21622
845.525	21625
845.661	21694
845.798	21511
845.934	21572
846.07	21523
846.206	21469
846.342	21606
846.478	21329
846.614	21279
846.75	21260
846.886	21272
847.022	21447
847.158	21275
847.294	21275
847.429	21214
847.565	21291
847.701	21435
847.837	20956
847.972	20982
848.108	21066
848.244	20910
848.379	20693
848.515	20845
848.65	20705
848.786	20842
848.921	20826
849.057	20941
849.192	20864
849.328	20743
849.463	20785
849.598	20785
849.734	20674
849.869	20708
850.004	20583
850.14	20511
850.275	20575
850.41	20377
850.545	20503
850.68	20412
850.815	20587
850.95	20473
851.085	20708
851.22	20606
851.355	20590
851.49	20514
851.625	20537
851.76	20431
851.895	20385
852.03	20366
852.165	20465
852.299	20537
852.434	20571
852.569	20450
852.703	20568
852.838	20636
852.973	20667
853.107	20587
853.242	20446
853.376	20450
853.511	20229
853.645	20244
853.78	20438
853.914	20465
854.048	20275
854.183	20172
854.317	20290
854.451	20473
854.585	20298
854.72	20454
854.854	20385
854.988	20328
855.122	20320
855.256	20199
855.39	20278
855.524	20518
855.658	20408
855.792	20320
855.926	20343
856.06	20419
856.194	20305
856.327	20358
856.461	20240
856.595	20153
856.729	20275
856.862	20385
856.996	20271
857.13	20469
857.263	20370
857.397	20324
857.53	20366
857.664	20343
857.797	20393
857.931	20400
858.064	20218
858.197	20355
858.331	20263
858.464	20248
858.597	20107
858.731	20073
858.864	20233
858.997	20103
859.13	20206
859.263	20343
859.396	20343
859.529	20233
859.662	20168
859.795	20172
859.928	20168
860.061	20476
860.194	20518
860.327	20221
860.46	20157
860.592	20252
860.725	20374
860.858	20294
860.99	20271
861.123	20256
861.256	20084
861.388	20142
861.521	20781
861.653	20031
861.786	20024
861.918	20115
862.05	20157
862.183	20199
862.315	20237
862.447	20294
862.58	20096
862.712	20115
862.844	19917
862.976	20100
863.108	20039
863.24	20381
863.372	19955
863.504	19936
863.636	19856
863.768	19967
863.9	19849
864.032	19780
864.164	19898
864.296	19875
864.428	20035
864.559	19974
864.691	19837
864.823	20016
864.954	19986
865.086	19734
865.217	19753
865.349	19715
865.48	19750
865.612	19772
865.743	19959
865.875	19860
866.006	19826
866.137	19799
866.269	19845
866.4	19803
866.531	19704
866.662	19803
866.793	19830
866.924	19719
867.055	19715
867.186	19784
867.317	19765
867.448	19624
867.579	19689
867.71	19597
867.841	19647
867.972	19750
868.103	19643
868.233	19708
868.364	19791
868.495	19799
868.625	19951
868.756	20161
868.886	19852
869.017	19967
869.147	20081
869.278	20164
869.408	19993
869.539	20012
869.669	20024
869.799	19982
869.929	20100
870.06	20069
870.19	20278
870.32	20233
870.45	20358
870.58	20423
870.71	20461
870.84	20419
870.97	20301
871.1	20298
871.23	20552
871.36	20606
871.489	20495
871.619	20434
871.749	20625
871.879	20533
872.008	20765
872.138	20579
872.267	20530
872.397	20389
872.526	20499
872.656	20400
872.785	20423
872.915	20674
873.044	20636
873.173	20499
873.303	20648
873.432	20678
873.561	20743
873.69	20518
873.819	20564
873.948	20663
874.077	20571
874.206	20689
874.335	20594
874.464	20750
874.593	20815
874.722	20804
874.851	20853
874.979	20902
875.108	20902
875.237	20823
875.365	20708
875.494	20842
875.623	20769
875.751	20849
875.88	20864
876.008	20960
876.136	21165
876.265	21241
876.393	21370
876.521	21340
876.65	21245
876.778	21279
876.906	21176
877.034	21085
877.162	21157
877.29	21169
877.418	21192
877.546	21203
877.674	21127
877.802	21176
877.93	21211
878.058	21096
878.185	20979
878.313	21001
878.441	21180
878.568	20975
878.696	21119
878.824	21207
878.951	21287
879.079	21412
879.206	21405
879.333	21454
879.461	21252
879.588	21348
879.715	21310
879.842	21447
879.97	21230
880.097	21104
880.224	21085
880.351	21074
880.478	20960
880.605	20967
880.732	20963
880.859	21291
880.986	21047
881.112	21058
881.239	20918
881.366	20765
881.493	20625
881.619	20659
881.746	20648
881.872	20594
881.999	20575
882.125	20583
882.252	20648
882.378	20644
882.505	20724
882.631	20393
882.757	20431
882.883	20423
883.01	20351
883.136	20374
883.262	20271
883.388	20176
883.514	20385
883.64	20431
883.766	20301
883.892	20157
884.018	20176
884.143	20252
884.269	20381
884.395	20092
884.52	20035
884.646	20111
884.772	19959
884.897	19936
885.023	20016
885.148	20031
885.274	20149
885.399	20088
885.524	20096
885.65	19936
885.775	20062
885.9	19955
886.025	20100
886.15	19993
886.275	19883
886.4	19940
886.525	19902
886.65	19967
886.775	19925
886.9	20012
887.025	20259
887.149	19932
887.274	19772
887.399	19795
887.523	19757
887.648	19689
887.773	19723
887.897	19753
888.021	19814
888.146	19635
888.27	19795
888.395	19814
888.519	19791
888.643	19734
888.767	19830
888.891	19597
889.015	19548
889.139	19700
889.263	19472
889.387	19746
889.511	19769
889.635	19635
889.759	19468
889.883	19506
890.006	19559
890.13	19563
890.254	19350
890.377	19453
890.501	19331
890.624	19278
890.748	19354
890.871	19213
890.995	19148
891.118	19228
891.241	19137
891.364	19206
891.488	19225
891.611	19194
891.734	19091
891.857	19179
891.98	19179
892.103	19198
892.226	19137
892.349	19061
892.471	19057
892.594	19050
892.717	19027
892.839	19080
892.962	19072
893.085	19304
893.207	19171
893.33	18894
893.452	19031
893.575	19133
893.697	19031
893.819	19228
893.941	19297
894.064	19175
894.186	19027
894.308	18958
894.43	19107
894.552	19179
894.674	19206
894.796	18981
894.918	18985
895.04	19008
895.161	19171
895.283	19031
895.405	19046
895.526	19091
895.648	19107
895.769	19156
895.891	19110
896.012	19107
896.134	19069
896.255	19114
896.376	19133
896.498	19164
896.619	19190
896.74	19270
896.861	19168
896.982	19548
897.103	19677
897.224	19407
897.345	19331
897.466	19301
897.587	19301
897.708	19502
897.828	19240
897.949	19244
898.07	19339
898.19	19316
898.311	19419
898.431	19209
898.552	19168
898.672	19316
898.792	19419
898.913	19244
899.033	19069
899.153	19118
899.273	18920
899.393	19072
899.513	19080
899.633	19004
899.753	19118
899.873	18951
899.993	19103
900.113	18913
900.232	18958
900.352	18943
900.472	18913
900.591	18806
900.711	18715
900.83	18787
900.95	18867
901.069	19012
901.189	18593
901.308	18460
901.427	18452
901.546	18494
901.665	18536
901.784	18486
901.904	18300
902.023	18194
902.141	18091
902.26	17961
902.379	18022
902.498	18007
902.617	17889
902.735	18083
902.854	17954
902.973	17771
903.091	17577
903.21	17543
903.328	17726
903.446	17543
903.565	17486
903.683	17532
903.801	17330
903.919	17372
904.038	17410
904.156	17208
904.274	17341
904.392	17273
904.51	17193
904.627	17200
904.745	17322
904.863	17261
904.981	16972
905.098	16820
905.216	16957
905.334	16915
905.451	16930
905.569	16900
905.686	16930
905.803	16873
905.921	16702
906.038	16763
906.155	16740
906.272	16626
906.389	16561
906.506	16405
906.623	16413
906.74	16367
906.857	16287
906.974	16367
907.091	16443
907.208	16542
907.324	16493
907.441	16337
907.557	16048
907.674	16021
907.79	15968
907.907	16090
908.023	16082
908.139	16158
908.256	16051
908.372	16063
908.488	15926
908.604	15888
908.72	15789
908.836	15789
908.952	15785
909.068	15899
909.184	15835
909.3	15690
909.415	15770
909.531	15759
909.647	15507
909.762	15492
909.878	15431
909.993	15564
910.108	15447
910.224	15416
910.339	15435
910.454	15386
910.57	15351
910.685	15161
910.8	15488
910.915	15553
911.03	15287
911.145	15188
911.259	15077
911.374	15020
911.489	15058
911.604	14990
911.718	14857
911.833	14842
911.947	14777
912.062	14659
912.176	14811
912.291	14712
912.405	14804
912.519	15009
912.633	15001
912.748	14880
912.862	14830
912.976	14499
913.09	14556
913.204	14564
913.318	14659
913.431	14792
913.545	14739
913.659	14701
913.772	14587
913.886	14552
914	14450
914.113	14560
914.226	14606
914.34	14545
914.453	14351
914.566	14419
914.68	14412
914.793	14374
914.906	14187
915.019	14054
915.132	14043
915.245	14107
915.358	14206
915.47	14130
915.583	14119
915.696	14111
915.809	14286
915.921	14275
916.034	14031
916.146	13902
916.259	14001
916.371	14046
916.483	14073
916.595	13928
916.708	13944
916.82	13955
916.932	14001
917.044	13890
917.156	13921
917.268	13799
917.38	13856
917.491	13814
917.603	13887
917.715	13883
917.826	13928
917.938	13757
918.049	13674
918.161	13753
918.272	13959
918.384	13879
918.495	13780
918.606	13597
918.717	13499
918.828	13563
918.939	13628
919.05	13495
919.161	13582
919.272	13449
919.383	13472
919.494	13544
919.604	13742
919.715	13643
919.826	13548
919.936	13438
920.047	13685
920.157	13578
920.267	13708
920.378	13601
920.488	13609
920.598	13685
920.708	13852
920.818	13628
920.928	13647
921.038	13818
921.148	13780
921.258	13506
921.368	13343
921.477	13236
921.587	13285
921.697	13103
921.806	13377
921.916	13133
922.025	12970
922.134	12943
922.244	12871
922.353	12985
922.462	12882
922.571	12696
922.68	12608
922.789	12551
922.898	12555
923.007	12578
923.116	12627
923.224	12528
923.333	12574
923.442	12475
923.55	12407
923.659	12418
923.767	12445
923.876	12418
923.984	12494
924.092	12315
924.201	12372
924.309	12342
924.417	12376
924.525	12277
924.633	12251
924.741	12993
924.849	12125
924.956	12216
925.064	12003
925.172	11908
925.279	11961
925.387	12049
925.494	12072
925.602	12186
925.709	12117
925.816	11942
925.924	12041
926.031	12083
926.138	11984
926.245	12136
926.352	11992
926.459	11969
926.566	12034
926.673	11973
926.779	11870
926.886	11866
926.993	11676
927.099	11611
927.206	11745
927.312	11653
927.419	11657
927.525	11718
927.631	11668
927.737	11509
927.843	11505
927.95	11337
928.056	11493
928.162	11524
928.267	11543
928.373	12163
928.479	11535
928.585	11227
928.69	11467
928.796	11478
928.901	11353
929.007	11242
929.112	11265
929.218	11246
929.323	11341
929.428	11170
929.533	11402
929.638	11235
929.743	11159
929.848	11204
929.953	11212
930.058	11128
930.163	10949
930.267	10900
930.372	11098
930.477	10831
930.581	11132
930.685	10949
930.79	10706
930.894	10736
930.998	10812
931.103	10934
931.207	10504
931.311	10402
931.415	10417
931.519	10257
931.623	10227
