Data from test_V78500241_1852.txt Node
Date: Fri Mar 25 15:22:45 CST 2022
User: usil
Spectrometer: V785-0024
Trigger mode: 0
Integration Time (sec): 4.000000E-1
Scans to average: 1
Nonlinearity correction enabled: false
Boxcar width: 0
Storing dark spectrum: false
XAxis mode: Wavelengths
Number of Pixels in Spectrum: 1024
>>>>>Begin Spectral Data<<<<<
801.071	27835
801.214	27686
801.356	27629
801.499	27378
801.641	27302
801.783	27389
801.926	27545
802.068	27435
802.211	27230
802.353	27165
802.496	27005
802.638	27112
802.78	26940
802.923	26826
803.065	26933
803.208	26956
803.35	27017
803.492	27165
803.635	27207
803.777	27089
803.919	27222
804.061	27538
804.204	27199
804.346	27058
804.488	27157
804.63	27089
804.773	27093
804.915	27104
805.057	27218
805.199	27165
805.341	27283
805.483	27488
805.626	27252
805.768	27093
805.91	27332
806.052	27321
806.194	27237
806.336	27496
806.478	27348
806.62	27283
806.762	27439
806.904	27572
807.046	27846
807.188	27682
807.33	27667
807.472	27846
807.614	27698
807.756	27835
807.898	27622
808.04	27587
808.182	27660
808.324	27595
808.465	27637
808.607	27720
808.749	28010
808.891	27975
809.033	28124
809.174	27945
809.316	27892
809.458	27857
809.6	27953
809.741	28025
809.883	28067
810.025	28265
810.166	28246
810.308	28211
810.45	28120
810.591	28223
810.733	27876
810.875	27812
811.016	27633
811.158	27793
811.299	27975
811.441	28135
811.582	28025
811.724	27941
811.865	27911
812.007	27869
812.148	28021
812.29	27907
812.431	28105
812.573	28192
812.714	28360
812.855	28622
812.997	28599
813.138	28584
813.279	28538
813.421	28531
813.562	28344
813.703	28097
813.845	28109
813.986	27857
814.127	27755
814.268	27770
814.41	27728
814.551	27500
814.692	27690
814.833	27599
814.974	27637
815.115	27610
815.256	27583
815.397	27485
815.539	27652
815.68	27401
815.821	27214
815.962	27496
816.103	27488
816.244	27207
816.385	27188
816.526	27146
816.666	27108
816.807	26967
816.948	26895
817.089	26910
817.23	27066
817.371	26887
817.512	26781
817.653	26777
817.793	26842
817.934	26925
818.075	26849
818.216	26883
818.356	26902
818.497	26819
818.638	26636
818.778	26739
818.919	26564
819.06	26849
819.2	26762
819.341	26864
819.481	26929
819.622	26979
819.762	27249
819.903	27032
820.043	26960
820.184	27017
820.324	27036
820.465	26979
820.605	27081
820.746	27123
820.886	26975
821.026	26937
821.167	26849
821.307	27058
821.447	26914
821.588	26998
821.728	26693
821.868	26560
822.008	26408
822.149	26339
822.289	26381
822.429	26046
822.569	26103
822.709	26005
822.849	25906
822.99	25966
823.13	25978
823.27	25841
823.41	25772
823.55	25605
823.69	25753
823.83	25681
823.97	25712
824.11	25632
824.25	25464
824.389	25567
824.529	25567
824.669	25533
824.809	25647
824.949	25681
825.089	25655
825.228	25586
825.368	25392
825.508	25377
825.648	25457
825.787	25544
825.927	25468
826.067	25324
826.206	25324
826.346	25388
826.485	25388
826.625	25460
826.765	25514
826.904	25403
827.044	25160
827.183	25285
827.323	25080
827.462	25213
827.601	25259
827.741	25152
827.88	25091
828.02	24977
828.159	25198
828.298	25080
828.437	25206
828.577	25046
828.716	25179
828.855	25129
828.994	24859
829.134	24909
829.273	24833
829.412	24829
829.551	24871
829.69	24814
829.829	24886
829.968	24989
830.107	24962
830.246	24844
830.385	24764
830.524	24821
830.663	24612
830.802	24555
830.941	24597
831.08	24327
831.219	24475
831.357	24494
831.496	24726
831.635	24483
831.774	24544
831.913	24475
832.051	24167
832.19	24186
832.329	24194
832.467	24186
832.606	24194
832.744	24026
832.883	24201
833.022	24136
833.16	24117
833.299	24201
833.437	24239
833.576	24251
833.714	24182
833.852	24213
833.991	24323
834.129	24334
834.267	24330
834.406	24388
834.544	24270
834.682	24155
834.821	24136
834.959	24433
835.097	24205
835.235	24224
835.373	24072
835.511	24182
835.65	24060
835.788	24049
835.926	23931
836.064	23904
836.202	23927
836.34	24045
836.478	24068
836.615	24053
836.753	23927
836.891	24148
837.029	24038
837.167	24041
837.305	23878
837.443	23885
837.58	23843
837.718	23882
837.856	24026
837.993	23866
838.131	23866
838.269	23726
838.406	23859
838.544	23726
838.681	23547
838.819	23482
838.956	23360
839.094	23368
839.231	23440
839.369	23512
839.506	23726
839.643	23558
839.781	23364
839.918	23334
840.055	23337
840.193	23455
840.33	23265
840.467	23265
840.604	23337
840.742	23547
840.879	23200
841.016	23204
841.153	23094
841.29	23341
841.427	23136
841.564	23376
841.701	23223
841.838	23277
841.975	23227
842.112	23159
842.249	23079
842.385	22919
842.522	23277
842.659	23041
842.796	22999
842.933	23170
843.069	22927
843.206	23033
843.343	23136
843.479	23029
843.616	22919
843.752	22877
843.889	22778
844.025	22923
844.162	22786
844.298	22812
844.435	22835
844.571	22820
844.708	22771
844.844	22984
844.98	23003
845.117	22927
845.253	22763
845.389	22740
845.525	22771
845.661	22653
845.798	22466
845.934	22641
846.07	22603
846.206	22618
846.342	22653
846.478	22603
846.614	22390
846.75	22223
846.886	22223
847.022	22363
847.158	22268
847.294	22382
847.429	22303
847.565	22246
847.701	22516
847.837	21922
847.972	22006
848.108	22063
848.244	22090
848.379	21861
848.515	21941
848.65	21903
848.786	21857
848.921	21865
849.057	21975
849.192	22021
849.328	21888
849.463	21865
849.598	21880
849.734	21747
849.869	21637
850.004	21633
850.14	21656
850.275	21633
850.41	21572
850.545	21587
850.68	21557
850.815	21686
850.95	21705
851.085	21747
851.22	21755
851.355	21667
851.49	21652
851.625	21614
851.76	21587
851.895	21614
852.03	21564
852.165	21618
852.299	21595
852.434	21667
852.569	21663
852.703	21576
852.838	21739
852.973	21850
853.107	21694
853.242	21656
853.376	21439
853.511	21374
853.645	21393
853.78	21591
853.914	21454
854.048	21291
854.183	21454
854.317	21591
854.451	21633
854.585	21591
854.72	21420
854.854	21618
854.988	21325
855.122	21496
855.256	21458
855.39	21485
855.524	21473
855.658	21534
855.792	21428
855.926	21469
856.06	21545
856.194	21507
856.327	21481
856.461	21355
856.595	21435
856.729	21332
856.862	21591
856.996	21515
857.13	21549
857.263	21561
857.397	21622
857.53	21458
857.664	21329
857.797	21424
857.931	21686
858.064	21515
858.197	21606
858.331	21397
858.464	21393
858.597	21313
858.731	21447
858.864	21340
858.997	21408
859.13	21477
859.263	21504
859.396	21580
859.529	21348
859.662	21462
859.795	21435
859.928	21386
860.061	21568
860.194	21652
860.327	21572
860.46	21504
860.592	21466
860.725	21679
860.858	21648
860.99	21469
861.123	21431
861.256	21237
861.388	21485
861.521	22036
861.653	21291
861.786	21325
861.918	21230
862.05	21329
862.183	21336
862.315	21428
862.447	21435
862.58	21329
862.712	21252
862.844	21169
862.976	21325
863.108	21188
863.24	21507
863.372	21184
863.504	21146
863.636	21176
863.768	21207
863.9	21127
864.032	21119
864.164	21020
864.296	21146
864.428	21226
864.559	21192
864.691	21154
864.823	21047
864.954	21180
865.086	21104
865.217	21066
865.349	21001
865.48	20990
865.612	20902
865.743	21066
865.875	21085
866.006	20998
866.137	21058
866.269	21020
866.4	21005
866.531	20994
866.662	20986
866.793	20952
866.924	20925
867.055	21077
867.186	20982
867.317	21043
867.448	21043
867.579	21001
867.71	20800
867.841	20842
867.972	21009
868.103	20952
868.233	21036
868.364	21024
868.495	21062
868.625	21222
868.756	21188
868.886	21268
869.017	21241
869.147	21294
869.278	21306
869.408	21317
869.539	21116
869.669	21294
869.799	21332
869.929	21291
870.06	21329
870.19	21500
870.32	21534
870.45	21561
870.58	21637
870.71	21675
870.84	21671
870.97	21580
871.1	21660
871.23	21720
871.36	21785
871.489	21667
871.619	21873
871.749	21793
871.879	21926
872.008	21827
872.138	21842
872.267	21800
872.397	21709
872.526	21557
872.656	21698
872.785	21694
872.915	21983
873.044	21892
873.173	21816
873.303	21926
873.432	21850
873.561	21842
873.69	21895
873.819	21991
873.948	21949
874.077	21907
874.206	21797
874.335	21850
874.464	21899
874.593	22116
874.722	22048
874.851	22074
874.979	21972
875.108	22032
875.237	22025
875.365	21972
875.494	22097
875.623	22074
875.751	22010
875.88	22059
876.008	22226
876.136	22299
876.265	22398
876.393	22634
876.521	22474
876.65	22531
876.778	22573
876.906	22405
877.034	22348
877.162	22481
877.29	22291
877.418	22341
877.546	22493
877.674	22413
877.802	22356
877.93	22421
878.058	22211
878.185	22276
878.313	22417
878.441	22432
878.568	22177
878.696	22424
878.824	22424
878.951	22516
879.079	22596
879.206	22771
879.333	22554
879.461	22455
879.588	22596
879.715	22569
879.842	22584
879.97	22512
880.097	22295
880.224	22230
880.351	22154
880.478	22348
880.605	22120
880.732	22211
880.859	22557
880.986	22219
881.112	22303
881.239	22230
881.366	21930
881.493	22021
881.619	21762
881.746	21827
881.872	21850
881.999	21804
882.125	21778
882.252	21793
882.378	21732
882.505	21831
882.631	21789
882.757	21416
882.883	21717
883.01	21466
883.136	21462
883.262	21306
883.388	21447
883.514	21572
883.64	21488
883.766	21466
883.892	21374
884.018	21408
884.143	21477
884.269	21549
884.395	21237
884.52	21146
884.646	21195
884.772	21131
884.897	21108
885.023	21093
885.148	21268
885.274	21336
885.399	21249
885.524	21214
885.65	21051
885.775	21188
885.9	21070
886.025	21214
886.15	21116
886.275	21066
886.4	21085
886.525	21207
886.65	21131
886.775	21119
886.9	21211
887.025	21336
887.149	21173
887.274	20956
887.399	20838
887.523	20963
887.648	20887
887.773	20876
887.897	21005
888.021	21020
888.146	20815
888.27	20887
888.395	20902
888.519	20994
888.643	20994
888.767	20982
888.891	20720
889.015	20712
889.139	20781
889.263	20716
889.387	20842
889.511	20807
889.635	20826
889.759	20746
889.883	20807
890.006	20678
890.13	20857
890.254	20648
890.377	20632
890.501	20434
890.624	20469
890.748	20606
890.871	20328
890.995	20134
891.118	20275
891.241	20347
891.364	20332
891.488	20366
891.611	20355
891.734	20305
891.857	20267
891.98	20275
892.103	20290
892.226	20157
892.349	20172
892.471	20126
892.594	20256
892.717	20305
892.839	20290
892.962	20233
893.085	20355
893.207	20202
893.33	19997
893.452	20096
893.575	20286
893.697	20153
893.819	20294
893.941	20454
894.064	20317
894.186	20134
894.308	20119
894.43	20229
894.552	20214
894.674	20233
894.796	20107
894.918	20233
895.04	20206
895.161	20252
895.283	20149
895.405	20202
895.526	20092
895.648	20195
895.769	20180
895.891	20195
896.012	20199
896.134	20233
896.255	20130
896.376	20149
896.498	20240
896.619	20298
896.74	20218
896.861	20282
896.982	20415
897.103	20602
897.224	20324
897.345	20434
897.466	20442
897.587	20374
897.708	20488
897.828	20446
897.949	20396
898.07	20180
898.19	20381
898.311	20396
898.431	20305
898.552	20511
898.672	20549
898.792	20469
898.913	20434
899.033	20408
899.153	20278
899.273	20054
899.393	20020
899.513	20073
899.633	20149
899.753	20130
899.873	20054
899.993	20092
900.113	20107
900.232	20005
900.352	19944
900.472	19932
900.591	19894
900.711	19959
900.83	19822
900.95	20046
901.069	20065
901.189	19811
901.308	19510
901.427	19502
901.546	19472
901.665	19422
901.784	19445
901.904	19289
902.023	19206
902.141	19175
902.26	19053
902.379	19114
902.498	19000
902.617	18924
902.735	19061
902.854	18951
902.973	18897
903.091	18703
903.21	18661
903.328	18734
903.446	18544
903.565	18494
903.683	18502
903.801	18429
903.919	18456
904.038	18429
904.156	18251
904.274	18197
904.392	18201
904.51	18140
904.627	18117
904.745	18285
904.863	18281
904.981	18190
905.098	17946
905.216	17878
905.334	17984
905.451	17973
905.569	17870
905.686	18015
905.803	17889
905.921	17691
906.038	17828
906.155	17786
906.272	17668
906.389	17615
906.506	17478
906.623	17410
906.74	17402
906.857	17467
906.974	17379
907.091	17585
907.208	17619
907.324	17539
907.441	17368
907.557	17231
907.674	17273
907.79	17136
907.907	17109
908.023	17181
908.139	17174
908.256	17109
908.372	17147
908.488	17075
908.604	16850
908.72	16873
908.836	16850
908.952	16942
909.068	16923
909.184	17014
909.3	16820
909.415	16938
909.531	16911
909.647	16615
909.762	16577
909.878	16531
909.993	16626
910.108	16603
910.224	16622
910.339	16622
910.454	16443
910.57	16375
910.685	16322
910.8	16702
910.915	16573
911.03	16337
911.145	16200
911.259	16181
911.374	16131
911.489	16082
911.604	16036
911.718	15918
911.833	15915
911.947	15770
912.062	15827
912.176	15895
912.291	15907
912.405	15945
912.519	16093
912.633	16131
912.748	15953
912.862	15888
912.976	15880
913.09	15568
913.204	15797
913.318	15838
913.431	15861
913.545	15880
913.659	15812
913.772	15629
913.886	15686
914	15557
914.113	15629
914.226	15679
914.34	15637
914.453	15367
914.566	15576
914.68	15370
914.793	15469
914.906	15256
915.019	15138
915.132	15108
915.245	15138
915.358	15199
915.47	15176
915.583	15036
915.696	15195
915.809	15317
915.921	15321
916.034	15211
916.146	15074
916.259	15039
916.371	15188
916.483	15135
916.595	14982
916.708	15039
916.82	14921
916.932	14883
917.044	14963
917.156	14925
917.268	14773
917.38	14853
917.491	14830
917.603	14880
917.715	14838
917.826	14868
917.938	14689
918.049	14651
918.161	14826
918.272	14883
918.384	14864
918.495	14716
918.606	14621
918.717	14644
918.828	14663
918.939	14617
919.05	14556
919.161	14526
919.272	14339
919.383	14438
919.494	14625
919.604	14739
919.715	14636
919.826	14492
919.936	14492
920.047	14625
920.157	14522
920.267	14610
920.378	14488
920.488	14560
920.598	14689
920.708	14804
920.818	14670
920.928	14640
921.038	14765
921.148	14727
921.258	14537
921.368	14351
921.477	14256
921.587	14301
921.697	14111
921.806	14305
921.916	14168
922.025	14001
922.134	13978
922.244	13944
922.353	13879
922.462	13742
922.571	13746
922.68	13540
922.789	13594
922.898	13674
923.007	13506
923.116	13556
923.224	13537
923.333	13575
923.442	13381
923.55	13335
923.659	13384
923.767	13434
923.876	13365
923.984	13476
924.092	13278
924.201	13381
924.309	13266
924.417	13308
924.525	13198
924.633	13160
924.741	14100
924.849	12973
924.956	13175
925.064	13065
925.172	12947
925.279	12943
925.387	12981
925.494	13099
925.602	13080
925.709	13050
925.816	12863
925.924	12973
926.031	12939
926.138	12909
926.245	12932
926.352	12787
926.459	12966
926.566	12977
926.673	12844
926.779	12753
926.886	12768
926.993	12662
927.099	12464
927.206	12471
927.312	12429
927.419	12654
927.525	12585
927.631	12616
927.737	12388
927.843	12323
927.95	12262
928.056	12330
928.162	12407
928.267	12346
928.373	12856
928.479	12388
928.585	12209
928.69	12171
928.796	12311
928.901	12247
929.007	12083
929.112	12220
929.218	12152
929.323	12095
929.428	12144
929.533	12220
929.638	12041
929.743	11988
929.848	12011
929.953	12034
930.058	11824
930.163	11699
930.267	11832
930.372	11866
930.477	11703
930.581	11946
930.685	11783
930.79	11646
930.894	11680
930.998	11570
931.103	11691
931.207	11414
931.311	11288
931.415	11258
931.519	11029
931.623	10961
