Data from test_V78500241_933.txt Node
Date: Fri Mar 25 15:16:21 CST 2022
User: usil
Spectrometer: V785-0024
Trigger mode: 0
Integration Time (sec): 4.000000E-1
Scans to average: 1
Nonlinearity correction enabled: false
Boxcar width: 0
Storing dark spectrum: false
XAxis mode: Wavelengths
Number of Pixels in Spectrum: 1024
>>>>>Begin Spectral Data<<<<<
801.071	28059
801.214	27983
801.356	27819
801.499	27709
801.641	27538
801.783	27663
801.926	27739
802.068	27610
802.211	27424
802.353	27260
802.496	27283
802.638	27138
802.78	27146
802.923	27310
803.065	27161
803.208	27260
803.35	27291
803.492	27348
803.635	27469
803.777	27408
803.919	27500
804.061	27717
804.204	27473
804.346	27427
804.488	27367
804.63	27477
804.773	27348
804.915	27424
805.057	27523
805.199	27485
805.341	27595
805.483	27526
805.626	27622
805.768	27306
805.91	27549
806.052	27599
806.194	27420
806.336	27644
806.478	27667
806.62	27557
806.762	27690
806.904	27823
807.046	28051
807.188	28109
807.33	28086
807.472	28082
807.614	27926
807.756	27884
807.898	27979
808.04	27846
808.182	27846
808.324	27884
808.465	27987
808.607	28124
808.749	28318
808.891	28386
809.033	28363
809.174	28295
809.316	28143
809.458	28249
809.6	28284
809.741	28341
809.883	28238
810.025	28588
810.166	28527
810.308	28569
810.45	28398
810.591	28470
810.733	28337
810.875	28226
811.016	28223
811.158	28063
811.299	28257
811.441	28367
811.582	28303
811.724	28249
811.865	28120
812.007	28257
812.148	28284
812.29	28325
812.431	28485
812.573	28531
812.714	28733
812.855	28767
812.997	28831
813.138	29155
813.279	28919
813.421	28850
813.562	28824
813.703	28668
813.845	28398
813.986	28188
814.127	28112
814.268	28021
814.41	28150
814.551	27998
814.692	28055
814.833	27994
814.974	27850
815.115	28078
815.256	27793
815.397	27686
815.539	27903
815.68	27819
815.821	27675
815.962	27755
816.103	27755
816.244	27553
816.385	27564
816.526	27519
816.666	27526
816.807	27195
816.948	27412
817.089	27214
817.23	27279
817.371	27336
817.512	27439
817.653	27176
817.793	27135
817.934	27226
818.075	27287
818.216	27264
818.356	27169
818.497	27192
818.638	26906
818.778	27009
818.919	27020
819.06	27138
819.2	27199
819.341	27237
819.481	27317
819.622	27420
819.762	27424
819.903	27488
820.043	27424
820.184	27332
820.324	27454
820.465	27435
820.605	27332
820.746	27329
820.886	27275
821.026	27279
821.167	27214
821.307	27424
821.447	27226
821.588	27199
821.728	27070
821.868	26906
822.008	26765
822.149	26750
822.289	26686
822.429	26431
822.569	26370
822.709	26362
822.849	26305
822.99	26275
823.13	26191
823.27	25959
823.41	26130
823.55	26008
823.69	26016
823.83	26084
823.97	25925
824.11	25837
824.25	25883
824.389	25936
824.529	26008
824.669	25913
824.809	25936
824.949	25986
825.089	26012
825.228	25955
825.368	25776
825.508	25742
825.648	25708
825.787	25944
825.927	25917
826.067	25689
826.206	25814
826.346	25780
826.485	25757
826.625	25833
826.765	25871
826.904	25909
827.044	25658
827.183	25765
827.323	25529
827.462	25559
827.601	25320
827.741	25449
827.88	25434
828.02	25324
828.159	25540
828.298	25544
828.437	25563
828.577	25377
828.716	25567
828.855	25453
828.994	25187
829.134	25088
829.273	25259
829.412	25251
829.551	25148
829.69	25209
829.829	25217
829.968	25274
830.107	25358
830.246	25312
830.385	25099
830.524	25076
830.663	24920
830.802	25065
830.941	24757
831.08	24760
831.219	24886
831.357	25004
831.496	25088
831.635	24916
831.774	24707
831.913	24749
832.051	24650
832.19	24612
832.329	24566
832.467	24578
832.606	24410
832.744	24604
832.883	24494
833.022	24327
833.16	24490
833.299	24604
833.437	24494
833.576	24566
833.714	24608
833.852	24601
833.991	24597
834.129	24715
834.267	24776
834.406	24601
834.544	24608
834.682	24517
834.821	24490
834.959	24627
835.097	24505
835.235	24620
835.373	24578
835.511	24593
835.65	24410
835.788	24486
835.926	24289
836.064	24220
836.202	24319
836.34	24384
836.478	24490
836.615	24327
836.753	24399
836.891	24353
837.029	24384
837.167	24410
837.305	24384
837.443	24429
837.58	24144
837.718	24319
837.856	24232
837.993	24163
838.131	24327
838.269	24106
838.406	24095
838.544	24114
838.681	23897
838.819	23794
838.956	23661
839.094	23657
839.231	23798
839.369	23859
839.506	24083
839.643	23999
839.781	23691
839.918	23615
840.055	23756
840.193	23668
840.33	23642
840.467	23570
840.604	23653
840.742	23821
840.879	23440
841.016	23577
841.153	23425
841.29	23745
841.427	23558
841.564	23691
841.701	23691
841.838	23406
841.975	23539
842.112	23433
842.249	23524
842.385	23246
842.522	23600
842.659	23452
842.796	23429
842.933	23410
843.069	23368
843.206	23433
843.343	23436
843.479	23395
843.616	23391
843.752	23086
843.889	23143
844.025	23387
844.162	23090
844.298	23200
844.435	23185
844.571	23242
844.708	23113
844.844	23231
844.98	23220
845.117	23376
845.253	23136
845.389	23064
845.525	23124
845.661	22995
845.798	22767
845.934	22949
846.07	22953
846.206	22835
846.342	22824
846.478	22923
846.614	22611
846.75	22565
846.886	22497
847.022	22725
847.158	22592
847.294	22580
847.429	22630
847.565	22478
847.701	22809
847.837	22314
847.972	22462
848.108	22413
848.244	22428
848.379	22246
848.515	22246
848.65	22188
848.786	22261
848.921	22226
849.057	22375
849.192	22310
849.328	22200
849.463	22169
849.598	22124
849.734	22150
849.869	21964
850.004	22128
850.14	22120
850.275	22040
850.41	21922
850.545	22029
850.68	21884
850.815	22021
850.95	21975
851.085	22166
851.22	22029
851.355	22006
851.49	22116
851.625	21945
851.76	21937
851.895	21857
852.03	21994
852.165	22032
852.299	22074
852.434	21998
852.569	21922
852.703	22002
852.838	22135
852.973	22158
853.107	22154
853.242	22090
853.376	21888
853.511	21766
853.645	21732
853.78	21899
853.914	21804
854.048	21819
854.183	21880
854.317	21918
854.451	22002
854.585	21800
854.72	21667
854.854	21781
854.988	21762
855.122	21759
855.256	21682
855.39	21808
855.524	21934
855.658	21747
855.792	21903
855.926	21865
856.06	21800
856.194	21838
856.327	21846
856.461	21899
856.595	21800
856.729	21717
856.862	22021
856.996	21823
857.13	21930
857.263	22013
857.397	21873
857.53	21804
857.664	21827
857.797	21812
857.931	21937
858.064	21876
858.197	21842
858.331	21770
858.464	21949
858.597	21724
858.731	21755
858.864	21732
858.997	21797
859.13	22006
859.263	21827
859.396	21911
859.529	21835
859.662	21755
859.795	21789
859.928	21797
860.061	21960
860.194	22040
860.327	21949
860.46	21720
860.592	22036
860.725	21892
860.858	21975
860.99	21854
861.123	21724
861.256	21759
861.388	21861
861.521	22485
861.653	21705
861.786	21686
861.918	21705
862.05	21717
862.183	21652
862.315	21797
862.447	21854
862.58	21819
862.712	21637
862.844	21515
862.976	21728
863.108	21534
863.24	21793
863.372	21370
863.504	21515
863.636	21542
863.768	21568
863.9	21523
864.032	21492
864.164	21462
864.296	21549
864.428	21652
864.559	21603
864.691	21545
864.823	21428
864.954	21488
865.086	21534
865.217	21431
865.349	21348
865.48	21447
865.612	21393
865.743	21599
865.875	21469
866.006	21332
866.137	21576
866.269	21469
866.4	21443
866.531	21420
866.662	21386
866.793	21378
866.924	21367
867.055	21355
867.186	21378
867.317	21386
867.448	21237
867.579	21329
867.71	21332
867.841	21249
867.972	21424
868.103	21268
868.233	21355
868.364	21317
868.495	21500
868.625	21511
868.756	21701
868.886	21500
869.017	21564
869.147	21682
869.278	21766
869.408	21519
869.539	21545
869.669	21732
869.799	21614
869.929	21675
870.06	21610
870.19	21823
870.32	21926
870.45	21972
870.58	21991
870.71	22010
870.84	21987
870.97	21968
871.1	21991
871.23	22215
871.36	22105
871.489	22105
871.619	22196
871.749	22166
871.879	22116
872.008	22207
872.138	22185
872.267	22211
872.397	22070
872.526	21880
872.656	22029
872.785	21983
872.915	22196
873.044	22200
873.173	22173
873.303	22230
873.432	22318
873.561	22234
873.69	22242
873.819	22230
873.948	22192
874.077	22268
874.206	22139
874.335	22204
874.464	22299
874.593	22538
874.722	22421
874.851	22428
874.979	22421
875.108	22489
875.237	22398
875.365	22348
875.494	22272
875.623	22466
875.751	22356
875.88	22409
876.008	22535
876.136	22611
876.265	22835
876.393	22942
876.521	22774
876.65	22820
876.778	22839
876.906	22649
877.034	22755
877.162	22847
877.29	22786
877.418	22759
877.546	22881
877.674	22801
877.802	22679
877.93	22725
878.058	22660
878.185	22607
878.313	22626
878.441	22725
878.568	22485
878.696	22702
878.824	22733
878.951	22782
879.079	23014
879.206	22984
879.333	22976
879.461	22744
879.588	22877
879.715	22793
879.842	22976
879.97	22858
880.097	22588
880.224	22656
880.351	22580
880.478	22687
880.605	22379
880.732	22546
880.859	22729
880.986	22546
881.112	22634
881.239	22303
881.366	22341
881.493	22238
881.619	22169
881.746	22036
881.872	22055
881.999	22154
882.125	22150
882.252	22128
882.378	22185
882.505	22188
882.631	21991
882.757	21835
882.883	21945
883.01	21724
883.136	21728
883.262	21720
883.388	21789
883.514	21823
883.64	21816
883.766	21762
883.892	21595
884.018	21656
884.143	21713
884.269	21736
884.395	21591
884.52	21374
884.646	21523
884.772	21245
884.897	21283
885.023	21473
885.148	21545
885.274	21694
885.399	21564
885.524	21450
885.65	21500
885.775	21568
885.9	21519
886.025	21587
886.15	21526
886.275	21386
886.4	21252
886.525	21336
886.65	21374
886.775	21412
886.9	21568
887.025	21644
887.149	21538
887.274	21287
887.399	21226
887.523	21272
887.648	21176
887.773	21245
887.897	21233
888.021	21355
888.146	21024
888.27	21306
888.395	21306
888.519	21237
888.643	21214
888.767	21203
888.891	21184
889.015	21024
889.139	21070
889.263	20960
889.387	21070
889.511	21066
889.635	21169
889.759	21096
889.883	20998
890.006	21024
890.13	21142
890.254	20880
890.377	20967
890.501	20815
890.624	20754
890.748	20876
890.871	20731
890.995	20499
891.118	20480
891.241	20590
891.364	20587
891.488	20731
891.611	20606
891.734	20526
891.857	20663
891.98	20670
892.103	20648
892.226	20613
892.349	20518
892.471	20370
892.594	20590
892.717	20431
892.839	20495
892.962	20431
893.085	20530
893.207	20454
893.33	20336
893.452	20419
893.575	20518
893.697	20473
893.819	20651
893.941	20617
894.064	20526
894.186	20488
894.308	20412
894.43	20488
894.552	20556
894.674	20629
894.796	20229
894.918	20358
895.04	20457
895.161	20617
895.283	20476
895.405	20343
895.526	20442
895.648	20469
895.769	20503
895.891	20590
896.012	20503
896.134	20454
896.255	20522
896.376	20412
896.498	20503
896.619	20537
896.74	20446
896.861	20503
896.982	20777
897.103	20925
897.224	20663
897.345	20678
897.466	20606
897.587	20663
897.708	20773
897.828	20648
897.949	20598
898.07	20587
898.19	20530
898.311	20743
898.431	20594
898.552	20651
898.672	20659
898.792	20880
898.913	20613
899.033	20621
899.153	20495
899.273	20347
899.393	20457
899.513	20393
899.633	20457
899.753	20404
899.873	20370
899.993	20476
900.113	20476
900.232	20351
900.352	20385
900.472	20339
900.591	20183
900.711	20081
900.83	20233
900.95	20393
901.069	20271
901.189	20024
901.308	19925
901.427	19822
901.546	19811
901.665	19727
901.784	19845
901.904	19651
902.023	19567
902.141	19350
902.26	19308
902.379	19335
902.498	19331
902.617	19221
902.735	19304
902.854	19346
902.973	19202
903.091	18901
903.21	18966
903.328	18966
903.446	18738
903.565	18825
903.683	18753
903.801	18627
903.919	18627
904.038	18650
904.156	18547
904.274	18608
904.392	18445
904.51	18509
904.627	18502
904.745	18559
904.863	18426
904.981	18418
905.098	18220
905.216	18171
905.334	18239
905.451	18247
905.569	18133
905.686	18270
905.803	18186
905.921	17923
906.038	18041
906.155	17783
906.272	17916
906.389	17786
906.506	17623
906.623	17752
906.74	17699
906.857	17699
906.974	17642
907.091	17657
907.208	17794
907.324	17748
907.441	17608
907.557	17474
907.674	17364
907.79	17368
907.907	17387
908.023	17539
908.139	17452
908.256	17455
908.372	17318
908.488	17242
908.604	17166
908.72	17178
908.836	17197
908.952	17185
909.068	17200
909.184	17280
909.3	17109
909.415	17197
909.531	17136
909.647	16873
909.762	16930
909.878	16873
909.993	16786
910.108	16831
910.224	16847
910.339	16809
910.454	16713
910.57	16641
910.685	16580
910.8	16831
910.915	16847
911.03	16626
911.145	16489
911.259	16481
911.374	16405
911.489	16333
911.604	16295
911.718	16234
911.833	16246
911.947	16177
912.062	16040
912.176	16055
912.291	16071
912.405	16139
912.519	16356
912.633	16341
912.748	16196
912.862	16093
912.976	16002
913.09	15892
913.204	15884
913.318	16021
913.431	16063
913.545	16105
913.659	16051
913.772	15960
913.886	15842
914	15808
914.113	15846
914.226	15892
914.34	15895
914.453	15656
914.566	15800
914.68	15667
914.793	15633
914.906	15523
915.019	15523
915.132	15340
915.245	15298
915.358	15317
915.47	15458
915.583	15348
915.696	15386
915.809	15466
915.921	15591
916.034	15279
916.146	15389
916.259	15233
916.371	15458
916.483	15393
916.595	15249
916.708	15165
916.82	15302
916.932	15203
917.044	15119
917.156	15077
917.268	15051
917.38	15116
917.491	14933
917.603	15032
917.715	15112
917.826	15195
917.938	14929
918.049	14944
918.161	15024
918.272	15123
918.384	15180
918.495	14986
918.606	14876
918.717	14712
918.828	14800
918.939	14872
919.05	14720
919.161	14864
919.272	14674
919.383	14750
919.494	14811
919.604	15009
919.715	14804
919.826	14739
919.936	14819
920.047	14887
920.157	14689
920.267	14967
920.378	14659
920.488	14648
920.598	14845
920.708	15043
920.818	14952
920.928	14823
921.038	14971
921.148	15043
921.258	14659
921.368	14689
921.477	14446
921.587	14560
921.697	14389
921.806	14419
921.916	14351
922.025	14130
922.134	14107
922.244	14134
922.353	14103
922.462	14008
922.571	13883
922.68	13822
922.789	13727
922.898	13788
923.007	13708
923.116	13769
923.224	13807
923.333	13746
923.442	13643
923.55	13609
923.659	13670
923.767	13708
923.876	13502
923.984	13586
924.092	13506
924.201	13552
924.309	13586
924.417	13449
924.525	13548
924.633	13510
924.741	14366
924.849	13255
924.956	13472
925.064	13217
925.172	13103
925.279	13251
925.387	13187
925.494	13198
925.602	13304
925.709	13251
925.816	13088
925.924	13088
926.031	13213
926.138	13126
926.245	13232
926.352	13095
926.459	13133
926.566	13194
926.673	13023
926.779	12977
926.886	12996
926.993	12783
927.099	12787
927.206	12688
927.312	12631
927.419	12719
927.525	12711
927.631	12749
927.737	12681
927.843	12582
927.95	12525
928.056	12532
928.162	12528
928.267	12768
928.373	13099
928.479	12646
928.585	12452
928.69	12555
928.796	12593
928.901	12384
929.007	12277
929.112	12365
929.218	12395
929.323	12342
929.428	12292
929.533	12441
929.638	12136
929.743	12209
929.848	12273
929.953	12323
930.058	12159
930.163	11942
930.267	11893
930.372	12091
930.477	11897
930.581	12163
930.685	12041
930.79	11836
930.894	11889
930.998	11798
931.103	11946
931.207	11638
931.311	11543
931.415	11398
931.519	11246
931.623	11185
