Data from test_V78500241_141.txt Node
Date: Fri Mar 25 15:10:50 CST 2022
User: usil
Spectrometer: V785-0024
Trigger mode: 0
Integration Time (sec): 4.000000E-1
Scans to average: 1
Nonlinearity correction enabled: false
Boxcar width: 0
Storing dark spectrum: false
XAxis mode: Wavelengths
Number of Pixels in Spectrum: 1024
>>>>>Begin Spectral Data<<<<<
801.071	28242
801.214	28223
801.356	28017
801.499	27918
801.641	27751
801.783	27884
801.926	27850
802.068	27816
802.211	27759
802.353	27606
802.496	27523
802.638	27481
802.78	27363
802.923	27359
803.065	27222
803.208	27302
803.35	27469
803.492	27424
803.635	27511
803.777	27378
803.919	27633
804.061	27808
804.204	27603
804.346	27283
804.488	27450
804.63	27401
804.773	27245
804.915	27363
805.057	27466
805.199	27534
805.341	27386
805.483	27679
805.626	27606
805.768	27348
805.91	27401
806.052	27538
806.194	27515
806.336	27876
806.478	27458
806.62	27424
806.762	27568
806.904	27686
807.046	27934
807.188	27987
807.33	27960
807.472	27827
807.614	27804
807.756	27888
807.898	27751
808.04	27694
808.182	27873
808.324	27709
808.465	27755
808.607	27869
808.749	28116
808.891	28078
809.033	28249
809.174	28040
809.316	28101
809.458	28025
809.6	28101
809.741	28128
809.883	28051
810.025	28139
810.166	28318
810.308	28207
810.45	28310
810.591	28109
810.733	28101
810.875	28010
811.016	27960
811.158	27892
811.299	28196
811.441	28158
811.582	27983
811.724	28055
811.865	27941
812.007	27911
812.148	27964
812.29	27926
812.431	28185
812.573	28303
812.714	28542
812.855	28462
812.997	28489
813.138	28752
813.279	28630
813.421	28535
813.562	28424
813.703	28284
813.845	28280
813.986	27865
814.127	27781
814.268	27561
814.41	27660
814.551	27606
814.692	27724
814.833	27511
814.974	27618
815.115	27511
815.256	27416
815.397	27492
815.539	27549
815.68	27386
815.821	27207
815.962	27450
816.103	27424
816.244	27256
816.385	27096
816.526	27150
816.666	26849
816.807	26868
816.948	26883
817.089	26800
817.23	26880
817.371	26792
817.512	26644
817.653	26659
817.793	26701
817.934	26765
818.075	26781
818.216	26682
818.356	26785
818.497	26507
818.638	26495
818.778	26465
818.919	26575
819.06	26731
819.2	26564
819.341	26701
819.481	26678
819.622	26838
819.762	26963
819.903	26986
820.043	26880
820.184	26781
820.324	26785
820.465	26929
820.605	26796
820.746	26826
820.886	26606
821.026	26845
821.167	26701
821.307	26769
821.447	26629
821.588	26617
821.728	26393
821.868	26309
822.008	26157
822.149	26126
822.289	26043
822.429	25856
822.569	25753
822.709	25818
822.849	25632
822.99	25616
823.13	25590
823.27	25491
823.41	25460
823.55	25293
823.69	25384
823.83	25453
823.97	25316
824.11	25274
824.25	25118
824.389	25270
824.529	25438
824.669	25285
824.809	25304
824.949	25335
825.089	25213
825.228	25240
825.368	24924
825.508	25004
825.648	25065
825.787	24958
825.927	25168
826.067	24890
826.206	25019
826.346	25110
826.485	25012
826.625	25076
826.765	25072
826.904	24924
827.044	24707
827.183	24783
827.323	24677
827.462	24837
827.601	24650
827.741	24806
827.88	24661
828.02	24700
828.159	24620
828.298	24658
828.437	24764
828.577	24517
828.716	24738
828.855	24505
828.994	24490
829.134	24334
829.273	24464
829.412	24311
829.551	24235
829.69	24285
829.829	24353
829.968	24475
830.107	24311
830.246	24330
830.385	24300
830.524	24247
830.663	24243
830.802	24057
830.941	23988
831.08	23958
831.219	23992
831.357	23882
831.496	24247
831.635	23927
831.774	23874
831.913	23859
832.051	23657
832.19	23676
832.329	23615
832.467	23657
832.606	23524
832.744	23520
832.883	23455
833.022	23573
833.16	23573
833.299	23687
833.437	23551
833.576	23733
833.714	23554
833.852	23802
833.991	23577
834.129	23653
834.267	23737
834.406	23596
834.544	23608
834.682	23592
834.821	23623
834.959	23684
835.097	23509
835.235	23520
835.373	23592
835.511	23570
835.65	23387
835.788	23368
835.926	23269
836.064	23105
836.202	23216
836.34	23429
836.478	23562
836.615	23356
836.753	23562
836.891	23440
837.029	23421
837.167	23573
837.305	23341
837.443	23284
837.58	23349
837.718	23349
837.856	23341
837.993	23121
838.131	23235
838.269	23121
838.406	23189
838.544	23056
838.681	22873
838.819	22835
838.956	22634
839.094	22744
839.231	22710
839.369	22850
839.506	23151
839.643	22797
839.781	22694
839.918	22683
840.055	22649
840.193	22637
840.33	22641
840.467	22580
840.604	22691
840.742	22824
840.879	22394
841.016	22394
841.153	22531
841.29	22630
841.427	22538
841.564	22626
841.701	22603
841.838	22588
841.975	22390
842.112	22519
842.249	22386
842.385	22287
842.522	22500
842.659	22409
842.796	22322
842.933	22265
843.069	22265
843.206	22181
843.343	22299
843.479	22223
843.616	22276
843.752	22120
843.889	22093
844.025	22135
844.162	22006
844.298	22090
844.435	21869
844.571	21926
844.708	22032
844.844	22268
844.98	22166
845.117	22166
845.253	21926
845.389	21850
845.525	21915
845.661	21869
845.798	21865
845.934	21800
846.07	21686
846.206	21835
846.342	21964
846.478	21690
846.614	21534
846.75	21462
846.886	21469
847.022	21568
847.158	21500
847.294	21348
847.429	21439
847.565	21462
847.701	21781
847.837	21310
847.972	21245
848.108	21351
848.244	21302
848.379	21096
848.515	20986
848.65	21047
848.786	21100
848.921	21096
849.057	21108
849.192	21024
849.328	21024
849.463	21058
849.598	21066
849.734	20941
849.869	20899
850.004	20823
850.14	20788
850.275	20746
850.41	20659
850.545	20663
850.68	20887
850.815	20845
850.95	20823
851.085	20948
851.22	20849
851.355	20868
851.49	20689
851.625	20697
851.76	20739
851.895	20640
852.03	20674
852.165	20682
852.299	20823
852.434	20849
852.569	20864
852.703	20701
852.838	20815
852.973	20979
853.107	20883
853.242	20750
853.376	20606
853.511	20499
853.645	20552
853.78	20743
853.914	20659
854.048	20434
854.183	20701
854.317	20701
854.451	20705
854.585	20564
854.72	20530
854.854	20587
854.988	20549
855.122	20571
855.256	20495
855.39	20568
855.524	20564
855.658	20571
855.792	20511
855.926	20556
856.06	20625
856.194	20682
856.327	20583
856.461	20549
856.595	20530
856.729	20530
856.862	20701
856.996	20579
857.13	20754
857.263	20720
857.397	20625
857.53	20530
857.664	20507
857.797	20655
857.931	20636
858.064	20530
858.197	20697
858.331	20632
858.464	20556
858.597	20358
858.731	20476
858.864	20571
858.997	20511
859.13	20522
859.263	20461
859.396	20651
859.529	20427
859.662	20541
859.795	20450
859.928	20465
860.061	20590
860.194	20697
860.327	20629
860.46	20602
860.592	20511
860.725	20533
860.858	20606
860.99	20533
861.123	20419
861.256	20461
861.388	20571
861.521	21188
861.653	20358
861.786	20343
861.918	20313
862.05	20465
862.183	20488
862.315	20648
862.447	20526
862.58	20423
862.712	20320
862.844	20267
862.976	20366
863.108	20370
863.24	20488
863.372	20096
863.504	20221
863.636	20256
863.768	20210
863.9	20183
864.032	20157
864.164	20225
864.296	20263
864.428	20271
864.559	20252
864.691	20240
864.823	20282
864.954	20275
865.086	20153
865.217	20161
865.349	20035
865.48	20142
865.612	20218
865.743	20347
865.875	20119
866.006	20084
866.137	20103
866.269	20031
866.4	20039
866.531	20210
866.662	20027
866.793	20065
866.924	19944
867.055	20157
867.186	20065
867.317	19959
867.448	19989
867.579	19959
867.71	20008
867.841	20031
867.972	20084
868.103	20263
868.233	20077
868.364	19997
868.495	20054
868.625	20343
868.756	20552
868.886	20347
869.017	20172
869.147	20328
869.278	20431
869.408	20423
869.539	20393
869.669	20332
869.799	20355
869.929	20503
870.06	20320
870.19	20629
870.32	20564
870.45	20598
870.58	20731
870.71	20811
870.84	20815
870.97	20705
871.1	20636
871.23	20777
871.36	20750
871.489	20785
871.619	20895
871.749	20918
871.879	21013
872.008	20975
872.138	20975
872.267	20918
872.397	20781
872.526	20712
872.656	20632
872.785	20693
872.915	20845
873.044	21013
873.173	20910
873.303	20948
873.432	21005
873.561	21017
873.69	20982
873.819	20899
873.948	21058
874.077	20872
874.206	20811
874.335	20937
874.464	21039
874.593	21093
874.722	21169
874.851	21161
874.979	21096
875.108	21245
875.237	21157
875.365	21055
875.494	21199
875.623	21306
875.751	21340
875.88	21176
876.008	21325
876.136	21264
876.265	21595
876.393	21713
876.521	21606
876.65	21545
876.778	21583
876.906	21591
877.034	21507
877.162	21492
877.29	21523
877.418	21534
877.546	21462
877.674	21538
877.802	21450
877.93	21458
878.058	21363
878.185	21363
878.313	21530
878.441	21648
878.568	21306
878.696	21500
878.824	21458
878.951	21743
879.079	21755
879.206	21850
879.333	21690
879.461	21511
879.588	21690
879.715	21606
879.842	21831
879.97	21553
880.097	21321
880.224	21321
880.351	21435
880.478	21435
880.605	21260
880.732	21359
880.859	21595
880.986	21287
881.112	21378
881.239	21241
881.366	21192
881.493	20982
881.619	21001
881.746	20956
881.872	20929
881.999	20971
882.125	20830
882.252	21036
882.378	20876
882.505	21036
882.631	20743
882.757	20693
882.883	20693
883.01	20625
883.136	20716
883.262	20522
883.388	20537
883.514	20613
883.64	20746
883.766	20457
883.892	20476
884.018	20446
884.143	20556
884.269	20674
884.395	20419
884.52	20358
884.646	20355
884.772	20180
884.897	20233
885.023	20286
885.148	20412
885.274	20351
885.399	20427
885.524	20339
885.65	20347
885.775	20271
885.9	20259
886.025	20488
886.15	20408
886.275	20294
886.4	20157
886.525	20206
886.65	20168
886.775	20172
886.9	20355
887.025	20438
887.149	20248
887.274	20008
887.399	20073
887.523	20027
887.648	20043
887.773	19925
887.897	20206
888.021	20054
888.146	20065
888.27	20237
888.395	20199
888.519	20077
888.643	20020
888.767	20069
888.891	19928
889.015	19807
889.139	19871
889.263	19849
889.387	19989
889.511	20043
889.635	19982
889.759	19887
889.883	19769
890.006	19970
890.13	19925
890.254	19719
890.377	19670
890.501	19578
890.624	19556
890.748	19590
890.871	19480
890.995	19464
891.118	19426
891.241	19453
891.364	19415
891.488	19605
891.611	19384
891.734	19312
891.857	19521
891.98	19384
892.103	19582
892.226	19445
892.349	19362
892.471	19202
892.594	19365
892.717	19480
892.839	19346
892.962	19430
893.085	19430
893.207	19339
893.33	19331
893.452	19388
893.575	19350
893.697	19244
893.819	19487
893.941	19434
894.064	19495
894.186	19400
894.308	19320
894.43	19411
894.552	19464
894.674	19457
894.796	19274
894.918	19343
895.04	19308
895.161	19392
895.283	19362
895.405	19217
895.526	19285
895.648	19419
895.769	19331
895.891	19324
896.012	19476
896.134	19525
896.255	19362
896.376	19365
896.498	19476
896.619	19521
896.74	19384
896.861	19476
896.982	19723
897.103	19868
897.224	19685
897.345	19670
897.466	19605
897.587	19582
897.708	19826
897.828	19689
897.949	19544
898.07	19464
898.19	19559
898.311	19594
898.431	19502
898.552	19548
898.672	19674
898.792	19651
898.913	19487
899.033	19510
899.153	19324
899.273	19251
899.393	19293
899.513	19384
899.633	19350
899.753	19282
899.873	19343
899.993	19362
900.113	19213
900.232	19377
900.352	19202
900.472	19145
900.591	19091
900.711	19110
900.83	19057
900.95	19148
901.069	19091
901.189	19050
901.308	18833
901.427	18681
901.546	18783
901.665	18741
901.784	18760
901.904	18608
902.023	18551
902.141	18281
902.26	18174
902.379	18361
902.498	18235
902.617	18182
902.735	18220
902.854	18224
902.973	18110
903.091	17950
903.21	17912
903.328	17866
903.446	17847
903.565	17733
903.683	17710
903.801	17573
903.919	17661
904.038	17642
904.156	17528
904.274	17486
904.392	17398
904.51	17433
904.627	17524
904.745	17490
904.863	17539
904.981	17326
905.098	17155
905.216	17113
905.334	17166
905.451	17048
905.569	17105
905.686	17204
905.803	17075
905.921	17033
906.038	17003
906.155	16976
906.272	16854
906.389	16816
906.506	16580
906.623	16710
906.74	16687
906.857	16641
906.974	16523
907.091	16733
907.208	16797
907.324	16675
907.441	16481
907.557	16409
907.674	16287
907.79	16211
907.907	16344
908.023	16470
908.139	16371
908.256	16242
908.372	16246
908.488	16287
908.604	16116
908.72	16131
908.836	16109
908.952	16082
909.068	16025
909.184	16055
909.3	15998
909.415	16173
909.531	16097
909.647	15819
909.762	15789
909.878	15717
909.993	15804
910.108	15808
910.224	15732
910.339	15838
910.454	15625
910.57	15637
910.685	15542
910.8	15808
910.915	15671
911.03	15530
911.145	15401
911.259	15435
911.374	15264
911.489	15298
911.604	15184
911.718	15135
911.833	15119
911.947	15017
912.062	14815
912.176	15066
912.291	15100
912.405	15077
912.519	15199
912.633	15188
912.748	15264
912.862	15039
912.976	14918
913.09	14880
913.204	14834
913.318	14948
913.431	15047
913.545	15039
913.659	14895
913.772	14899
913.886	14682
914	14682
914.113	14849
914.226	14792
914.34	14727
914.453	14625
914.566	14826
914.68	14590
914.793	14625
914.906	14450
915.019	14351
915.132	14336
915.245	14317
915.358	14366
915.47	14476
915.583	14385
915.696	14431
915.809	14549
915.921	14518
916.034	14343
916.146	14259
916.259	14221
916.371	14366
916.483	14355
916.595	14161
916.708	14142
916.82	14195
916.932	14134
917.044	14210
917.156	14115
917.268	14065
917.38	14020
917.491	13986
917.603	14065
917.715	14149
917.826	14130
917.938	13982
918.049	14016
918.161	13993
918.272	14237
918.384	14088
918.495	14005
918.606	13837
918.717	13731
918.828	13795
918.939	13849
919.05	13685
919.161	13845
919.272	13521
919.383	13594
919.494	13970
919.604	14062
919.715	13704
919.826	13723
919.936	13788
920.047	13852
920.157	13795
920.267	13989
920.378	13826
920.488	13719
920.598	13883
920.708	14046
920.818	13925
920.928	13967
921.038	14084
921.148	13986
921.258	13799
921.368	13685
921.477	13575
921.587	13529
921.697	13400
921.806	13590
921.916	13316
922.025	13202
922.134	13179
922.244	13171
922.353	13190
922.462	13053
922.571	12973
922.68	12848
922.789	12837
922.898	12741
923.007	12776
923.116	12806
923.224	12772
923.333	12741
923.442	12593
923.55	12711
923.659	12582
923.767	12711
923.876	12513
923.984	12662
924.092	12570
924.201	12604
924.309	12517
924.417	12635
924.525	12479
924.633	12513
924.741	13312
924.849	12338
924.956	12407
925.064	12262
925.172	12148
925.279	12190
925.387	12270
925.494	12277
925.602	12361
925.709	12323
925.816	12152
925.924	12167
926.031	12247
926.138	12266
926.245	12232
926.352	12117
926.459	12369
926.566	12330
926.673	12163
926.779	12064
926.886	12011
926.993	11889
927.099	11821
927.206	11878
927.312	11828
927.419	11885
927.525	11927
927.631	11843
927.737	11741
927.843	11680
927.95	11558
928.056	11707
928.162	11661
928.267	11688
928.373	12251
928.479	11748
928.585	11535
928.69	11611
928.796	11661
928.901	11554
929.007	11414
929.112	11611
929.218	11493
929.323	11497
929.428	11379
929.533	11592
929.638	11448
929.743	11341
929.848	11417
929.953	11368
930.058	11193
930.163	11181
930.267	11185
930.372	11227
930.477	11056
930.581	11288
930.685	11204
930.79	11014
930.894	11014
930.998	10968
931.103	11071
931.207	10740
931.311	10641
931.415	10546
931.519	10371
931.623	10421
