Data from test_V78500241_3553.txt Node
Date: Fri Mar 25 15:34:35 CST 2022
User: usil
Spectrometer: V785-0024
Trigger mode: 0
Integration Time (sec): 4.000000E-1
Scans to average: 1
Nonlinearity correction enabled: false
Boxcar width: 0
Storing dark spectrum: false
XAxis mode: Wavelengths
Number of Pixels in Spectrum: 1024
>>>>>Begin Spectral Data<<<<<
801.071	27180
801.214	27291
801.356	26899
801.499	26929
801.641	26853
801.783	26754
801.926	26960
802.068	26762
802.211	26746
802.353	26670
802.496	26556
802.638	26442
802.78	26404
802.923	26317
803.065	26473
803.208	26415
803.35	26324
803.492	26526
803.635	26613
803.777	26590
803.919	26503
804.061	26849
804.204	26674
804.346	26484
804.488	26377
804.63	26556
804.773	26404
804.915	26533
805.057	26609
805.199	26606
805.341	26735
805.483	26727
805.626	26663
805.768	26560
805.91	26571
806.052	26651
806.194	26621
806.336	26914
806.478	26720
806.62	26651
806.762	26807
806.904	27013
807.046	27192
807.188	26975
807.33	27233
807.472	27020
807.614	26990
807.756	26944
807.898	26899
808.04	26781
808.182	26929
808.324	26845
808.465	27024
808.607	27176
808.749	27184
808.891	27359
809.033	27378
809.174	27340
809.316	27317
809.458	27367
809.6	27195
809.741	27397
809.883	27401
810.025	27545
810.166	27542
810.308	27610
810.45	27610
810.591	27530
810.733	27401
810.875	27268
811.016	27245
811.158	27176
811.299	27462
811.441	27291
811.582	27481
811.724	27329
811.865	27173
812.007	27321
812.148	27386
812.29	27306
812.431	27393
812.573	27717
812.714	27652
812.855	27770
812.997	27876
813.138	27926
813.279	27861
813.421	27838
813.562	27652
813.703	27671
813.845	27435
813.986	27074
814.127	27017
814.268	26834
814.41	27093
814.551	26788
814.692	26887
814.833	26891
814.974	26937
815.115	27043
815.256	26670
815.397	26746
815.539	26762
815.68	26655
815.821	26724
815.962	26815
816.103	26773
816.244	26499
816.385	26533
816.526	26419
816.666	26259
816.807	26191
816.948	26218
817.089	26259
817.23	26195
817.371	26164
817.512	26180
817.653	26077
817.793	26088
817.934	26180
818.075	26183
818.216	26187
818.356	26035
818.497	26081
818.638	25871
818.778	25780
818.919	25925
819.06	25894
819.2	26088
819.341	26199
819.481	26081
819.622	26298
819.762	26514
819.903	26309
820.043	26347
820.184	26206
820.324	26248
820.465	26408
820.605	26313
820.746	26107
820.886	26145
821.026	26366
821.167	26210
821.307	26271
821.447	26172
821.588	26065
821.728	25921
821.868	25898
822.008	25712
822.149	25647
822.289	25731
822.429	25472
822.569	25369
822.709	25384
822.849	25095
822.99	25228
823.13	25148
823.27	25190
823.41	24943
823.55	24863
823.69	25061
823.83	24985
823.97	24905
824.11	24779
824.25	24798
824.389	24837
824.529	24878
824.669	24856
824.809	24935
824.949	24916
825.089	25012
825.228	24878
825.368	24738
825.508	24658
825.648	24730
825.787	24730
825.927	24684
826.067	24589
826.206	24707
826.346	24722
826.485	24837
826.625	24753
826.765	24848
826.904	24646
827.044	24544
827.183	24498
827.323	24376
827.462	24494
827.601	24399
827.741	24452
827.88	24437
828.02	24296
828.159	24380
828.298	24483
828.437	24418
828.577	24315
828.716	24528
828.855	24315
828.994	24224
829.134	24098
829.273	24064
829.412	24003
829.551	24041
829.69	24178
829.829	24072
829.968	24277
830.107	24247
830.246	24125
830.385	24182
830.524	24087
830.663	23916
830.802	23859
830.941	23748
831.08	23642
831.219	23946
831.357	23897
831.496	23916
831.635	23752
831.774	23733
831.913	23551
832.051	23577
832.19	23608
832.329	23497
832.467	23455
832.606	23334
832.744	23455
832.883	23566
833.022	23315
833.16	23353
833.299	23505
833.437	23547
833.576	23467
833.714	23547
833.852	23493
833.991	23596
834.129	23676
834.267	23531
834.406	23505
834.544	23425
834.682	23391
834.821	23558
834.959	23710
835.097	23501
835.235	23421
835.373	23524
835.511	23543
835.65	23292
835.788	23303
835.926	23124
836.064	23189
836.202	23143
836.34	23322
836.478	23303
836.615	23322
836.753	23330
836.891	23467
837.029	23345
837.167	23136
837.305	23239
837.443	23159
837.58	23231
837.718	23250
837.856	23193
837.993	23067
838.131	23204
838.269	23064
838.406	23121
838.544	23067
838.681	22961
838.819	22839
838.956	22748
839.094	22626
839.231	22797
839.369	22938
839.506	23254
839.643	23048
839.781	22577
839.918	22615
840.055	22763
840.193	22649
840.33	22596
840.467	22577
840.604	22767
840.742	22885
840.879	22478
841.016	22489
841.153	22497
841.29	22740
841.427	22546
841.564	22500
841.701	22580
841.838	22592
841.975	22489
842.112	22500
842.249	22516
842.385	22409
842.522	22508
842.659	22432
842.796	22306
842.933	22234
843.069	22325
843.206	22295
843.343	22561
843.479	22344
843.616	22348
843.752	22154
843.889	22242
844.025	22363
844.162	22173
844.298	22367
844.435	22116
844.571	22040
844.708	22249
844.844	22382
844.98	22261
845.117	22246
845.253	22074
845.389	22093
845.525	22082
845.661	21987
845.798	21907
845.934	21930
846.07	21835
846.206	21857
846.342	22013
846.478	21857
846.614	21755
846.75	21648
846.886	21591
847.022	21694
847.158	21622
847.294	21701
847.429	21698
847.565	21641
847.701	21930
847.837	21332
847.972	21325
848.108	21488
848.244	21401
848.379	21294
848.515	21123
848.65	21066
848.786	21222
848.921	21165
849.057	21256
849.192	21310
849.328	21169
849.463	21344
849.598	21165
849.734	21096
849.869	21017
850.004	21036
850.14	20975
850.275	21043
850.41	20914
850.545	20914
850.68	21032
850.815	20952
850.95	20971
851.085	21085
851.22	21047
851.355	20960
851.49	20899
851.625	20937
851.76	20906
851.895	20872
852.03	20921
852.165	20876
852.299	20914
852.434	21043
852.569	21028
852.703	20910
852.838	21089
852.973	21112
853.107	20967
853.242	20880
853.376	20792
853.511	20712
853.645	20777
853.78	20891
853.914	20838
854.048	20689
854.183	20838
854.317	20765
854.451	20986
854.585	20823
854.72	20735
854.854	20941
854.988	20823
855.122	20750
855.256	20625
855.39	20777
855.524	20853
855.658	20853
855.792	20773
855.926	20785
856.06	20811
856.194	20857
856.327	20765
856.461	20743
856.595	20724
856.729	20769
856.862	20792
856.996	20834
857.13	20769
857.263	20906
857.397	20876
857.53	20777
857.664	20758
857.797	20895
857.931	20986
858.064	20792
858.197	20880
858.331	20838
858.464	20788
858.597	20678
858.731	20769
858.864	20864
858.997	20746
859.13	20883
859.263	20857
859.396	20876
859.529	20834
859.662	20720
859.795	20701
859.928	20705
860.061	20891
860.194	21241
860.327	20956
860.46	20785
860.592	20807
860.725	21001
860.858	21001
860.99	20823
861.123	20644
861.256	20716
861.388	20887
861.521	21561
861.653	20621
861.786	20583
861.918	20640
862.05	20674
862.183	20773
862.315	20716
862.447	20804
862.58	20765
862.712	20602
862.844	20469
862.976	20670
863.108	20613
863.24	20883
863.372	20564
863.504	20514
863.636	20530
863.768	20617
863.9	20602
864.032	20305
864.164	20434
864.296	20526
864.428	20651
864.559	20587
864.691	20537
864.823	20598
864.954	20522
865.086	20408
865.217	20465
865.349	20408
865.48	20590
865.612	20393
865.743	20533
865.875	20434
866.006	20419
866.137	20454
866.269	20400
866.4	20408
866.531	20412
866.662	20286
866.793	20362
866.924	20393
867.055	20343
867.186	20374
867.317	20465
867.448	20202
867.579	20404
867.71	20256
867.841	20377
867.972	20328
868.103	20256
868.233	20400
868.364	20412
868.495	20541
868.625	20636
868.756	20686
868.886	20427
869.017	20560
869.147	20735
869.278	20686
869.408	20640
869.539	20526
869.669	20758
869.799	20568
869.929	20629
870.06	20674
870.19	20857
870.32	20731
870.45	20815
870.58	21020
870.71	21104
870.84	21013
870.97	21020
871.1	21085
871.23	21214
871.36	21150
871.489	21188
871.619	21142
871.749	21279
871.879	21245
872.008	21279
872.138	21096
872.267	21154
872.397	21009
872.526	20963
872.656	21017
872.785	21199
872.915	21310
873.044	21199
873.173	21165
873.303	21233
873.432	21272
873.561	21424
873.69	21222
873.819	21272
873.948	21340
874.077	21195
874.206	21157
874.335	21306
874.464	21401
874.593	21519
874.722	21408
874.851	21553
874.979	21500
875.108	21488
875.237	21431
875.365	21363
875.494	21523
875.623	21515
875.751	21340
875.88	21545
876.008	21507
876.136	21629
876.265	21918
876.393	21930
876.521	21918
876.65	21850
876.778	21850
876.906	21751
877.034	21850
877.162	21698
877.29	21850
877.418	21869
877.546	21930
877.674	21842
877.802	21831
877.93	21888
878.058	21682
878.185	21698
878.313	21743
878.441	21907
878.568	21656
878.696	21831
878.824	21789
878.951	21911
879.079	22032
879.206	22131
879.333	22067
879.461	21903
879.588	21827
879.715	22051
879.842	22166
879.97	21876
880.097	21694
880.224	21709
880.351	21732
880.478	21618
880.605	21583
880.732	21690
880.859	21934
880.986	21542
881.112	21743
881.239	21496
881.366	21355
881.493	21447
881.619	21233
881.746	21302
881.872	21188
881.999	21169
882.125	21218
882.252	21283
882.378	21233
882.505	21393
882.631	21096
882.757	20906
882.883	21093
883.01	20948
883.136	20925
883.262	20842
883.388	20811
883.514	20895
883.64	20929
883.766	20842
883.892	20636
884.018	20762
884.143	20914
884.269	20891
884.395	20686
884.52	20686
884.646	20602
884.772	20503
884.897	20503
885.023	20697
885.148	20739
885.274	20762
885.399	20594
885.524	20651
885.65	20583
885.775	20480
885.9	20533
886.025	20590
886.15	20609
886.275	20533
886.4	20526
886.525	20594
886.65	20556
886.775	20450
886.9	20674
887.025	20777
887.149	20590
887.274	20465
887.399	20244
887.523	20358
887.648	20313
887.773	20248
887.897	20389
888.021	20469
888.146	20282
888.27	20412
888.395	20324
888.519	20385
888.643	20275
888.767	20355
888.891	20252
889.015	20237
889.139	20183
889.263	20130
889.387	20267
889.511	20358
889.635	20377
889.759	20149
889.883	20069
890.006	20100
890.13	20164
890.254	20145
890.377	20012
890.501	19940
890.624	19871
890.748	19928
890.871	19784
890.995	19712
891.118	19670
891.241	19738
891.364	19655
891.488	19769
891.611	19693
891.734	19715
891.857	19784
891.98	19734
892.103	19632
892.226	19742
892.349	19556
892.471	19552
892.594	19658
892.717	19624
892.839	19677
892.962	19613
893.085	19746
893.207	19575
893.33	19540
893.452	19567
893.575	19807
893.697	19594
893.819	19715
893.941	19818
894.064	19856
894.186	19662
894.308	19491
894.43	19845
894.552	19693
894.674	19696
894.796	19525
894.918	19662
895.04	19677
895.161	19712
895.283	19833
895.405	19502
895.526	19696
895.648	19681
895.769	19651
895.891	19655
896.012	19772
896.134	19693
896.255	19746
896.376	19533
896.498	19731
896.619	19651
896.74	19712
896.861	19696
896.982	19951
897.103	20142
897.224	19906
897.345	19959
897.466	19841
897.587	19837
897.708	19970
897.828	19830
897.949	19772
898.07	19685
898.19	19830
898.311	19852
898.431	19826
898.552	19879
898.672	19902
898.792	20039
898.913	19890
899.033	19830
899.153	19719
899.273	19540
899.393	19544
899.513	19582
899.633	19597
899.753	19715
899.873	19506
899.993	19552
900.113	19639
900.232	19613
900.352	19620
900.472	19346
900.591	19434
900.711	19343
900.83	19346
900.95	19540
901.069	19449
901.189	19304
901.308	19038
901.427	18970
901.546	18962
901.665	18901
901.784	18993
901.904	18939
902.023	18806
902.141	18570
902.26	18532
902.379	18563
902.498	18498
902.617	18490
902.735	18585
902.854	18334
902.973	18433
903.091	18224
903.21	18239
903.328	18194
903.446	18114
903.565	18079
903.683	18015
903.801	17798
903.919	17935
904.038	17923
904.156	17817
904.274	17935
904.392	17752
904.51	17821
904.627	17729
904.745	17805
904.863	17809
904.981	17551
905.098	17467
905.216	17353
905.334	17429
905.451	17406
905.569	17353
905.686	17459
905.803	17436
905.921	17231
906.038	17372
906.155	17235
906.272	17140
906.389	17159
906.506	17010
906.623	16976
906.74	16980
906.857	16831
906.974	16908
907.091	17037
907.208	17159
907.324	17029
907.441	16866
907.557	16847
907.674	16656
907.79	16683
907.907	16793
908.023	16702
908.139	16702
908.256	16710
908.372	16668
908.488	16550
908.604	16466
908.72	16402
908.836	16497
908.952	16440
909.068	16447
909.184	16459
909.3	16462
909.415	16417
909.531	16371
909.647	16207
909.762	16188
909.878	16105
909.993	16128
910.108	16112
910.224	16097
910.339	16109
910.454	16086
910.57	15945
910.685	15941
910.8	16166
910.915	16109
911.03	15994
911.145	15816
911.259	15709
911.374	15717
911.489	15701
911.604	15724
911.718	15469
911.833	15625
911.947	15397
912.062	15336
912.176	15405
912.291	15519
912.405	15519
912.519	15679
912.633	15793
912.748	15523
912.862	15454
912.976	15332
913.09	15252
913.204	15302
913.318	15268
913.431	15439
913.545	15405
913.659	15386
913.772	15287
913.886	15230
914	15070
914.113	15203
914.226	15214
914.34	15169
914.453	14921
914.566	15127
914.68	15005
914.793	15043
914.906	14743
915.019	14689
915.132	14697
915.245	14739
915.358	14739
915.47	14693
915.583	14651
915.696	14777
915.809	14883
915.921	14891
916.034	14678
916.146	14613
916.259	14636
916.371	14686
916.483	14712
916.595	14549
916.708	14533
916.82	14556
916.932	14503
917.044	14461
917.156	14499
917.268	14336
917.38	14450
917.491	14267
917.603	14393
917.715	14495
917.826	14473
917.938	14320
918.049	14282
918.161	14389
918.272	14465
918.384	14461
918.495	14324
918.606	14218
918.717	14153
918.828	14221
918.939	14229
919.05	13997
919.161	14191
919.272	13928
919.383	14062
919.494	14240
919.604	14438
919.715	14187
919.826	14077
919.936	14103
920.047	14233
920.157	14065
920.267	14263
920.378	14145
920.488	14145
920.598	14301
920.708	14495
920.818	14294
920.928	14252
921.038	14404
921.148	14347
921.258	14157
921.368	14069
921.477	13822
921.587	13841
921.697	13780
921.806	13814
921.916	13685
922.025	13556
922.134	13529
922.244	13453
922.353	13521
922.462	13396
922.571	13369
922.68	13194
922.789	13202
922.898	13160
923.007	13031
923.116	13118
923.224	13213
923.333	13110
923.442	13084
923.55	13069
923.659	13015
923.767	13015
923.876	12924
923.984	13076
924.092	12882
924.201	13004
924.309	12954
924.417	12943
924.525	12905
924.633	12856
924.741	13582
924.849	12738
924.956	12722
925.064	12589
925.172	12601
925.279	12578
925.387	12711
925.494	12589
925.602	12764
925.709	12650
925.816	12509
925.924	12506
926.031	12631
926.138	12563
926.245	12582
926.352	12483
926.459	12601
926.566	12604
926.673	12517
926.779	12346
926.886	12361
926.993	12254
927.099	12258
927.206	12098
927.312	12064
927.419	12178
927.525	12175
927.631	12254
927.737	12163
927.843	12053
927.95	11916
928.056	12038
928.162	12022
928.267	12110
928.373	12540
928.479	12079
928.585	11828
928.69	11965
928.796	12091
928.901	11912
929.007	11729
929.112	11893
929.218	11821
929.323	11767
929.428	11794
929.533	11939
929.638	11760
929.743	11619
929.848	11752
929.953	11688
930.058	11623
930.163	11433
930.267	11497
930.372	11600
930.477	11387
930.581	11676
930.685	11471
930.79	11326
930.894	11341
930.998	11258
931.103	11452
931.207	11132
931.311	11041
931.415	10946
931.519	10812
931.623	10748
