Data from test_V78500241_2962.txt Node
Date: Fri Mar 25 15:30:29 CST 2022
User: usil
Spectrometer: V785-0024
Trigger mode: 0
Integration Time (sec): 4.000000E-1
Scans to average: 1
Nonlinearity correction enabled: false
Boxcar width: 0
Storing dark spectrum: false
XAxis mode: Wavelengths
Number of Pixels in Spectrum: 1024
>>>>>Begin Spectral Data<<<<<
801.071	27230
801.214	26883
801.356	26925
801.499	26842
801.641	26568
801.783	26590
801.926	26731
802.068	26629
802.211	26648
802.353	26571
802.496	26412
802.638	26229
802.78	26336
802.923	26050
803.065	26183
803.208	26218
803.35	26164
803.492	26393
803.635	26419
803.777	26412
803.919	26347
804.061	26712
804.204	26442
804.346	26305
804.488	26370
804.63	26461
804.773	26309
804.915	26358
805.057	26484
805.199	26393
805.341	26514
805.483	26560
805.626	26564
805.768	26492
805.91	26629
806.052	26636
806.194	26556
806.336	26739
806.478	26537
806.62	26453
806.762	26682
806.904	26762
807.046	27039
807.188	26826
807.33	26872
807.472	26998
807.614	26830
807.756	26902
807.898	26838
808.04	26746
808.182	26731
808.324	26834
808.465	26883
808.607	27032
808.749	27131
808.891	27135
809.033	27302
809.174	27135
809.316	27161
809.458	27108
809.6	27058
809.741	27184
809.883	27180
810.025	27412
810.166	27355
810.308	27473
810.45	27367
810.591	27241
810.733	27203
810.875	27100
811.016	27013
811.158	27043
811.299	27127
811.441	27291
811.582	27325
811.724	27138
811.865	27119
812.007	26998
812.148	27074
812.29	27161
812.431	27279
812.573	27287
812.714	27523
812.855	27675
812.997	27587
813.138	27804
813.279	27709
813.421	27564
813.562	27557
813.703	27367
813.845	27401
813.986	27009
814.127	26777
814.268	26667
814.41	26853
814.551	26629
814.692	26804
814.833	26701
814.974	26754
815.115	26636
815.256	26640
815.397	26659
815.539	26606
815.68	26560
815.821	26480
815.962	26492
816.103	26495
816.244	26324
816.385	26385
816.526	26221
816.666	26058
816.807	26161
816.948	26065
817.089	26107
817.23	26050
817.371	26122
817.512	25959
817.653	25902
817.793	25959
817.934	26043
818.075	26031
818.216	26100
818.356	25978
818.497	25818
818.638	25647
818.778	25826
818.919	25757
819.06	25833
819.2	25993
819.341	25986
819.481	26084
819.622	26149
819.762	26336
819.903	26271
820.043	26244
820.184	26149
820.324	26065
820.465	26191
820.605	26202
820.746	26012
820.886	25928
821.026	26031
821.167	26088
821.307	26138
821.447	26039
821.588	25849
821.728	25765
821.868	25559
822.008	25582
822.149	25445
822.289	25449
822.429	25285
822.569	25244
822.709	25095
822.849	25019
822.99	24962
823.13	25004
823.27	24935
823.41	24764
823.55	24627
823.69	24791
823.83	24707
823.97	24734
824.11	24566
824.25	24540
824.389	24475
824.529	24505
824.669	24547
824.809	24722
824.949	24700
825.089	24677
825.228	24536
825.368	24475
825.508	24456
825.648	24547
825.787	24429
825.927	24448
826.067	24414
826.206	24448
826.346	24448
826.485	24479
826.625	24467
826.765	24502
826.904	24517
827.044	24266
827.183	24152
827.323	24159
827.462	24155
827.601	24110
827.741	24125
827.88	24144
828.02	24022
828.159	24117
828.298	24060
828.437	24228
828.577	24049
828.716	24247
828.855	24003
828.994	23805
829.134	23996
829.273	24026
829.412	23691
829.551	23866
829.69	23859
829.829	23965
829.968	23923
830.107	23935
830.246	23878
830.385	23756
830.524	23646
830.663	23729
830.802	23668
830.941	23429
831.08	23452
831.219	23429
831.357	23547
831.496	23737
831.635	23436
831.774	23452
831.913	23341
832.051	23299
832.19	23288
832.329	23246
832.467	23090
832.606	23105
832.744	23121
832.883	23056
833.022	23029
833.16	23071
833.299	23132
833.437	23136
833.576	23109
833.714	23200
833.852	23185
833.991	23292
834.129	23315
834.267	23277
834.406	23227
834.544	23322
834.682	23254
834.821	23147
834.959	23387
835.097	23181
835.235	23197
835.373	23143
835.511	23136
835.65	23124
835.788	23003
835.926	22919
836.064	22801
836.202	22900
836.34	23083
836.478	23140
836.615	22984
836.753	23094
836.891	23064
837.029	23064
837.167	22995
837.305	22961
837.443	22866
837.58	22900
837.718	22923
837.856	22946
837.993	22858
838.131	22869
838.269	22706
838.406	22782
838.544	22706
838.681	22550
838.819	22577
838.956	22466
839.094	22428
839.231	22382
839.369	22580
839.506	22767
839.643	22535
839.781	22352
839.918	22337
840.055	22325
840.193	22348
840.33	22238
840.467	22234
840.604	22337
840.742	22512
840.879	22128
841.016	22268
841.153	22223
841.29	22428
841.427	22268
841.564	22306
841.701	22230
841.838	22261
841.975	22143
842.112	22150
842.249	22139
842.385	22147
842.522	22284
842.659	22074
842.796	22029
842.933	22002
843.069	22086
843.206	22002
843.343	22032
843.479	21994
843.616	22029
843.752	21812
843.889	21705
844.025	22036
844.162	21854
844.298	21873
844.435	21789
844.571	21759
844.708	21808
844.844	22006
844.98	21998
845.117	21994
845.253	21759
845.389	21728
845.525	21694
845.661	21648
845.798	21507
845.934	21629
846.07	21553
846.206	21576
846.342	21679
846.478	21443
846.614	21340
846.75	21348
846.886	21283
847.022	21310
847.158	21165
847.294	21367
847.429	21279
847.565	21237
847.701	21545
847.837	20952
847.972	20998
848.108	21066
848.244	21028
848.379	20853
848.515	20929
848.65	20891
848.786	20880
848.921	20883
849.057	20956
849.192	20891
849.328	20845
849.463	20845
849.598	20807
849.734	20750
849.869	20765
850.004	20655
850.14	20648
850.275	20594
850.41	20640
850.545	20632
850.68	20621
850.815	20640
850.95	20579
851.085	20929
851.22	20781
851.355	20636
851.49	20621
851.625	20621
851.76	20636
851.895	20518
852.03	20545
852.165	20663
852.299	20625
852.434	20765
852.569	20644
852.703	20663
852.838	20750
852.973	20701
853.107	20750
853.242	20552
853.376	20450
853.511	20381
853.645	20438
853.78	20518
853.914	20419
854.048	20476
854.183	20495
854.317	20393
854.451	20754
854.585	20503
854.72	20476
854.854	20541
854.988	20412
855.122	20377
855.256	20347
855.39	20434
855.524	20575
855.658	20476
855.792	20412
855.926	20606
856.06	20533
856.194	20537
856.327	20511
856.461	20438
856.595	20374
856.729	20465
856.862	20598
856.996	20461
857.13	20541
857.263	20587
857.397	20492
857.53	20450
857.664	20492
857.797	20446
857.931	20606
858.064	20537
858.197	20503
858.331	20457
858.464	20431
858.597	20282
858.731	20492
858.864	20385
858.997	20446
859.13	20473
859.263	20476
859.396	20514
859.529	20450
859.662	20438
859.795	20484
859.928	20431
860.061	20579
860.194	20739
860.327	20537
860.46	20393
860.592	20602
860.725	20613
860.858	20533
860.99	20503
861.123	20358
861.256	20366
861.388	20507
861.521	21039
861.653	20195
861.786	20256
861.918	20476
862.05	20400
862.183	20305
862.315	20328
862.447	20431
862.58	20431
862.712	20210
862.844	20157
862.976	20229
863.108	20244
863.24	20629
863.372	20069
863.504	20180
863.636	20157
863.768	20347
863.9	20153
864.032	20111
864.164	20134
864.296	20134
864.428	20259
864.559	20153
864.691	20199
864.823	20142
864.954	20142
865.086	20039
865.217	20176
865.349	20069
865.48	20092
865.612	20119
865.743	20142
865.875	20206
866.006	19955
866.137	20214
866.269	20096
866.4	19921
866.531	19955
866.662	20043
866.793	20035
866.924	19921
867.055	20191
867.186	20024
867.317	20008
867.448	19951
867.579	19955
867.71	19879
867.841	19982
867.972	20001
868.103	20005
868.233	19989
868.364	20088
868.495	20115
868.625	20290
868.756	20396
868.886	20252
869.017	20202
869.147	20374
869.278	20271
869.408	20252
869.539	20259
869.669	20362
869.799	20332
869.929	20446
870.06	20358
870.19	20473
870.32	20389
870.45	20712
870.58	20648
870.71	20758
870.84	20804
870.97	20541
871.1	20670
871.23	20785
871.36	20750
871.489	20727
871.619	20807
871.749	20872
871.879	20876
872.008	21001
872.138	20811
872.267	20902
872.397	20678
872.526	20724
872.656	20739
872.785	20682
872.915	20891
873.044	20975
873.173	20925
873.303	20933
873.432	20861
873.561	20921
873.69	20895
873.819	20792
873.948	20933
874.077	20906
874.206	20899
874.335	20845
874.464	20963
874.593	21233
874.722	20986
874.851	21180
874.979	21119
875.108	21180
875.237	21154
875.365	21047
875.494	21058
875.623	21165
875.751	21131
875.88	21169
876.008	21214
876.136	21325
876.265	21496
876.393	21656
876.521	21648
876.65	21728
876.778	21500
876.906	21412
877.034	21538
877.162	21500
877.29	21454
877.418	21500
877.546	21526
877.674	21561
877.802	21443
877.93	21447
878.058	21439
878.185	21268
878.313	21443
878.441	21431
878.568	21405
878.696	21412
878.824	21580
878.951	21576
879.079	21698
879.206	21781
879.333	21739
879.461	21504
879.588	21648
879.715	21713
879.842	21751
879.97	21591
880.097	21348
880.224	21370
880.351	21317
880.478	21313
880.605	21287
880.732	21321
880.859	21542
880.986	21359
881.112	21382
881.239	21096
881.366	21001
881.493	20994
881.619	20979
881.746	20880
881.872	20887
881.999	20842
882.125	20811
882.252	20830
882.378	20887
882.505	21036
882.631	20773
882.757	20708
882.883	20689
883.01	20663
883.136	20648
883.262	20514
883.388	20434
883.514	20587
883.64	20663
883.766	20609
883.892	20328
884.018	20434
884.143	20492
884.269	20571
884.395	20294
884.52	20206
884.646	20294
884.772	20149
884.897	20157
885.023	20404
885.148	20320
885.274	20385
885.399	20282
885.524	20259
885.65	20294
885.775	20412
885.9	20107
886.025	20389
886.15	20393
886.275	20237
886.4	20187
886.525	20313
886.65	20229
886.775	20062
886.9	20389
887.025	20412
887.149	20267
887.274	20130
887.399	19993
887.523	20100
887.648	20119
887.773	20016
887.897	20069
888.021	20134
888.146	20043
888.27	20145
888.395	20187
888.519	20119
888.643	20111
888.767	20092
888.891	19849
889.015	19860
889.139	19925
889.263	19788
889.387	19955
889.511	19978
889.635	19902
889.759	19852
889.883	19833
890.006	19883
890.13	19940
890.254	19757
890.377	19742
890.501	19544
890.624	19506
890.748	19791
890.871	19514
890.995	19403
891.118	19403
891.241	19457
891.364	19521
891.488	19491
891.611	19441
891.734	19468
891.857	19518
891.98	19369
892.103	19563
892.226	19483
892.349	19297
892.471	19225
892.594	19289
892.717	19327
892.839	19278
892.962	19354
893.085	19415
893.207	19373
893.33	19213
893.452	19308
893.575	19346
893.697	19312
893.819	19514
893.941	19514
894.064	19525
894.186	19293
894.308	19145
894.43	19388
894.552	19518
894.674	19480
894.796	19381
894.918	19392
895.04	19297
895.161	19453
895.283	19388
895.405	19274
895.526	19426
895.648	19335
895.769	19369
895.891	19365
896.012	19407
896.134	19343
896.255	19430
896.376	19236
896.498	19377
896.619	19422
896.74	19289
896.861	19343
896.982	19647
897.103	19818
897.224	19666
897.345	19609
897.466	19552
897.587	19544
897.708	19666
897.828	19719
897.949	19575
898.07	19388
898.19	19514
898.311	19696
898.431	19533
898.552	19635
898.672	19708
898.792	19643
898.913	19548
899.033	19518
899.153	19377
899.273	19335
899.393	19362
899.513	19343
899.633	19388
899.753	19438
899.873	19213
899.993	19392
900.113	19354
900.232	19365
900.352	19346
900.472	19251
900.591	19190
900.711	19152
900.83	19164
900.95	19225
901.069	19327
901.189	18970
901.308	18871
901.427	18734
901.546	18776
901.665	18722
901.784	18806
901.904	18627
902.023	18597
902.141	18448
902.26	18300
902.379	18350
902.498	18334
902.617	18300
902.735	18289
902.854	18273
902.973	18190
903.091	18064
903.21	18038
903.328	17980
903.446	17973
903.565	17691
903.683	17745
903.801	17729
903.919	17752
904.038	17596
904.156	17543
904.274	17665
904.392	17592
904.51	17417
904.627	17463
904.745	17600
904.863	17539
904.981	17387
905.098	17216
905.216	17197
905.334	17254
905.451	17200
905.569	17242
905.686	17318
905.803	17105
905.921	17041
906.038	17056
906.155	17014
906.272	16908
906.389	16854
906.506	16683
906.623	16835
906.74	16710
906.857	16637
906.974	16554
907.091	16824
907.208	16782
907.324	16683
907.441	16641
907.557	16588
907.674	16512
907.79	16318
907.907	16375
908.023	16462
908.139	16462
908.256	16459
908.372	16424
908.488	16314
908.604	16207
908.72	16082
908.836	16234
908.952	16131
909.068	16135
909.184	16253
909.3	16131
909.415	16116
909.531	16169
909.647	15953
909.762	15888
909.878	15930
909.993	15911
910.108	15808
910.224	15876
910.339	15930
910.454	15755
910.57	15599
910.685	15576
910.8	15975
910.915	15869
911.03	15816
911.145	15507
911.259	15473
911.374	15424
911.489	15355
911.604	15348
911.718	15367
911.833	15321
911.947	15176
912.062	15104
912.176	15321
912.291	15306
912.405	15275
912.519	15496
912.633	15561
912.748	15321
912.862	15123
912.976	15074
913.09	14990
913.204	15047
913.318	15039
913.431	15199
913.545	15192
913.659	15070
913.772	15055
913.886	14891
914	14830
914.113	14872
914.226	15039
914.34	14948
914.453	14750
914.566	14868
914.68	14883
914.793	14644
914.906	14560
915.019	14412
915.132	14488
915.245	14473
915.358	14549
915.47	14568
915.583	14484
915.696	14613
915.809	14689
915.921	14522
916.034	14484
916.146	14389
916.259	14454
916.371	14457
916.483	14518
916.595	14305
916.708	14427
916.82	14336
916.932	14278
917.044	14278
917.156	14374
917.268	14153
917.38	14164
917.491	14206
917.603	14176
917.715	14183
917.826	14324
917.938	14164
918.049	14081
918.161	14134
918.272	14351
918.384	14248
918.495	14168
918.606	13932
918.717	13932
918.828	13974
918.939	14050
919.05	13837
919.161	13868
919.272	13765
919.383	13841
919.494	14024
919.604	14054
919.715	13989
919.826	13818
919.936	13871
920.047	14008
920.157	13875
920.267	14073
920.378	14031
920.488	13925
920.598	14119
920.708	14218
920.818	14046
920.928	14111
921.038	14142
921.148	14210
921.258	13909
921.368	13852
921.477	13761
921.587	13662
921.697	13518
921.806	13662
921.916	13540
922.025	13422
922.134	13247
922.244	13259
922.353	13362
922.462	13202
922.571	13164
922.68	13004
922.789	12935
922.898	13015
923.007	12989
923.116	12981
923.224	13019
923.333	12909
923.442	12806
923.55	12859
923.659	12890
923.767	12840
923.876	12779
923.984	12833
924.092	12730
924.201	12692
924.309	12791
924.417	12684
924.525	12642
924.633	12688
924.741	13327
924.849	12445
924.956	12650
925.064	12513
925.172	12414
925.279	12437
925.387	12441
925.494	12429
925.602	12536
925.709	12445
925.816	12422
925.924	12407
926.031	12448
926.138	12380
926.245	12414
926.352	12258
926.459	12437
926.566	12445
926.673	12273
926.779	12144
926.886	12178
926.993	12057
927.099	12068
927.206	11988
927.312	11988
927.419	12114
927.525	11999
927.631	12114
927.737	11916
927.843	11901
927.95	11714
928.056	11794
928.162	11889
928.267	11946
928.373	12521
928.479	11859
928.585	11802
928.69	11813
928.796	11897
928.901	11684
929.007	11615
929.112	11809
929.218	11726
929.323	11676
929.428	11570
929.533	11703
929.638	11532
929.743	11554
929.848	11585
929.953	11573
930.058	11425
930.163	11288
930.267	11356
930.372	11455
930.477	11322
930.581	11566
930.685	11318
930.79	11265
930.894	11181
930.998	11193
931.103	11273
931.207	10877
931.311	10866
931.415	10854
931.519	10580
931.623	10569
