Data from test_V78500241_459.txt Node
Date: Fri Mar 25 15:13:03 CST 2022
User: usil
Spectrometer: V785-0024
Trigger mode: 0
Integration Time (sec): 4.000000E-1
Scans to average: 1
Nonlinearity correction enabled: false
Boxcar width: 0
Storing dark spectrum: false
XAxis mode: Wavelengths
Number of Pixels in Spectrum: 1024
>>>>>Begin Spectral Data<<<<<
801.071	27249
801.214	27321
801.356	27085
801.499	26807
801.641	26773
801.783	26948
801.926	26823
802.068	26765
802.211	26788
802.353	26716
802.496	26613
802.638	26552
802.78	26469
802.923	26461
803.065	26423
803.208	26408
803.35	26518
803.492	26549
803.635	26739
803.777	26530
803.919	26670
804.061	26853
804.204	26629
804.346	26632
804.488	26606
804.63	26663
804.773	26446
804.915	26583
805.057	26686
805.199	26701
805.341	26773
805.483	26823
805.626	26651
805.768	26644
805.91	26887
806.052	26754
806.194	26785
806.336	26872
806.478	26842
806.62	26765
806.762	26880
806.904	27070
807.046	27302
807.188	27199
807.33	27081
807.472	27089
807.614	27066
807.756	27112
807.898	26990
808.04	27039
808.182	27032
808.324	26998
808.465	26979
808.607	27222
808.749	27389
808.891	27317
809.033	27545
809.174	27530
809.316	27393
809.458	27378
809.6	27351
809.741	27492
809.883	27564
810.025	27660
810.166	27534
810.308	27720
810.45	27473
810.591	27553
810.733	27416
810.875	27287
811.016	27302
811.158	27233
811.299	27340
811.441	27450
811.582	27587
811.724	27344
811.865	27336
812.007	27298
812.148	27291
812.29	27412
812.431	27485
812.573	27637
812.714	27785
812.855	27812
812.997	28010
813.138	28120
813.279	28063
813.421	27941
813.562	27884
813.703	27614
813.845	27629
813.986	27378
814.127	27138
814.268	27135
814.41	27104
814.551	26929
814.692	27058
814.833	27017
814.974	26861
815.115	27051
815.256	26948
815.397	26982
815.539	26826
815.68	26788
815.821	26743
815.962	26853
816.103	26800
816.244	26689
816.385	26488
816.526	26625
816.666	26396
816.807	26309
816.948	26400
817.089	26377
817.23	26396
817.371	26355
817.512	26446
817.653	26252
817.793	26320
817.934	26275
818.075	26282
818.216	26347
818.356	26362
818.497	26073
818.638	25890
818.778	26065
818.919	26138
819.06	26077
819.2	26107
819.341	26358
819.481	26248
819.622	26541
819.762	26632
819.903	26594
820.043	26495
820.184	26427
820.324	26355
820.465	26537
820.605	26461
820.746	26419
820.886	26259
821.026	26415
821.167	26385
821.307	26355
821.447	26286
821.588	26130
821.728	26119
821.868	25864
822.008	25852
822.149	25868
822.289	25731
822.429	25445
822.569	25460
822.709	25575
822.849	25266
822.99	25320
823.13	25206
823.27	25179
823.41	25278
823.55	24935
823.69	25046
823.83	25012
823.97	24932
824.11	24844
824.25	24951
824.389	24882
824.529	25027
824.669	24837
824.809	25065
824.949	24920
825.089	25027
825.228	24962
825.368	24753
825.508	24700
825.648	24764
825.787	24848
825.927	24886
826.067	24806
826.206	24829
826.346	24859
826.485	24833
826.625	24730
826.765	24901
826.904	24795
827.044	24608
827.183	24589
827.323	24407
827.462	24532
827.601	24559
827.741	24570
827.88	24498
828.02	24403
828.159	24369
828.298	24410
828.437	24555
828.577	24426
828.716	24505
828.855	24422
828.994	24213
829.134	24205
829.273	24327
829.412	24167
829.551	24152
829.69	24121
829.829	24159
829.968	24273
830.107	24277
830.246	24300
830.385	24125
830.524	24106
830.663	24022
830.802	23912
830.941	23851
831.08	23828
831.219	23939
831.357	23874
831.496	24015
831.635	23946
831.774	23665
831.913	23653
832.051	23657
832.19	23577
832.329	23684
832.467	23512
832.606	23429
832.744	23497
832.883	23516
833.022	23448
833.16	23490
833.299	23501
833.437	23455
833.576	23714
833.714	23585
833.852	23577
833.991	23653
834.129	23547
834.267	23634
834.406	23608
834.544	23634
834.682	23608
834.821	23512
834.959	23668
835.097	23486
835.235	23581
835.373	23566
835.511	23630
835.65	23414
835.788	23337
835.926	23303
836.064	23155
836.202	23178
836.34	23406
836.478	23372
836.615	23383
836.753	23425
836.891	23360
837.029	23334
837.167	23311
837.305	23269
837.443	23356
837.58	23193
837.718	23368
837.856	23254
837.993	23216
838.131	23193
838.269	23147
838.406	23200
838.544	23071
838.681	22949
838.819	22866
838.956	22664
839.094	22790
839.231	22816
839.369	23018
839.506	23064
839.643	22961
839.781	22634
839.918	22649
840.055	22710
840.193	22615
840.33	22656
840.467	22653
840.604	22649
840.742	23044
840.879	22481
841.016	22653
841.153	22672
841.29	22782
841.427	22694
841.564	22733
841.701	22641
841.838	22672
841.975	22546
842.112	22618
842.249	22436
842.385	22485
842.522	22630
842.659	22413
842.796	22421
842.933	22432
843.069	22493
843.206	22436
843.343	22554
843.479	22489
843.616	22432
843.752	22150
843.889	22105
844.025	22436
844.162	22166
844.298	22223
844.435	22131
844.571	22204
844.708	22261
844.844	22363
844.98	22276
845.117	22314
845.253	22169
845.389	22082
845.525	22063
845.661	22036
845.798	21831
845.934	21972
846.07	21819
846.206	22025
846.342	22051
846.478	21884
846.614	21800
846.75	21641
846.886	21542
847.022	21827
847.158	21667
847.294	21675
847.429	21709
847.565	21679
847.701	21968
847.837	21405
847.972	21393
848.108	21386
848.244	21511
848.379	21389
848.515	21279
848.65	21207
848.786	21321
848.921	21203
849.057	21351
849.192	21298
849.328	21252
849.463	21211
849.598	21192
849.734	21131
849.869	21009
850.004	21108
850.14	21058
850.275	21066
850.41	20925
850.545	20941
850.68	20944
850.815	21058
850.95	20994
851.085	21135
851.22	21157
851.355	21108
851.49	21055
851.625	21013
851.76	20963
851.895	20929
852.03	20823
852.165	21043
852.299	20982
852.434	21066
852.569	21119
852.703	21036
852.838	21055
852.973	21154
853.107	21165
853.242	21051
853.376	20883
853.511	20762
853.645	20948
853.78	20899
853.914	20853
854.048	20792
854.183	20902
854.317	20956
854.451	21062
854.585	20830
854.72	20785
854.854	20876
854.988	20625
855.122	20823
855.256	20693
855.39	20895
855.524	20918
855.658	20895
855.792	20910
855.926	20899
856.06	20842
856.194	21024
856.327	20864
856.461	20708
856.595	20743
856.729	20750
856.862	20834
856.996	20864
857.13	21005
857.263	20937
857.397	20944
857.53	20830
857.664	20910
857.797	20880
857.931	20986
858.064	20861
858.197	20937
858.331	20754
858.464	20880
858.597	20785
858.731	20868
858.864	20815
858.997	20842
859.13	20842
859.263	20819
859.396	20883
859.529	20872
859.662	20773
859.795	20701
859.928	20826
860.061	20918
860.194	20990
860.327	20876
860.46	20853
860.592	20937
860.725	21062
860.858	21032
860.99	20967
861.123	20815
861.256	20769
861.388	20849
861.521	21572
861.653	20663
861.786	20590
861.918	20655
862.05	20708
862.183	20819
862.315	20826
862.447	20819
862.58	20819
862.712	20579
862.844	20568
862.976	20598
863.108	20670
863.24	21070
863.372	20545
863.504	20556
863.636	20629
863.768	20659
863.9	20670
864.032	20442
864.164	20560
864.296	20606
864.428	20648
864.559	20727
864.691	20648
864.823	20625
864.954	20431
865.086	20526
865.217	20552
865.349	20412
865.48	20434
865.612	20442
865.743	20434
865.875	20469
866.006	20431
866.137	20461
866.269	20492
866.4	20480
866.531	20339
866.662	20320
866.793	20434
866.924	20362
867.055	20324
867.186	20522
867.317	20362
867.448	20454
867.579	20278
867.71	20225
867.841	20351
867.972	20362
868.103	20370
868.233	20377
868.364	20385
868.495	20530
868.625	20701
868.756	20777
868.886	20598
869.017	20625
869.147	20735
869.278	20590
869.408	20663
869.539	20629
869.669	20735
869.799	20727
869.929	20701
870.06	20689
870.19	20982
870.32	20853
870.45	21036
870.58	21043
870.71	21222
870.84	21108
870.97	20956
871.1	21013
871.23	21230
871.36	21283
871.489	21066
871.619	21135
871.749	21279
871.879	21233
872.008	21332
872.138	21154
872.267	21291
872.397	21096
872.526	21066
872.656	21104
872.785	21020
872.915	21230
873.044	21291
873.173	21218
873.303	21279
873.432	21462
873.561	21469
873.69	21264
873.819	21363
873.948	21389
874.077	21199
874.206	21207
874.335	21279
874.464	21344
874.593	21420
874.722	21374
874.851	21511
874.979	21473
875.108	21580
875.237	21443
875.365	21428
875.494	21557
875.623	21534
875.751	21587
875.88	21405
876.008	21542
876.136	21633
876.265	21922
876.393	21937
876.521	21964
876.65	21892
876.778	21968
876.906	21816
877.034	21831
877.162	21892
877.29	21732
877.418	21770
877.546	21903
877.674	21918
877.802	21949
877.93	21728
878.058	21827
878.185	21656
878.313	21827
878.441	21804
878.568	21698
878.696	21827
878.824	21861
878.951	22063
879.079	22010
879.206	22101
879.333	22013
879.461	21972
879.588	22116
879.715	21975
879.842	22192
879.97	21945
880.097	21694
880.224	21781
880.351	21698
880.478	21679
880.605	21637
880.732	21701
880.859	21876
880.986	21671
881.112	21717
881.239	21538
881.366	21450
881.493	21378
881.619	21329
881.746	21275
881.872	21195
881.999	21279
882.125	21123
882.252	21302
882.378	21226
882.505	21416
882.631	21119
882.757	20895
882.883	21096
883.01	21096
883.136	20883
883.262	20891
883.388	20762
883.514	20979
883.64	20998
883.766	20990
883.892	20640
884.018	20754
884.143	20910
884.269	21070
884.395	20651
884.52	20640
884.646	20549
884.772	20495
884.897	20511
885.023	20590
885.148	20697
885.274	20785
885.399	20629
885.524	20617
885.65	20667
885.775	20701
885.9	20530
886.025	20678
886.15	20606
886.275	20530
886.4	20446
886.525	20552
886.65	20511
886.775	20541
886.9	20655
887.025	20781
887.149	20617
887.274	20514
887.399	20252
887.523	20290
887.648	20355
887.773	20271
887.897	20446
888.021	20431
888.146	20381
888.27	20393
888.395	20381
888.519	20396
888.643	20396
888.767	20442
888.891	20256
889.015	20244
889.139	20298
889.263	20237
889.387	20313
889.511	20465
889.635	20282
889.759	20142
889.883	20107
890.006	20183
890.13	20324
890.254	20263
890.377	20138
890.501	19890
890.624	19887
890.748	19970
890.871	19833
890.995	19723
891.118	19708
891.241	19883
891.364	19761
891.488	19887
891.611	19662
891.734	19746
891.857	19849
891.98	19761
892.103	19837
892.226	19753
892.349	19772
892.471	19651
892.594	19609
892.717	19712
892.839	19571
892.962	19750
893.085	19681
893.207	19719
893.33	19571
893.452	19510
893.575	19704
893.697	19734
893.819	19814
893.941	19791
894.064	19738
894.186	19616
894.308	19635
894.43	19841
894.552	19841
894.674	19799
894.796	19597
894.918	19529
895.04	19544
895.161	19772
895.283	19643
895.405	19586
895.526	19700
895.648	19693
895.769	19719
895.891	19719
896.012	19761
896.134	19776
896.255	19738
896.376	19590
896.498	19624
896.619	19681
896.74	19658
896.861	19704
896.982	20062
897.103	19986
897.224	20050
897.345	19856
897.466	19845
897.587	19906
897.708	20065
897.828	20001
897.949	19887
898.07	19731
898.19	19837
898.311	19986
898.431	19909
898.552	19967
898.672	20024
898.792	20001
898.913	19883
899.033	19826
899.153	19719
899.273	19533
899.393	19578
899.513	19761
899.633	19674
899.753	19753
899.873	19601
899.993	19670
900.113	19658
900.232	19616
900.352	19464
900.472	19434
900.591	19460
900.711	19438
900.83	19430
900.95	19533
901.069	19483
901.189	19285
901.308	19072
901.427	19004
901.546	19084
901.665	19050
901.784	19168
901.904	18833
902.023	18856
902.141	18612
902.26	18597
902.379	18661
902.498	18551
902.617	18483
902.735	18494
902.854	18464
902.973	18441
903.091	18361
903.21	18216
903.328	18163
903.446	18205
903.565	17980
903.683	18015
903.801	17992
903.919	17954
904.038	17999
904.156	17859
904.274	17859
904.392	17790
904.51	17657
904.627	17790
904.745	17832
904.863	17802
904.981	17566
905.098	17551
905.216	17524
905.334	17429
905.451	17482
905.569	17429
905.686	17414
905.803	17383
905.921	17288
906.038	17444
906.155	17239
906.272	17132
906.389	17117
906.506	17041
906.623	16972
906.74	17033
906.857	16957
906.974	16976
907.091	17052
907.208	17174
907.324	17060
907.441	16934
907.557	16649
907.674	16752
907.79	16664
907.907	16691
908.023	16774
908.139	16850
908.256	16656
908.372	16599
908.488	16634
908.604	16519
908.72	16599
908.836	16367
908.952	16360
909.068	16523
909.184	16607
909.3	16481
909.415	16470
909.531	16493
909.647	16284
909.762	16135
909.878	16238
909.993	16185
910.108	16215
910.224	16139
910.339	16158
910.454	15960
910.57	15918
910.685	15854
910.8	16211
910.915	16192
911.03	16002
911.145	15789
911.259	15876
911.374	15743
911.489	15778
911.604	15538
911.718	15545
911.833	15492
911.947	15424
912.062	15294
912.176	15561
912.291	15526
912.405	15526
912.519	15675
912.633	15705
912.748	15641
912.862	15477
912.976	15408
913.09	15310
913.204	15233
913.318	15420
913.431	15424
913.545	15382
913.659	15500
913.772	15317
913.886	15146
914	15199
914.113	15154
914.226	15199
914.34	15260
914.453	15051
914.566	15146
914.68	15001
914.793	15024
914.906	14796
915.019	14819
915.132	14667
915.245	14845
915.358	14746
915.47	14712
915.583	14739
915.696	14842
915.809	14918
915.921	14902
916.034	14678
916.146	14682
916.259	14632
916.371	14804
916.483	14708
916.595	14594
916.708	14678
916.82	14533
916.932	14499
917.044	14594
917.156	14488
917.268	14450
917.38	14511
917.491	14415
917.603	14396
917.715	14514
917.826	14476
917.938	14427
918.049	14290
918.161	14400
918.272	14530
918.384	14495
918.495	14347
918.606	14199
918.717	14123
918.828	14240
918.939	14153
919.05	14134
919.161	14248
919.272	14008
919.383	14062
919.494	14282
919.604	14427
919.715	14237
919.826	14065
919.936	14176
920.047	14267
920.157	14157
920.267	14290
920.378	14191
920.488	14164
920.598	14313
920.708	14473
920.818	14412
920.928	14324
921.038	14473
921.148	14381
921.258	14069
921.368	14111
921.477	13997
921.587	13928
921.697	13750
921.806	13936
921.916	13685
922.025	13616
922.134	13571
922.244	13510
922.353	13601
922.462	13453
922.571	13411
922.68	13251
922.789	13213
922.898	13213
923.007	13110
923.116	13209
923.224	13217
923.333	13145
923.442	13065
923.55	13076
923.659	13012
923.767	13221
923.876	12947
923.984	13050
924.092	12886
924.201	12985
924.309	13031
924.417	12920
924.525	12875
924.633	12878
924.741	13849
924.849	12608
924.956	12768
925.064	12696
925.172	12623
925.279	12620
925.387	12768
925.494	12707
925.602	12787
925.709	12700
925.816	12555
925.924	12574
926.031	12745
926.138	12563
926.245	12635
926.352	12448
926.459	12585
926.566	12623
926.673	12490
926.779	12475
926.886	12369
926.993	12300
927.099	12254
927.206	12171
927.312	12136
927.419	12243
927.525	12262
927.631	12213
927.737	12152
927.843	12083
927.95	11977
928.056	12041
928.162	12083
928.267	12087
928.373	12764
928.479	12125
928.585	11942
928.69	11984
928.796	12057
928.901	11939
929.007	11779
929.112	11885
929.218	11836
929.323	11802
929.428	11783
929.533	11939
929.638	11786
929.743	11665
929.848	11756
929.953	11726
930.058	11684
930.163	11425
930.267	11356
930.372	11547
930.477	11505
930.581	11642
930.685	11497
930.79	11448
930.894	11414
930.998	11379
931.103	11459
931.207	11143
931.311	11037
931.415	10938
931.519	10847
931.623	10683
