Data from test_V78500241_1375.txt Node
Date: Fri Mar 25 15:19:25 CST 2022
User: usil
Spectrometer: V785-0024
Trigger mode: 0
Integration Time (sec): 4.000000E-1
Scans to average: 1
Nonlinearity correction enabled: false
Boxcar width: 0
Storing dark spectrum: false
XAxis mode: Wavelengths
Number of Pixels in Spectrum: 1024
>>>>>Begin Spectral Data<<<<<
801.071	28090
801.214	28143
801.356	27857
801.499	27800
801.641	27717
801.783	27610
801.926	27717
802.068	27667
802.211	27603
802.353	27488
802.496	27389
802.638	27504
802.78	27287
802.923	27230
803.065	27218
803.208	27237
803.35	27264
803.492	27348
803.635	27389
803.777	27447
803.919	27618
804.061	27854
804.204	27644
804.346	27469
804.488	27291
804.63	27545
804.773	27462
804.915	27515
805.057	27603
805.199	27568
805.341	27618
805.483	27633
805.626	27869
805.768	27625
805.91	27644
806.052	27641
806.194	27690
806.336	27755
806.478	27747
806.62	27785
806.762	27823
806.904	27869
807.046	28185
807.188	28207
807.33	28006
807.472	28242
807.614	28143
807.756	27987
807.898	28078
808.04	28002
808.182	28040
808.324	27998
808.465	28051
808.607	28109
808.749	28280
808.891	28348
809.033	28485
809.174	28356
809.316	28284
809.458	28459
809.6	28405
809.741	28508
809.883	28394
810.025	28611
810.166	28691
810.308	28694
810.45	28660
810.591	28611
810.733	28337
810.875	28181
811.016	28204
811.158	28295
811.299	28493
811.441	28466
811.582	28519
811.724	28295
811.865	28105
812.007	28386
812.148	28375
812.29	28478
812.431	28504
812.573	28618
812.714	28740
812.855	28938
812.997	28915
813.138	29162
813.279	28984
813.421	28915
813.562	28961
813.703	28634
813.845	28592
813.986	28421
814.127	28200
814.268	28109
814.41	28040
814.551	28086
814.692	28154
814.833	27949
814.974	28036
815.115	28051
815.256	27941
815.397	27998
815.539	27918
815.68	27869
815.821	27823
815.962	27876
816.103	27892
816.244	27732
816.385	27739
816.526	27580
816.666	27515
816.807	27469
816.948	27564
817.089	27443
817.23	27412
817.371	27397
817.512	27336
817.653	27363
817.793	27321
817.934	27374
818.075	27492
818.216	27355
818.356	27336
818.497	27157
818.638	27070
818.778	27039
818.919	27028
819.06	27150
819.2	27245
819.341	27298
819.481	27351
819.622	27511
819.762	27713
819.903	27591
820.043	27473
820.184	27614
820.324	27488
820.465	27561
820.605	27450
820.746	27477
820.886	27367
821.026	27340
821.167	27321
821.307	27424
821.447	27321
821.588	27283
821.728	27184
821.868	27085
822.008	26716
822.149	26811
822.289	26754
822.429	26609
822.569	26629
822.709	26453
822.849	26282
822.99	26275
823.13	26385
823.27	26248
823.41	26218
823.55	26069
823.69	26077
823.83	26111
823.97	26126
824.11	25940
824.25	25936
824.389	26054
824.529	25993
824.669	25993
824.809	26111
824.949	26180
825.089	26202
825.228	25955
825.368	25883
825.508	25894
825.648	25860
825.787	25814
825.927	25856
826.067	25814
826.206	25750
826.346	25898
826.485	26001
826.625	25689
826.765	25955
826.904	25814
827.044	25704
827.183	25643
827.323	25495
827.462	25616
827.601	25479
827.741	25567
827.88	25567
828.02	25422
828.159	25616
828.298	25567
828.437	25540
828.577	25426
828.716	25620
828.855	25434
828.994	25228
829.134	25308
829.273	25198
829.412	25285
829.551	25240
829.69	25232
829.829	25190
829.968	25282
830.107	25369
830.246	25206
830.385	25202
830.524	25190
830.663	25084
830.802	25027
830.941	24886
831.08	24882
831.219	24943
831.357	25160
831.496	25065
831.635	24829
831.774	24730
831.913	24696
832.051	24658
832.19	24627
832.329	24604
832.467	24597
832.606	24395
832.744	24578
832.883	24601
833.022	24528
833.16	24544
833.299	24532
833.437	24578
833.576	24525
833.714	24563
833.852	24692
833.991	24555
834.129	24589
834.267	24741
834.406	24540
834.544	24616
834.682	24642
834.821	24513
834.959	24776
835.097	24528
835.235	24620
835.373	24578
835.511	24578
835.65	24403
835.788	24505
835.926	24270
836.064	24190
836.202	24254
836.34	24475
836.478	24372
836.615	24315
836.753	24372
836.891	24414
837.029	24395
837.167	24460
837.305	24433
837.443	24243
837.58	24270
837.718	24262
837.856	24300
837.993	24304
838.131	24365
838.269	24144
838.406	24159
838.544	24045
838.681	23828
838.819	23965
838.956	23783
839.094	23783
839.231	23756
839.369	23961
839.506	24064
839.643	23965
839.781	23790
839.918	23687
840.055	23805
840.193	23764
840.33	23741
840.467	23703
840.604	23680
840.742	23840
840.879	23436
841.016	23341
841.153	23551
841.29	23783
841.427	23551
841.564	23695
841.701	23573
841.838	23562
841.975	23455
842.112	23573
842.249	23554
842.385	23341
842.522	23668
842.659	23452
842.796	23376
842.933	23341
843.069	23223
843.206	23292
843.343	23490
843.479	23395
843.616	23372
843.752	23132
843.889	23231
844.025	23288
844.162	23086
844.298	23174
844.435	23200
844.571	23132
844.708	23258
844.844	23376
844.98	23360
845.117	23269
845.253	23102
845.389	22938
845.525	23067
845.661	23067
845.798	22885
845.934	22976
846.07	22938
846.206	22877
846.342	22919
846.478	22854
846.614	22767
846.75	22656
846.886	22668
847.022	22733
847.158	22675
847.294	22721
847.429	22653
847.565	22641
847.701	22915
847.837	22371
847.972	22386
848.108	22424
848.244	22523
848.379	22223
848.515	22162
848.65	22272
848.786	22090
848.921	22234
849.057	22188
849.192	22356
849.328	22322
849.463	22215
849.598	22051
849.734	22185
849.869	22013
850.004	21998
850.14	22097
850.275	21987
850.41	21899
850.545	21934
850.68	21854
850.815	21911
850.95	21972
851.085	22158
851.22	21960
851.355	22040
851.49	22070
851.625	22010
851.76	21808
851.895	21831
852.03	21873
852.165	22002
852.299	22074
852.434	21899
852.569	21953
852.703	21892
852.838	21991
852.973	21994
853.107	21934
853.242	21876
853.376	21850
853.511	21728
853.645	21732
853.78	21819
853.914	21846
854.048	21816
854.183	21800
854.317	21793
854.451	21934
854.585	21812
854.72	21778
854.854	21838
854.988	21759
855.122	21732
855.256	21797
855.39	21785
855.524	21854
855.658	21884
855.792	21922
855.926	21835
856.06	21759
856.194	21964
856.327	21778
856.461	21755
856.595	21800
856.729	21785
856.862	21915
856.996	21778
857.13	21926
857.263	21838
857.397	21869
857.53	21842
857.664	21728
857.797	21842
857.931	21865
858.064	21873
858.197	21922
858.331	21766
858.464	21629
858.597	21622
858.731	21774
858.864	21679
858.997	21724
859.13	21679
859.263	21812
859.396	21755
859.529	21736
859.662	21823
859.795	21728
859.928	21846
860.061	21945
860.194	21991
860.327	21816
860.46	21781
860.592	21781
860.725	21895
860.858	21934
860.99	21778
861.123	21747
861.256	21648
861.388	21838
861.521	22363
861.653	21705
861.786	21515
861.918	21557
862.05	21568
862.183	21698
862.315	21679
862.447	21827
862.58	21781
862.712	21469
862.844	21370
862.976	21606
863.108	21549
863.24	21895
863.372	21393
863.504	21466
863.636	21610
863.768	21504
863.9	21500
864.032	21367
864.164	21386
864.296	21431
864.428	21644
864.559	21450
864.691	21564
864.823	21473
864.954	21393
865.086	21564
865.217	21355
865.349	21332
865.48	21389
865.612	21344
865.743	21530
865.875	21313
866.006	21370
866.137	21310
866.269	21355
866.4	21317
866.531	21256
866.662	21211
866.793	21256
866.924	21264
867.055	21386
867.186	21298
867.317	21249
867.448	21165
867.579	21340
867.71	21279
867.841	21150
867.972	21287
868.103	21279
868.233	21294
868.364	21405
868.495	21492
868.625	21545
868.756	21641
868.886	21530
869.017	21462
869.147	21652
869.278	21644
869.408	21660
869.539	21519
869.669	21622
869.799	21675
869.929	21709
870.06	21606
870.19	21774
870.32	21884
870.45	21812
870.58	21842
870.71	22021
870.84	22063
870.97	21915
871.1	21956
871.23	22154
871.36	22040
871.489	22013
871.619	22128
871.749	22143
871.879	22166
872.008	22147
872.138	22067
872.267	22150
872.397	21991
872.526	21991
872.656	22025
872.785	21983
872.915	22257
873.044	22112
873.173	22162
873.303	22135
873.432	22173
873.561	22379
873.69	22135
873.819	22154
873.948	22147
874.077	22059
874.206	22048
874.335	22169
874.464	22394
874.593	22405
874.722	22181
874.851	22466
874.979	22405
875.108	22367
875.237	22337
875.365	22306
875.494	22310
875.623	22386
875.751	22306
875.88	22303
876.008	22500
876.136	22500
876.265	22854
876.393	22862
876.521	22896
876.65	22839
876.778	22816
876.906	22759
877.034	22653
877.162	22618
877.29	22698
877.418	22729
877.546	22664
877.674	22790
877.802	22691
877.93	22653
878.058	22687
878.185	22725
878.313	22580
878.441	22611
878.568	22394
878.696	22565
878.824	22683
878.951	22683
879.079	22828
879.206	22995
879.333	22816
879.461	22694
879.588	22809
879.715	22847
879.842	22953
879.97	22725
880.097	22478
880.224	22424
880.351	22710
880.478	22432
880.605	22428
880.732	22535
880.859	22672
880.986	22405
881.112	22573
881.239	22436
881.366	22325
881.493	22253
881.619	22173
881.746	22154
881.872	22192
881.999	21991
882.125	21991
882.252	22036
882.378	22059
882.505	22265
882.631	22006
882.757	21797
882.883	21956
883.01	21728
883.136	21751
883.262	21641
883.388	21603
883.514	21694
883.64	21759
883.766	21717
883.892	21534
884.018	21652
884.143	21686
884.269	21774
884.395	21568
884.52	21439
884.646	21462
884.772	21458
884.897	21245
885.023	21351
885.148	21466
885.274	21492
885.399	21591
885.524	21473
885.65	21473
885.775	21431
885.9	21306
886.025	21435
886.15	21523
886.275	21195
886.4	21412
886.525	21336
886.65	21393
886.775	21325
886.9	21504
887.025	21610
887.149	21515
887.274	21291
887.399	21195
887.523	21165
887.648	21131
887.773	21062
887.897	21313
888.021	21230
888.146	21085
888.27	21252
888.395	21256
888.519	21272
888.643	21184
888.767	21169
888.891	21039
889.015	21154
889.139	21100
889.263	21020
889.387	21081
889.511	21203
889.635	21173
889.759	20876
889.883	21013
890.006	21047
890.13	21180
890.254	20895
890.377	20944
890.501	20716
890.624	20735
890.748	20811
890.871	20537
890.995	20674
891.118	20590
891.241	20583
891.364	20583
891.488	20625
891.611	20568
891.734	20598
891.857	20533
891.98	20412
892.103	20640
892.226	20545
892.349	20469
892.471	20370
892.594	20419
892.717	20507
892.839	20400
892.962	20511
893.085	20533
893.207	20362
893.33	20377
893.452	20313
893.575	20526
893.697	20309
893.819	20537
893.941	20590
894.064	20511
894.186	20480
894.308	20358
894.43	20488
894.552	20503
894.674	20587
894.796	20328
894.918	20511
895.04	20374
895.161	20518
895.283	20446
895.405	20358
895.526	20408
895.648	20366
895.769	20434
895.891	20476
896.012	20564
896.134	20415
896.255	20511
896.376	20377
896.498	20454
896.619	20434
896.74	20377
896.861	20434
896.982	20762
897.103	20880
897.224	20678
897.345	20701
897.466	20530
897.587	20716
897.708	20876
897.828	20602
897.949	20621
898.07	20434
898.19	20590
898.311	20720
898.431	20571
898.552	20587
898.672	20598
898.792	20632
898.913	20697
899.033	20465
899.153	20461
899.273	20336
899.393	20362
899.513	20343
899.633	20294
899.753	20442
899.873	20324
899.993	20476
900.113	20301
900.232	20339
900.352	20282
900.472	20309
900.591	20202
900.711	20263
900.83	20050
900.95	20275
901.069	20275
901.189	20145
901.308	19788
901.427	19613
901.546	19712
901.665	19731
901.784	19875
901.904	19613
902.023	19632
902.141	19304
902.26	19244
902.379	19225
902.498	19255
902.617	19084
902.735	19316
902.854	19270
902.973	19141
903.091	18977
903.21	18894
903.328	18954
903.446	18779
903.565	18715
903.683	18764
903.801	18646
903.919	18840
904.038	18661
904.156	18456
904.274	18513
904.392	18277
904.51	18486
904.627	18555
904.745	18517
904.863	18578
904.981	18273
905.098	18163
905.216	18152
905.334	18152
905.451	18174
905.569	18235
905.686	18277
905.803	18079
905.921	17870
906.038	18022
906.155	17977
906.272	17741
906.389	17893
906.506	17661
906.623	17703
906.74	17661
906.857	17566
906.974	17630
907.091	17802
907.208	17874
907.324	17707
907.441	17596
907.557	17395
907.674	17360
907.79	17433
907.907	17417
908.023	17501
908.139	17474
908.256	17307
908.372	17326
908.488	17307
908.604	17223
908.72	17105
908.836	17041
908.952	17037
909.068	17086
909.184	17261
909.3	17045
909.415	17193
909.531	17037
909.647	16980
909.762	16797
909.878	16721
909.993	16736
910.108	16854
910.224	16843
910.339	16778
910.454	16626
910.57	16565
910.685	16588
910.8	16889
910.915	16698
911.03	16607
911.145	16512
911.259	16455
911.374	16436
911.489	16417
911.604	16322
911.718	16101
911.833	16181
911.947	16051
912.062	16051
912.176	16120
912.291	16040
912.405	16147
912.519	16249
912.633	16341
912.748	16124
912.862	16078
912.976	15953
913.09	15854
913.204	15911
913.318	15934
913.431	16071
913.545	16048
913.659	15960
913.772	15937
913.886	15903
914	15766
914.113	15835
914.226	15854
914.34	15831
914.453	15663
914.566	15686
914.68	15591
914.793	15686
914.906	15458
915.019	15485
915.132	15214
915.245	15329
915.358	15393
915.47	15363
915.583	15313
915.696	15435
915.809	15523
915.921	15587
916.034	15344
916.146	15222
916.259	15192
916.371	15317
916.483	15245
916.595	15169
916.708	15279
916.82	15226
916.932	15108
917.044	15146
917.156	15203
917.268	14990
917.38	14971
917.491	14986
917.603	14967
917.715	15020
917.826	15043
917.938	14944
918.049	14838
918.161	14906
918.272	15070
918.384	15081
918.495	15028
918.606	14826
918.717	14758
918.828	14754
918.939	14720
919.05	14731
919.161	14727
919.272	14560
919.383	14701
919.494	14735
919.604	14887
919.715	14815
919.826	14663
919.936	14697
920.047	14777
920.157	14686
920.267	14853
920.378	14727
920.488	14556
920.598	14845
920.708	15024
920.818	14804
920.928	14872
921.038	15005
921.148	14933
921.258	14625
921.368	14663
921.477	14473
921.587	14377
921.697	14309
921.806	14419
921.916	14256
922.025	14176
922.134	14077
922.244	14107
922.353	14088
922.462	14001
922.571	13883
922.68	13761
922.789	13731
922.898	13704
923.007	13738
923.116	13780
923.224	13677
923.333	13734
923.442	13609
923.55	13639
923.659	13613
923.767	13712
923.876	13480
923.984	13609
924.092	13403
924.201	13483
924.309	13464
924.417	13438
924.525	13460
924.633	13441
924.741	14119
924.849	13126
924.956	13274
925.064	13247
925.172	13110
925.279	13129
925.387	13091
925.494	13187
925.602	13179
925.709	13168
925.816	13099
925.924	13061
926.031	13149
926.138	13057
926.245	13118
926.352	13050
926.459	13091
926.566	13145
926.673	13069
926.779	12810
926.886	12825
926.993	12787
927.099	12688
927.206	12681
927.312	12616
927.419	12711
927.525	12707
927.631	12627
927.737	12601
927.843	12490
927.95	12464
928.056	12490
928.162	12399
928.267	12597
928.373	13107
928.479	12623
928.585	12372
928.69	12471
928.796	12490
928.901	12399
929.007	12155
929.112	12365
929.218	12300
929.323	12235
929.428	12213
929.533	12323
929.638	12224
929.743	12243
929.848	12304
929.953	12220
930.058	12140
930.163	11882
930.267	11927
930.372	12019
930.477	11889
930.581	12102
930.685	11984
930.79	11851
930.894	11836
930.998	11859
931.103	11893
931.207	11516
931.311	11478
931.415	11452
931.519	11181
931.623	11261
