Data from test_V78500241_1587.txt Node
Date: Fri Mar 25 15:20:54 CST 2022
User: usil
Spectrometer: V785-0024
Trigger mode: 0
Integration Time (sec): 4.000000E-1
Scans to average: 1
Nonlinearity correction enabled: false
Boxcar width: 0
Storing dark spectrum: false
XAxis mode: Wavelengths
Number of Pixels in Spectrum: 1024
>>>>>Begin Spectral Data<<<<<
801.071	28021
801.214	27884
801.356	27739
801.499	27553
801.641	27477
801.783	27431
801.926	27469
802.068	27591
802.211	27477
802.353	27370
802.496	27184
802.638	27165
802.78	27104
802.923	27020
803.065	27131
803.208	27104
803.35	27165
803.492	27188
803.635	27424
803.777	27150
803.919	27389
804.061	27743
804.204	27397
804.346	27188
804.488	27359
804.63	27450
804.773	27135
804.915	27454
805.057	27507
805.199	27291
805.341	27359
805.483	27564
805.626	27431
805.768	27427
805.91	27336
806.052	27473
806.194	27462
806.336	27469
806.478	27424
806.62	27443
806.762	27473
806.904	27648
807.046	27930
807.188	27705
807.33	28082
807.472	27987
807.614	27728
807.756	27960
807.898	27648
808.04	27682
808.182	27724
808.324	27831
808.465	27781
808.607	28063
808.749	28128
808.891	28105
809.033	28333
809.174	28249
809.316	28013
809.458	28169
809.6	28196
809.741	28280
809.883	28268
810.025	28409
810.166	28394
810.308	28500
810.45	28432
810.591	28432
810.733	28112
810.875	28207
811.016	28067
811.158	27964
811.299	28070
811.441	28131
811.582	28333
811.724	28211
811.865	28150
812.007	28124
812.148	27991
812.29	28230
812.431	28280
812.573	28481
812.714	28531
812.855	28653
812.997	28900
813.138	28873
813.279	28805
813.421	28599
813.562	28755
813.703	28550
813.845	28432
813.986	28029
814.127	27953
814.268	27895
814.41	27816
814.551	27800
814.692	27956
814.833	27751
814.974	27827
815.115	27876
815.256	27679
815.397	27732
815.539	27713
815.68	27526
815.821	27751
815.962	27739
816.103	27629
816.244	27439
816.385	27454
816.526	27408
816.666	27249
816.807	27077
816.948	27051
817.089	27252
817.23	27051
817.371	27211
817.512	27032
817.653	27116
817.793	26887
817.934	26982
818.075	27184
818.216	27173
818.356	27081
818.497	27116
818.638	26796
818.778	26849
818.919	26887
819.06	27028
819.2	26967
819.341	27089
819.481	27116
819.622	27207
819.762	27591
819.903	27420
820.043	27473
820.184	27294
820.324	27176
820.465	27268
820.605	27245
820.746	27245
820.886	27036
821.026	27184
821.167	27199
821.307	27260
821.447	27077
821.588	27020
821.728	26781
821.868	26705
822.008	26507
822.149	26511
822.289	26632
822.429	26301
822.569	26290
822.709	26244
822.849	26119
822.99	26149
823.13	25986
823.27	26081
823.41	25883
823.55	25906
823.69	25917
823.83	26001
823.97	25807
824.11	25647
824.25	25700
824.389	25814
824.529	25814
824.669	25590
824.809	25860
824.949	25616
825.089	25746
825.228	25784
825.368	25514
825.508	25677
825.648	25738
825.787	25681
825.927	25803
826.067	25544
826.206	25582
826.346	25609
826.485	25723
826.625	25632
826.765	25746
826.904	25605
827.044	25445
827.183	25373
827.323	25400
827.462	25426
827.601	25434
827.741	25209
827.88	25343
828.02	25129
828.159	25255
828.298	25251
828.437	25259
828.577	25232
828.716	25335
828.855	25103
828.994	25004
829.134	25084
829.273	25114
829.412	24901
829.551	24981
829.69	24890
829.829	24996
829.968	25050
830.107	25141
830.246	24996
830.385	24901
830.524	24924
830.663	24722
830.802	24852
830.941	24589
831.08	24597
831.219	24772
831.357	24730
831.496	24871
831.635	24726
831.774	24635
831.913	24528
832.051	24433
832.19	24471
832.329	24494
832.467	24273
832.606	24277
832.744	24304
832.883	24372
833.022	24319
833.16	24235
833.299	24258
833.437	24399
833.576	24361
833.714	24311
833.852	24441
833.991	24304
834.129	24300
834.267	24410
834.406	24300
834.544	24353
834.682	24410
834.821	24395
834.959	24563
835.097	24327
835.235	24513
835.373	24315
835.511	24289
835.65	24292
835.788	24220
835.926	24098
836.064	23977
836.202	24041
836.34	24182
836.478	24277
836.615	24114
836.753	24201
836.891	24258
837.029	24289
837.167	24079
837.305	24026
837.443	24030
837.58	24057
837.718	24072
837.856	24038
837.993	23878
838.131	24087
838.269	23885
838.406	23916
838.544	23882
838.681	23562
838.819	23539
838.956	23554
839.094	23562
839.231	23543
839.369	23653
839.506	23874
839.643	23756
839.781	23528
839.918	23573
840.055	23524
840.193	23429
840.33	23425
840.467	23433
840.604	23368
840.742	23653
840.879	23147
841.016	23391
841.153	23345
841.29	23425
841.427	23452
841.564	23353
841.701	23512
841.838	23402
841.975	23258
842.112	23269
842.249	23212
842.385	23159
842.522	23318
842.659	23147
842.796	23166
842.933	23162
843.069	23079
843.206	23109
843.343	23151
843.479	23296
843.616	23166
843.752	22858
843.889	22946
844.025	23109
844.162	22995
844.298	23067
844.435	22968
844.571	22889
844.708	22911
844.844	23075
844.98	22946
845.117	23083
845.253	22850
845.389	22793
845.525	22820
845.661	22771
845.798	22683
845.934	22569
846.07	22649
846.206	22653
846.342	22763
846.478	22615
846.614	22546
846.75	22394
846.886	22367
847.022	22432
847.158	22299
847.294	22329
847.429	22500
847.565	22363
847.701	22675
847.837	22177
847.972	22040
848.108	22162
848.244	22177
848.379	22063
848.515	21949
848.65	21911
848.786	21953
848.921	21998
849.057	22162
849.192	22097
849.328	21991
849.463	21911
849.598	21922
849.734	21857
849.869	21766
850.004	21770
850.14	21812
850.275	21861
850.41	21633
850.545	21690
850.68	21732
850.815	21774
850.95	21720
851.085	21884
851.22	21732
851.355	21842
851.49	21766
851.625	21812
851.76	21774
851.895	21648
852.03	21751
852.165	21785
852.299	21781
852.434	21823
852.569	21724
852.703	21816
852.838	21823
852.973	21812
853.107	21930
853.242	21633
853.376	21686
853.511	21496
853.645	21633
853.78	21641
853.914	21622
854.048	21675
854.183	21583
854.317	21610
854.451	21778
854.585	21564
854.72	21610
854.854	21679
854.988	21572
855.122	21595
855.256	21412
855.39	21606
855.524	21610
855.658	21564
855.792	21481
855.926	21667
856.06	21511
856.194	21739
856.327	21603
856.461	21606
856.595	21500
856.729	21610
856.862	21583
856.996	21587
857.13	21694
857.263	21656
857.397	21720
857.53	21614
857.664	21606
857.797	21671
857.931	21720
858.064	21603
858.197	21660
858.331	21564
858.464	21614
858.597	21538
858.731	21694
858.864	21481
858.997	21580
859.13	21656
859.263	21587
859.396	21720
859.529	21595
859.662	21675
859.795	21458
859.928	21568
860.061	21793
860.194	21819
860.327	21530
860.46	21629
860.592	21724
860.725	21766
860.858	21770
860.99	21492
861.123	21492
861.256	21496
861.388	21591
861.521	22234
861.653	21526
861.786	21321
861.918	21256
862.05	21405
862.183	21469
862.315	21492
862.447	21614
862.58	21416
862.712	21218
862.844	21367
862.976	21382
863.108	21329
863.24	21606
863.372	21348
863.504	21302
863.636	21146
863.768	21256
863.9	21211
864.032	21214
864.164	21211
864.296	21336
864.428	21389
864.559	21447
864.691	21355
864.823	21188
864.954	21226
865.086	21298
865.217	21165
865.349	21070
865.48	21199
865.612	21150
865.743	21386
865.875	21146
866.006	21211
866.137	21180
866.269	21230
866.4	21199
866.531	21096
866.662	21195
866.793	21100
866.924	21108
867.055	21169
867.186	21081
867.317	21207
867.448	21112
867.579	21066
867.71	21028
867.841	21066
867.972	21119
868.103	21081
868.233	21195
868.364	21233
868.495	21184
868.625	21226
868.756	21469
868.886	21313
869.017	21321
869.147	21389
869.278	21473
869.408	21397
869.539	21336
869.669	21443
869.799	21405
869.929	21534
870.06	21367
870.19	21553
870.32	21641
870.45	21705
870.58	21698
870.71	21884
870.84	21857
870.97	21781
871.1	21781
871.23	21759
871.36	21892
871.489	21781
871.619	21838
871.749	21956
871.879	21991
872.008	22067
872.138	22124
872.267	21907
872.397	21774
872.526	21854
872.656	21675
872.785	21823
872.915	21846
873.044	22055
873.173	21934
873.303	21983
873.432	22063
873.561	22044
873.69	21956
873.819	22006
873.948	22048
874.077	21876
874.206	21903
874.335	22017
874.464	22063
874.593	22173
874.722	22204
874.851	22177
874.979	22276
875.108	22169
875.237	22124
875.365	22109
875.494	22124
875.623	22310
875.751	22223
875.88	22272
876.008	22268
876.136	22390
876.265	22641
876.393	22675
876.521	22691
876.65	22694
876.778	22538
876.906	22474
877.034	22634
877.162	22584
877.29	22561
877.418	22580
877.546	22615
877.674	22440
877.802	22664
877.93	22538
878.058	22440
878.185	22478
878.313	22504
878.441	22497
878.568	22390
878.696	22538
878.824	22516
878.951	22641
879.079	22759
879.206	22801
879.333	22516
879.461	22630
879.588	22599
879.715	22656
879.842	22759
879.97	22668
880.097	22363
880.224	22310
880.351	22417
880.478	22303
880.605	22375
880.732	22291
880.859	22588
880.986	22325
881.112	22481
881.239	22078
881.366	22112
881.493	22097
881.619	21846
881.746	21835
881.872	22032
881.999	21918
882.125	21998
882.252	21854
882.378	21793
882.505	22048
882.631	21797
882.757	21690
882.883	21762
883.01	21622
883.136	21542
883.262	21523
883.388	21428
883.514	21667
883.64	21622
883.766	21515
883.892	21393
884.018	21458
884.143	21523
884.269	21686
884.395	21382
884.52	21161
884.646	21363
884.772	21188
884.897	21291
885.023	21287
885.148	21332
885.274	21317
885.399	21283
885.524	21256
885.65	21363
885.775	21138
885.9	21245
886.025	21317
886.15	21367
886.275	21142
886.4	21199
886.525	21233
886.65	21199
886.775	21093
886.9	21317
887.025	21431
887.149	21180
887.274	21093
887.399	21058
887.523	20963
887.648	20864
887.773	20914
887.897	21142
888.021	21017
888.146	21047
888.27	21184
888.395	21123
888.519	21119
888.643	20982
888.767	21161
888.891	21001
889.015	20731
889.139	20876
889.263	20807
889.387	20834
889.511	21013
889.635	21028
889.759	20826
889.883	20880
890.006	20895
890.13	20716
890.254	20686
890.377	20762
890.501	20632
890.624	20579
890.748	20575
890.871	20431
890.995	20355
891.118	20358
891.241	20427
891.364	20377
891.488	20438
891.611	20461
891.734	20385
891.857	20480
891.98	20431
892.103	20412
892.226	20404
892.349	20381
892.471	20263
892.594	20343
892.717	20233
892.839	20256
892.962	20313
893.085	20256
893.207	20305
893.33	20058
893.452	20206
893.575	20294
893.697	20271
893.819	20438
893.941	20514
894.064	20419
894.186	20221
894.308	20199
894.43	20347
894.552	20412
894.674	20233
894.796	20221
894.918	20221
895.04	20248
895.161	20339
895.283	20313
895.405	20256
895.526	20298
895.648	20305
895.769	20259
895.891	20347
896.012	20351
896.134	20404
896.255	20278
896.376	20202
896.498	20290
896.619	20324
896.74	20370
896.861	20271
896.982	20518
897.103	20701
897.224	20469
897.345	20484
897.466	20450
897.587	20412
897.708	20720
897.828	20419
897.949	20495
898.07	20313
898.19	20423
898.311	20545
898.431	20457
898.552	20492
898.672	20575
898.792	20415
898.913	20587
899.033	20362
899.153	20374
899.273	20130
899.393	20206
899.513	20309
899.633	20176
899.753	20221
899.873	20191
899.993	20343
900.113	20142
900.232	20271
900.352	20145
900.472	20054
900.591	20008
900.711	20084
900.83	20035
900.95	20092
901.069	20115
901.189	19902
901.308	19746
901.427	19670
901.546	19521
901.665	19715
901.784	19544
901.904	19369
902.023	19396
902.141	19244
902.26	19050
902.379	19369
902.498	19099
902.617	19088
902.735	19095
902.854	19072
902.973	19053
903.091	18859
903.21	18814
903.328	18795
903.446	18612
903.565	18612
903.683	18612
903.801	18490
903.919	18589
904.038	18483
904.156	18410
904.274	18361
904.392	18277
904.51	18224
904.627	18380
904.745	18376
904.863	18403
904.981	18129
905.098	17939
905.216	17973
905.334	18034
905.451	17988
905.569	17935
905.686	18038
905.803	18015
905.921	17813
906.038	17935
906.155	17935
906.272	17718
906.389	17726
906.506	17482
906.623	17577
906.74	17505
906.857	17406
906.974	17493
907.091	17524
907.208	17764
907.324	17600
907.441	17520
907.557	17330
907.674	17303
907.79	17181
907.907	17197
908.023	17212
908.139	17223
908.256	17239
908.372	17159
908.488	17181
908.604	17132
908.72	16869
908.836	17048
908.952	16911
909.068	16980
909.184	17113
909.3	16919
909.415	16949
909.531	16972
909.647	16752
909.762	16763
909.878	16660
909.993	16755
910.108	16561
910.224	16607
910.339	16698
910.454	16611
910.57	16542
910.685	16516
910.8	16748
910.915	16634
911.03	16432
911.145	16360
911.259	16211
911.374	16253
911.489	16223
911.604	16154
911.718	15998
911.833	15960
911.947	15964
912.062	15846
912.176	16002
912.291	15979
912.405	16040
912.519	16173
912.633	16109
912.748	16147
912.862	15964
912.976	15915
913.09	15736
913.204	15812
913.318	15747
913.431	15781
913.545	15800
913.659	15953
913.772	15781
913.886	15793
914	15679
914.113	15713
914.226	15816
914.34	15660
914.453	15542
914.566	15591
914.68	15492
914.793	15488
914.906	15367
915.019	15306
915.132	15173
915.245	15252
915.358	15264
915.47	15176
915.583	15233
915.696	15287
915.809	15408
915.921	15382
916.034	15260
916.146	15150
916.259	15112
916.371	15222
916.483	15245
916.595	15043
916.708	15070
916.82	15119
916.932	15077
917.044	15039
917.156	15039
917.268	15017
917.38	14895
917.491	14861
917.603	14849
917.715	14982
917.826	14982
917.938	14834
918.049	14670
918.161	14883
918.272	14979
918.384	15047
918.495	14804
918.606	14674
918.717	14594
918.828	14712
918.939	14720
919.05	14556
919.161	14617
919.272	14389
919.383	14507
919.494	14769
919.604	14819
919.715	14674
919.826	14533
919.936	14621
920.047	14689
920.157	14613
920.267	14819
920.378	14575
920.488	14617
920.598	14739
920.708	14963
920.818	14826
920.928	14689
921.038	14948
921.148	14876
921.258	14575
921.368	14503
921.477	14396
921.587	14324
921.697	14240
921.806	14427
921.916	14180
922.025	14005
922.134	13974
922.244	13917
922.353	14027
922.462	13868
922.571	13826
922.68	13613
922.789	13636
922.898	13677
923.007	13643
923.116	13746
923.224	13666
923.333	13685
923.442	13411
923.55	13468
923.659	13415
923.767	13514
923.876	13426
923.984	13506
924.092	13312
924.201	13426
924.309	13304
924.417	13422
924.525	13407
924.633	13274
924.741	14248
924.849	13103
924.956	13320
925.064	13080
925.172	13042
925.279	13004
925.387	13095
925.494	13084
925.602	13213
925.709	13099
925.816	12886
925.924	12951
926.031	13156
926.138	12996
926.245	13076
926.352	12901
926.459	13149
926.566	13110
926.673	12916
926.779	12757
926.886	12821
926.993	12642
927.099	12677
927.206	12642
927.312	12551
927.419	12700
927.525	12623
927.631	12677
927.737	12536
927.843	12384
927.95	12334
928.056	12479
928.162	12422
928.267	12498
928.373	13099
928.479	12517
928.585	12258
928.69	12399
928.796	12395
928.901	12289
929.007	12155
929.112	12311
929.218	12281
929.323	12247
929.428	12175
929.533	12258
929.638	12095
929.743	12087
929.848	12136
929.953	11992
930.058	11942
930.163	11859
930.267	11790
930.372	11939
930.477	11832
930.581	12034
930.685	11901
930.79	11714
930.894	11813
930.998	11775
931.103	11935
931.207	11482
931.311	11402
931.415	11288
931.519	11174
931.623	11185
