Data from test_V78500241_1541.txt Node
Date: Fri Mar 25 15:20:35 CST 2022
User: usil
Spectrometer: V785-0024
Trigger mode: 0
Integration Time (sec): 4.000000E-1
Scans to average: 1
Nonlinearity correction enabled: false
Boxcar width: 0
Storing dark spectrum: false
XAxis mode: Wavelengths
Number of Pixels in Spectrum: 1024
>>>>>Begin Spectral Data<<<<<
801.071	28036
801.214	27937
801.356	27781
801.499	27671
801.641	27538
801.783	27580
801.926	27633
802.068	27644
802.211	27599
802.353	27378
802.496	27439
802.638	27294
802.78	27184
802.923	27237
803.065	27237
803.208	27173
803.35	27157
803.492	27363
803.635	27363
803.777	27370
803.919	27534
804.061	27793
804.204	27469
804.346	27466
804.488	27310
804.63	27431
804.773	27382
804.915	27416
805.057	27648
805.199	27435
805.341	27542
805.483	27606
805.626	27549
805.768	27625
805.91	27523
806.052	27804
806.194	27614
806.336	27800
806.478	27610
806.62	27637
806.762	27625
806.904	27835
807.046	28044
807.188	27972
807.33	28036
807.472	28067
807.614	27994
807.756	28048
807.898	27835
808.04	27819
808.182	27838
808.324	27835
808.465	28002
808.607	28169
808.749	28268
808.891	28382
809.033	28478
809.174	28280
809.316	28246
809.458	28112
809.6	28246
809.741	28295
809.883	28284
810.025	28580
810.166	28493
810.308	28561
810.45	28440
810.591	28470
810.733	28398
810.875	28257
811.016	28143
811.158	28177
811.299	28310
811.441	28394
811.582	28295
811.724	28310
811.865	28226
812.007	28166
812.148	28265
812.29	28204
812.431	28421
812.573	28481
812.714	28740
812.855	28698
812.997	28858
813.138	28942
813.279	28797
813.421	28866
813.562	28713
813.703	28679
813.845	28466
813.986	28154
814.127	28097
814.268	27949
814.41	27956
814.551	27895
814.692	28021
814.833	27850
814.974	27869
815.115	27911
815.256	27846
815.397	27861
815.539	27827
815.68	27679
815.821	27732
815.962	27827
816.103	27728
816.244	27622
816.385	27530
816.526	27542
816.666	27313
816.807	27264
816.948	27161
817.089	27378
817.23	27344
817.371	27287
817.512	27264
817.653	27386
817.793	27245
817.934	27180
818.075	27184
818.216	27233
818.356	27260
818.497	27169
818.638	26948
818.778	26960
818.919	27001
819.06	27013
819.2	27169
819.341	27207
819.481	27188
819.622	27340
819.762	27580
819.903	27511
820.043	27363
820.184	27283
820.324	27424
820.465	27408
820.605	27367
820.746	27370
820.886	27245
821.026	27310
821.167	27233
821.307	27397
821.447	27317
821.588	27096
821.728	27123
821.868	26769
822.008	26796
822.149	26686
822.289	26678
822.429	26438
822.569	26317
822.709	26343
822.849	26229
822.99	26164
823.13	26233
823.27	26237
823.41	26008
823.55	25917
823.69	26046
823.83	26073
823.97	26020
824.11	25906
824.25	25822
824.389	25830
824.529	26027
824.669	25841
824.809	26050
824.949	25791
825.089	26008
825.228	25822
825.368	25578
825.508	25708
825.648	25772
825.787	25795
825.927	25837
826.067	25639
826.206	25791
826.346	25761
826.485	25590
826.625	25738
826.765	25845
826.904	25738
827.044	25430
827.183	25460
827.323	25331
827.462	25525
827.601	25540
827.741	25426
827.88	25529
828.02	25316
828.159	25392
828.298	25343
828.437	25434
828.577	25457
828.716	25430
828.855	25358
828.994	25137
829.134	25198
829.273	25179
829.412	24970
829.551	25179
829.69	25164
829.829	25114
829.968	25198
830.107	25190
830.246	25145
830.385	25088
830.524	25015
830.663	24935
830.802	24890
830.941	24749
831.08	24779
831.219	24787
831.357	24916
831.496	25061
831.635	24764
831.774	24730
831.913	24483
832.051	24547
832.19	24441
832.329	24555
832.467	24536
832.606	24308
832.744	24384
832.883	24376
833.022	24426
833.16	24380
833.299	24483
833.437	24437
833.576	24433
833.714	24494
833.852	24528
833.991	24517
834.129	24437
834.267	24582
834.406	24616
834.544	24426
834.682	24589
834.821	24369
834.959	24711
835.097	24410
835.235	24505
835.373	24505
835.511	24429
835.65	24338
835.788	24429
835.926	24083
836.064	24045
836.202	24201
836.34	24361
836.478	24365
836.615	24174
836.753	24330
836.891	24388
837.029	24289
837.167	24258
837.305	24194
837.443	24247
837.58	23996
837.718	24178
837.856	24114
837.993	23980
838.131	24072
838.269	24030
838.406	23946
838.544	23904
838.681	23840
838.819	23931
838.956	23634
839.094	23570
839.231	23638
839.369	23805
839.506	23935
839.643	23904
839.781	23551
839.918	23516
840.055	23623
840.193	23501
840.33	23551
840.467	23482
840.604	23570
840.742	23661
840.879	23383
841.016	23501
841.153	23398
841.29	23528
841.427	23528
841.564	23570
841.701	23379
841.838	23497
841.975	23387
842.112	23402
842.249	23322
842.385	23235
842.522	23501
842.659	23364
842.796	23296
842.933	23261
843.069	23208
843.206	23155
843.343	23334
843.479	23326
843.616	23284
843.752	23010
843.889	23056
844.025	23178
844.162	23044
844.298	23121
844.435	22953
844.571	23102
844.708	22957
844.844	23166
844.98	23162
845.117	23143
845.253	22999
845.389	22889
845.525	22965
845.661	22915
845.798	22805
845.934	22835
846.07	22801
846.206	22843
846.342	22805
846.478	22805
846.614	22554
846.75	22500
846.886	22421
847.022	22504
847.158	22447
847.294	22451
847.429	22478
847.565	22516
847.701	22691
847.837	22261
847.972	22135
848.108	22352
848.244	22287
848.379	22059
848.515	22128
848.65	22021
848.786	21975
848.921	22131
849.057	22226
849.192	22105
849.328	22162
849.463	21972
849.598	22078
849.734	21880
849.869	21956
850.004	21926
850.14	21972
850.275	21903
850.41	21751
850.545	21800
850.68	21793
850.815	21892
850.95	21850
851.085	21991
851.22	21987
851.355	21842
851.49	21819
851.625	21785
851.76	21812
851.895	21755
852.03	21835
852.165	21701
852.299	21778
852.434	21846
852.569	21945
852.703	21781
852.838	21922
852.973	22002
853.107	21960
853.242	21865
853.376	21633
853.511	21561
853.645	21580
853.78	21644
853.914	21701
854.048	21637
854.183	21572
854.317	21686
854.451	21888
854.585	21625
854.72	21629
854.854	21675
854.988	21663
855.122	21686
855.256	21458
855.39	21720
855.524	21622
855.658	21766
855.792	21629
855.926	21709
856.06	21789
856.194	21766
856.327	21671
856.461	21576
856.595	21717
856.729	21587
856.862	21781
856.996	21686
857.13	21766
857.263	21808
857.397	21770
857.53	21614
857.664	21614
857.797	21766
857.931	21675
858.064	21759
858.197	21599
858.331	21667
858.464	21519
858.597	21477
858.731	21663
858.864	21591
858.997	21618
859.13	21572
859.263	21679
859.396	21652
859.529	21667
859.662	21576
859.795	21720
859.928	21686
860.061	21804
860.194	21972
860.327	21644
860.46	21622
860.592	21816
860.725	21865
860.858	21686
860.99	21625
861.123	21534
861.256	21606
861.388	21656
861.521	22379
861.653	21545
861.786	21473
861.918	21549
862.05	21526
862.183	21652
862.315	21652
862.447	21705
862.58	21572
862.712	21359
862.844	21336
862.976	21450
863.108	21443
863.24	21899
863.372	21336
863.504	21401
863.636	21241
863.768	21469
863.9	21374
864.032	21310
864.164	21382
864.296	21310
864.428	21393
864.559	21496
864.691	21302
864.823	21351
864.954	21397
865.086	21230
865.217	21313
865.349	21233
865.48	21287
865.612	21192
865.743	21367
865.875	21275
866.006	21157
866.137	21180
866.269	21291
866.4	21165
866.531	21184
866.662	21123
866.793	21203
866.924	21146
867.055	21161
867.186	21135
867.317	21233
867.448	21058
867.579	21157
867.71	21017
867.841	21100
867.972	21176
868.103	21165
868.233	21214
868.364	21104
868.495	21302
868.625	21348
868.756	21542
868.886	21336
869.017	21302
869.147	21462
869.278	21485
869.408	21462
869.539	21454
869.669	21564
869.799	21450
869.929	21610
870.06	21534
870.19	21686
870.32	21785
870.45	21850
870.58	21857
870.71	21850
870.84	21850
870.97	21793
871.1	21895
871.23	21987
871.36	21850
871.489	21903
871.619	21876
871.749	22017
871.879	21926
872.008	22112
872.138	21994
872.267	22006
872.397	21873
872.526	21785
872.656	21850
872.785	21831
872.915	21854
873.044	22090
873.173	21994
873.303	22040
873.432	22067
873.561	22158
873.69	22086
873.819	21941
873.948	22162
874.077	21998
874.206	21983
874.335	22070
874.464	22223
874.593	22295
874.722	22135
874.851	22261
874.979	22192
875.108	22367
875.237	22207
875.365	22158
875.494	22090
875.623	22238
875.751	22272
875.88	22230
876.008	22409
876.136	22325
876.265	22664
876.393	22679
876.521	22664
876.65	22675
876.778	22778
876.906	22626
877.034	22508
877.162	22565
877.29	22485
877.418	22455
877.546	22740
877.674	22500
877.802	22615
877.93	22577
878.058	22630
878.185	22542
878.313	22618
878.441	22580
878.568	22436
878.696	22634
878.824	22516
878.951	22778
879.079	22679
879.206	22873
879.333	22740
879.461	22607
879.588	22607
879.715	22729
879.842	22828
879.97	22752
880.097	22386
880.224	22470
880.351	22402
880.478	22443
880.605	22409
880.732	22329
880.859	22660
880.986	22451
881.112	22535
881.239	22268
881.366	22211
881.493	22036
881.619	21949
881.746	22063
881.872	21998
881.999	22059
882.125	21922
882.252	21956
882.378	21964
882.505	22086
882.631	21778
882.757	21736
882.883	21846
883.01	21800
883.136	21717
883.262	21568
883.388	21408
883.514	21629
883.64	21747
883.766	21580
883.892	21542
884.018	21530
884.143	21648
884.269	21808
884.395	21378
884.52	21298
884.646	21348
884.772	21127
884.897	21222
885.023	21310
885.148	21469
885.274	21412
885.399	21279
885.524	21298
885.65	21329
885.775	21302
885.9	21207
886.025	21447
886.15	21233
886.275	21351
886.4	21157
886.525	21161
886.65	21283
886.775	21268
886.9	21317
887.025	21591
887.149	21279
887.274	21085
887.399	21028
887.523	21131
887.648	20979
887.773	20971
887.897	21058
888.021	21017
888.146	21032
888.27	21150
888.395	21264
888.519	21096
888.643	21051
888.767	21093
888.891	20929
889.015	20857
889.139	20876
889.263	20925
889.387	20956
889.511	21070
889.635	21036
889.759	20773
889.883	20785
890.006	20872
890.13	20849
890.254	20883
890.377	20754
890.501	20686
890.624	20579
890.748	20640
890.871	20461
890.995	20336
891.118	20374
891.241	20480
891.364	20374
891.488	20644
891.611	20526
891.734	20461
891.857	20480
891.98	20484
892.103	20533
892.226	20374
892.349	20377
892.471	20237
892.594	20404
892.717	20377
892.839	20374
892.962	20305
893.085	20259
893.207	20370
893.33	20240
893.452	20313
893.575	20301
893.697	20313
893.819	20533
893.941	20499
894.064	20454
894.186	20298
894.308	20225
894.43	20400
894.552	20393
894.674	20381
894.796	20301
894.918	20362
895.04	20347
895.161	20469
895.283	20240
895.405	20214
895.526	20313
895.648	20206
895.769	20396
895.891	20278
896.012	20263
896.134	20332
896.255	20446
896.376	20328
896.498	20313
896.619	20229
896.74	20324
896.861	20309
896.982	20648
897.103	20716
897.224	20655
897.345	20438
897.466	20499
897.587	20587
897.708	20583
897.828	20606
897.949	20480
898.07	20252
898.19	20419
898.311	20735
898.431	20408
898.552	20480
898.672	20564
898.792	20655
898.913	20549
899.033	20282
899.153	20263
899.273	20263
899.393	20412
899.513	20240
899.633	20244
899.753	20233
899.873	20332
899.993	20317
900.113	20195
900.232	20351
900.352	20248
900.472	20035
900.591	20202
900.711	20054
900.83	20024
900.95	20214
901.069	20111
901.189	19967
901.308	19772
901.427	19719
901.546	19624
901.665	19655
901.784	19666
901.904	19487
902.023	19449
902.141	19198
902.26	19091
902.379	19274
902.498	19228
902.617	19209
902.735	19316
902.854	19069
902.973	19084
903.091	18890
903.21	18882
903.328	18829
903.446	18741
903.565	18696
903.683	18669
903.801	18582
903.919	18658
904.038	18513
904.156	18517
904.274	18608
904.392	18369
904.51	18429
904.627	18319
904.745	18395
904.863	18483
904.981	18235
905.098	18079
905.216	18148
905.334	18011
905.451	18064
905.569	18003
905.686	18144
905.803	17992
905.921	17817
906.038	17984
906.155	17748
906.272	17775
906.389	17642
906.506	17630
906.623	17649
906.74	17600
906.857	17524
906.974	17421
907.091	17528
907.208	17786
907.324	17608
907.441	17486
907.557	17341
907.674	17246
907.79	17223
907.907	17376
908.023	17345
908.139	17296
908.256	17239
908.372	17189
908.488	17220
908.604	17121
908.72	17052
908.836	17178
908.952	16995
909.068	17090
909.184	17151
909.3	16949
909.415	16949
909.531	16946
909.647	16812
909.762	16721
909.878	16744
909.993	16611
910.108	16759
910.224	16713
910.339	16740
910.454	16630
910.57	16565
910.685	16436
910.8	16668
910.915	16733
911.03	16577
911.145	16402
911.259	16314
911.374	16272
911.489	16390
911.604	16188
911.718	16032
911.833	15964
911.947	15991
912.062	15907
912.176	15937
912.291	16051
912.405	16036
912.519	16249
912.633	16215
912.748	16105
912.862	16093
912.976	15918
913.09	15789
913.204	15800
913.318	15934
913.431	15972
913.545	15926
913.659	16040
913.772	15812
913.886	15671
914	15587
914.113	15755
914.226	15835
914.34	15682
914.453	15572
914.566	15720
914.68	15614
914.793	15466
914.906	15329
915.019	15306
915.132	15268
915.245	15230
915.358	15310
915.47	15275
915.583	15233
915.696	15329
915.809	15317
915.921	15439
916.034	15188
916.146	15211
916.259	15142
916.371	15275
916.483	15211
916.595	15024
916.708	15043
916.82	15051
916.932	15066
917.044	15062
917.156	14994
917.268	14979
917.38	14998
917.491	14986
917.603	14921
917.715	14914
917.826	15024
917.938	14891
918.049	14804
918.161	14880
918.272	14956
918.384	14941
918.495	14872
918.606	14739
918.717	14594
918.828	14727
918.939	14629
919.05	14617
919.161	14731
919.272	14446
919.383	14594
919.494	14754
919.604	14944
919.715	14663
919.826	14625
919.936	14644
920.047	14731
920.157	14670
920.267	14826
920.378	14686
920.488	14625
920.598	14788
920.708	14952
920.818	14819
920.928	14598
921.038	14899
921.148	14834
921.258	14670
921.368	14465
921.477	14423
921.587	14309
921.697	14248
921.806	14290
921.916	14305
922.025	14096
922.134	14020
922.244	13921
922.353	14024
922.462	13921
922.571	13909
922.68	13700
922.789	13586
922.898	13708
923.007	13613
923.116	13731
923.224	13674
923.333	13639
923.442	13563
923.55	13495
923.659	13392
923.767	13586
923.876	13449
923.984	13407
924.092	13304
924.201	13426
924.309	13434
924.417	13400
924.525	13343
924.633	13297
924.741	14187
924.849	13088
924.956	13282
925.064	13145
925.172	13031
925.279	13099
925.387	13053
925.494	13126
925.602	13194
925.709	13137
925.816	12951
925.924	12932
926.031	13160
926.138	13023
926.245	13042
926.352	12920
926.459	13076
926.566	13072
926.673	12844
926.779	12760
926.886	12829
926.993	12707
927.099	12722
927.206	12528
927.312	12585
927.419	12662
927.525	12722
927.631	12623
927.737	12445
927.843	12486
927.95	12403
928.056	12410
928.162	12441
928.267	12448
928.373	13141
928.479	12490
928.585	12285
928.69	12437
928.796	12494
928.901	12232
929.007	12213
929.112	12330
929.218	12220
929.323	12258
929.428	12098
929.533	12300
929.638	12057
929.743	12190
929.848	12144
929.953	12068
930.058	12060
930.163	11817
930.267	11908
930.372	11908
930.477	11779
930.581	12045
930.685	11946
930.79	11760
930.894	11790
930.998	11733
931.103	11752
931.207	11478
931.311	11402
931.415	11273
931.519	11185
931.623	11105
