Data from test_V78500241_627.txt Node
Date: Fri Mar 25 15:14:13 CST 2022
User: usil
Spectrometer: V785-0024
Trigger mode: 0
Integration Time (sec): 4.000000E-1
Scans to average: 1
Nonlinearity correction enabled: false
Boxcar width: 0
Storing dark spectrum: false
XAxis mode: Wavelengths
Number of Pixels in Spectrum: 1024
>>>>>Begin Spectral Data<<<<<
801.071	27641
801.214	27610
801.356	27401
801.499	27427
801.641	27431
801.783	27302
801.926	27298
802.068	27351
802.211	27283
802.353	27104
802.496	27020
802.638	26937
802.78	26899
802.923	26834
803.065	27005
803.208	26891
803.35	27024
803.492	27058
803.635	27074
803.777	26853
803.919	26998
804.061	27321
804.204	26918
804.346	26872
804.488	27093
804.63	26998
804.773	27013
804.915	27051
805.057	27138
805.199	27085
805.341	27222
805.483	27252
805.626	27195
805.768	27131
805.91	27233
806.052	27157
806.194	27157
806.336	27382
806.478	27268
806.62	27252
806.762	27374
806.904	27408
807.046	27755
807.188	27732
807.33	27690
807.472	27816
807.614	27713
807.756	27557
807.898	27485
808.04	27488
808.182	27363
808.324	27443
808.465	27408
808.607	27576
808.749	27880
808.891	27816
809.033	27987
809.174	28078
809.316	28074
809.458	27774
809.6	27884
809.741	28013
809.883	28044
810.025	28265
810.166	28128
810.308	28166
810.45	28120
810.591	28135
810.733	27895
810.875	27884
811.016	27816
811.158	27831
811.299	27941
811.441	28055
811.582	27983
811.724	27903
811.865	27835
812.007	27755
812.148	27934
812.29	27937
812.431	28051
812.573	28367
812.714	28204
812.855	28451
812.997	28634
813.138	28603
813.279	28550
813.421	28440
813.562	28348
813.703	28173
813.845	28002
813.986	27854
814.127	27755
814.268	27572
814.41	27530
814.551	27511
814.692	27713
814.833	27530
814.974	27564
815.115	27644
815.256	27454
815.397	27572
815.539	27485
815.68	27336
815.821	27469
815.962	27424
816.103	27412
816.244	27230
816.385	27096
816.526	27135
816.666	27032
816.807	26731
816.948	26906
817.089	26963
817.23	26944
817.371	26853
817.512	26864
817.653	26940
817.793	26788
817.934	26739
818.075	26891
818.216	26834
818.356	26746
818.497	26800
818.638	26632
818.778	26609
818.919	26693
819.06	26708
819.2	26716
819.341	26902
819.481	26796
819.622	26868
819.762	27096
819.903	27081
820.043	27009
820.184	27066
820.324	26994
820.465	27123
820.605	27138
820.746	26982
820.886	26769
821.026	27024
821.167	26921
821.307	26944
821.447	26876
821.588	26807
821.728	26663
821.868	26431
822.008	26313
822.149	26278
822.289	26237
822.429	26122
822.569	26016
822.709	26046
822.849	25818
822.99	25849
823.13	25803
823.27	25769
823.41	25605
823.55	25666
823.69	25772
823.83	25590
823.97	25556
824.11	25377
824.25	25289
824.389	25476
824.529	25586
824.669	25285
824.809	25655
824.949	25502
825.089	25567
825.228	25681
825.368	25396
825.508	25293
825.648	25388
825.787	25434
825.927	25449
826.067	25373
826.206	25324
826.346	25377
826.485	25438
826.625	25369
826.765	25331
826.904	25403
827.044	25137
827.183	25129
827.323	24992
827.462	25247
827.601	25031
827.741	25126
827.88	24958
828.02	24859
828.159	25038
828.298	25053
828.437	25065
828.577	25012
828.716	25137
828.855	24992
828.994	24814
829.134	24753
829.273	24825
829.412	24677
829.551	24608
829.69	24867
829.829	24871
829.968	24882
830.107	24859
830.246	24772
830.385	24623
830.524	24677
830.663	24635
830.802	24395
830.941	24410
831.08	24350
831.219	24521
831.357	24528
831.496	24540
831.635	24365
831.774	24391
831.913	24232
832.051	24273
832.19	24243
832.329	24239
832.467	24049
832.606	24041
832.744	24030
832.883	24110
833.022	24026
833.16	24129
833.299	24247
833.437	24015
833.576	24159
833.714	24197
833.852	24155
833.991	24121
834.129	24277
834.267	24243
834.406	24106
834.544	24281
834.682	24228
834.821	24045
834.959	24258
835.097	24038
835.235	24197
835.373	24102
835.511	24098
835.65	24068
835.788	23950
835.926	23920
836.064	23752
836.202	23859
836.34	23931
836.478	23984
836.615	23942
836.753	23946
836.891	24038
837.029	23984
837.167	23901
837.305	23745
837.443	24068
837.58	23832
837.718	23832
837.856	23779
837.993	23726
838.131	23668
838.269	23627
838.406	23665
838.544	23657
838.681	23360
838.819	23376
838.956	23376
839.094	23239
839.231	23326
839.369	23547
839.506	23577
839.643	23440
839.781	23372
839.918	23246
840.055	23193
840.193	23242
840.33	23212
840.467	23208
840.604	23269
840.742	23383
840.879	23079
841.016	23056
841.153	23079
841.29	23334
841.427	23113
841.564	23337
841.701	23151
841.838	23090
841.975	23181
842.112	23079
842.249	23041
842.385	22968
842.522	23212
842.659	22957
842.796	22968
842.933	22965
843.069	22843
843.206	22759
843.343	22927
843.479	23022
843.616	22816
843.752	22698
843.889	22748
844.025	22915
844.162	22694
844.298	22831
844.435	22771
844.571	22744
844.708	22786
844.844	22881
844.98	22858
845.117	22710
845.253	22694
845.389	22588
845.525	22497
845.661	22542
845.798	22398
845.934	22523
846.07	22440
846.206	22447
846.342	22542
846.478	22542
846.614	22333
846.75	22192
846.886	22249
847.022	22261
847.158	22177
847.294	22246
847.429	22226
847.565	22063
847.701	22421
847.837	21953
847.972	21956
848.108	22021
848.244	22082
848.379	21831
848.515	21804
848.65	21770
848.786	21766
848.921	21854
849.057	21865
849.192	21869
849.328	21873
849.463	21861
849.598	21751
849.734	21755
849.869	21800
850.004	21511
850.14	21591
850.275	21568
850.41	21431
850.545	21519
850.68	21428
850.815	21526
850.95	21511
851.085	21755
851.22	21580
851.355	21572
851.49	21599
851.625	21542
851.76	21542
851.895	21538
852.03	21344
852.165	21485
852.299	21526
852.434	21751
852.569	21618
852.703	21519
852.838	21591
852.973	21686
853.107	21648
853.242	21523
853.376	21317
853.511	21283
853.645	21294
853.78	21511
853.914	21393
854.048	21386
854.183	21431
854.317	21336
854.451	21557
854.585	21351
854.72	21351
854.854	21393
854.988	21332
855.122	21306
855.256	21173
855.39	21256
855.524	21420
855.658	21363
855.792	21359
855.926	21348
856.06	21450
856.194	21485
856.327	21237
856.461	21218
856.595	21287
856.729	21397
856.862	21424
856.996	21336
857.13	21450
857.263	21538
857.397	21538
857.53	21367
857.664	21447
857.797	21485
857.931	21473
858.064	21386
858.197	21473
858.331	21454
858.464	21302
858.597	21184
858.731	21393
858.864	21378
858.997	21214
859.13	21264
859.263	21294
859.396	21485
859.529	21348
859.662	21370
859.795	21321
859.928	21275
860.061	21606
860.194	21462
860.327	21568
860.46	21397
860.592	21447
860.725	21564
860.858	21606
860.99	21515
861.123	21207
861.256	21230
861.388	21359
861.521	22200
861.653	21348
861.786	21123
861.918	21104
862.05	21260
862.183	21302
862.315	21393
862.447	21382
862.58	21355
862.712	21005
862.844	20998
862.976	21233
863.108	21119
863.24	21599
863.372	21131
863.504	21047
863.636	21135
863.768	21119
863.9	21108
864.032	21013
864.164	21001
864.296	21013
864.428	21096
864.559	21100
864.691	21195
864.823	21005
864.954	21009
865.086	20944
865.217	20937
865.349	20960
865.48	20891
865.612	21055
865.743	21081
865.875	21051
866.006	21036
866.137	20944
866.269	20982
866.4	20918
866.531	20986
866.662	20830
866.793	20739
866.924	20830
867.055	21173
867.186	20842
867.317	20899
867.448	20815
867.579	20781
867.71	20910
867.841	20811
867.972	20876
868.103	20956
868.233	20857
868.364	20834
868.495	20948
868.625	21123
868.756	21199
868.886	20998
869.017	21157
869.147	21397
869.278	21192
869.408	21222
869.539	21218
869.669	21195
869.799	21203
869.929	21306
870.06	21199
870.19	21500
870.32	21424
870.45	21481
870.58	21587
870.71	21671
870.84	21785
870.97	21553
871.1	21519
871.23	21793
871.36	21743
871.489	21637
871.619	21682
871.749	21816
871.879	21831
872.008	21808
872.138	21736
872.267	21717
872.397	21694
872.526	21473
872.656	21534
872.785	21701
872.915	21816
873.044	21842
873.173	21797
873.303	21949
873.432	21789
873.561	21964
873.69	21846
873.819	21629
873.948	21861
874.077	21724
874.206	21732
874.335	21823
874.464	21865
874.593	22097
874.722	21895
874.851	22059
874.979	21949
875.108	22029
875.237	21926
875.365	21994
875.494	22051
875.623	22093
875.751	22025
875.88	22101
876.008	22154
876.136	22131
876.265	22386
876.393	22481
876.521	22417
876.65	22405
876.778	22242
876.906	22341
877.034	22348
877.162	22276
877.29	22386
877.418	22424
877.546	22379
877.674	22291
877.802	22409
877.93	22299
878.058	22280
878.185	22356
878.313	22333
878.441	22318
878.568	22139
878.696	22272
878.824	22481
878.951	22459
879.079	22478
879.206	22717
879.333	22474
879.461	22500
879.588	22436
879.715	22504
879.842	22675
879.97	22440
880.097	22181
880.224	22188
880.351	22204
880.478	22192
880.605	22128
880.732	22147
880.859	22424
880.986	22154
881.112	22173
881.239	21968
881.366	21911
881.493	21812
881.619	21675
881.746	21835
881.872	21755
881.999	21739
882.125	21728
882.252	21785
882.378	21717
882.505	21850
882.631	21614
882.757	21481
882.883	21549
883.01	21511
883.136	21519
883.262	21313
883.388	21321
883.514	21500
883.64	21526
883.766	21336
883.892	21287
884.018	21211
884.143	21382
884.269	21454
884.395	21100
884.52	21165
884.646	21093
884.772	20948
884.897	20921
885.023	21135
885.148	21180
885.274	21199
885.399	21230
885.524	21093
885.65	21001
885.775	21112
885.9	21146
886.025	21214
886.15	21169
886.275	21020
886.4	21093
886.525	21017
886.65	20975
886.775	20963
886.9	21207
887.025	21211
887.149	21089
887.274	20845
887.399	20880
887.523	20967
887.648	20743
887.773	20853
887.897	20876
888.021	20906
888.146	20792
888.27	21020
888.395	20910
888.519	20933
888.643	20906
888.767	20925
888.891	20724
889.015	20678
889.139	20754
889.263	20731
889.387	20712
889.511	20785
889.635	20800
889.759	20670
889.883	20655
890.006	20712
890.13	20693
890.254	20697
890.377	20560
890.501	20568
890.624	20324
890.748	20442
890.871	20298
890.995	20237
891.118	20138
891.241	20408
891.364	20275
891.488	20294
891.611	20286
891.734	20180
891.857	20294
891.98	20202
892.103	20290
892.226	20248
892.349	20180
892.471	20050
892.594	20218
892.717	20065
892.839	20172
892.962	20168
893.085	20103
893.207	20092
893.33	19997
893.452	20043
893.575	20149
893.697	20077
893.819	20237
893.941	20290
894.064	20347
894.186	20031
894.308	20103
894.43	20168
894.552	20336
894.674	20183
894.796	20016
894.918	20065
895.04	20001
895.161	20206
895.283	20081
895.405	20130
895.526	20088
895.648	19982
895.769	20142
895.891	20073
896.012	20134
896.134	20191
896.255	20081
896.376	20073
896.498	20081
896.619	20157
896.74	20069
896.861	20164
896.982	20419
897.103	20579
897.224	20393
897.345	20362
897.466	20244
897.587	20370
897.708	20469
897.828	20343
897.949	20324
898.07	20187
898.19	20221
898.311	20427
898.431	20237
898.552	20434
898.672	20514
898.792	20423
898.913	20210
899.033	20214
899.153	20008
899.273	19967
899.393	20062
899.513	20126
899.633	20062
899.753	20237
899.873	20065
899.993	20138
900.113	19967
900.232	19986
900.352	19993
900.472	19989
900.591	19860
900.711	19849
900.83	19864
900.95	19890
901.069	19970
901.189	19868
901.308	19537
901.427	19426
901.546	19430
901.665	19449
901.784	19453
901.904	19392
902.023	19236
902.141	19023
902.26	18996
902.379	18943
902.498	18981
902.617	18894
902.735	19012
902.854	18829
902.973	18814
903.091	18726
903.21	18612
903.328	18654
903.446	18555
903.565	18452
903.683	18471
903.801	18323
903.919	18369
904.038	18304
904.156	18171
904.274	18277
904.392	18114
904.51	18289
904.627	18167
904.745	18148
904.863	18258
904.981	18022
905.098	17874
905.216	17939
905.334	17954
905.451	17980
905.569	17809
905.686	17847
905.803	17916
905.921	17665
906.038	17733
906.155	17790
906.272	17615
906.389	17649
906.506	17463
906.623	17398
906.74	17455
906.857	17326
906.974	17372
907.091	17433
907.208	17440
907.324	17410
907.441	17322
907.557	17136
907.674	17128
907.79	17136
907.907	17117
908.023	17269
908.139	17132
908.256	17037
908.372	17029
908.488	17048
908.604	16889
908.72	16759
908.836	16889
908.952	16866
909.068	16839
909.184	16942
909.3	16831
909.415	16782
909.531	16786
909.647	16630
909.762	16599
909.878	16580
909.993	16649
910.108	16421
910.224	16451
910.339	16603
910.454	16493
910.57	16276
910.685	16306
910.8	16603
910.915	16508
911.03	16318
911.145	16181
911.259	16192
911.374	16116
911.489	16173
911.604	16086
911.718	15892
911.833	15835
911.947	15812
912.062	15717
912.176	15854
912.291	15823
912.405	15846
912.519	16010
912.633	16071
912.748	15918
912.862	15876
912.976	15698
913.09	15644
913.204	15713
913.318	15766
913.431	15838
913.545	15823
913.659	15713
913.772	15709
913.886	15553
914	15500
914.113	15663
914.226	15507
914.34	15629
914.453	15416
914.566	15614
914.68	15462
914.793	15351
914.906	15237
915.019	15058
915.132	15017
915.245	15138
915.358	15108
915.47	15058
915.583	15081
915.696	15100
915.809	15207
915.921	15222
916.034	15077
916.146	14990
916.259	15032
916.371	15138
916.483	15043
916.595	14998
916.708	14933
916.82	14986
916.932	14948
917.044	14948
917.156	14960
917.268	14754
917.38	14758
917.491	14804
917.603	14781
917.715	14796
917.826	14781
917.938	14701
918.049	14583
918.161	14598
918.272	14815
918.384	14830
918.495	14636
918.606	14530
918.717	14514
918.828	14530
918.939	14552
919.05	14541
919.161	14526
919.272	14237
919.383	14336
919.494	14583
919.604	14735
919.715	14469
919.826	14465
919.936	14381
920.047	14552
920.157	14408
920.267	14697
920.378	14537
920.488	14389
920.598	14697
920.708	14777
920.818	14651
920.928	14689
921.038	14921
921.148	14804
921.258	14450
921.368	14396
921.477	14248
921.587	14218
921.697	14145
921.806	14168
921.916	14138
922.025	14016
922.134	13868
922.244	13856
922.353	13944
922.462	13769
922.571	13742
922.68	13514
922.789	13468
922.898	13514
923.007	13453
923.116	13529
923.224	13491
923.333	13400
923.442	13320
923.55	13426
923.659	13377
923.767	13476
923.876	13312
923.984	13343
924.092	13217
924.201	13293
924.309	13198
924.417	13335
924.525	13095
924.633	13168
924.741	14001
924.849	12989
924.956	13141
925.064	12913
925.172	12905
925.279	12951
925.387	12958
925.494	12913
925.602	13122
925.709	12993
925.816	12802
925.924	12958
926.031	12897
926.138	12954
926.245	12947
926.352	12806
926.459	12981
926.566	12878
926.673	12867
926.779	12631
926.886	12665
926.993	12479
927.099	12513
927.206	12384
927.312	12464
927.419	12506
927.525	12525
927.631	12544
927.737	12391
927.843	12407
927.95	12285
928.056	12372
928.162	12353
928.267	12391
928.373	13080
928.479	12498
928.585	12190
928.69	12270
928.796	12254
928.901	12178
929.007	12045
929.112	12190
929.218	12197
929.323	12076
929.428	11984
929.533	12136
929.638	11980
929.743	12038
929.848	12079
929.953	11935
930.058	11897
930.163	11775
930.267	11798
930.372	11908
930.477	11672
930.581	11912
930.685	11836
930.79	11623
930.894	11752
930.998	11611
931.103	11695
931.207	11387
931.311	11372
931.415	11250
931.519	11048
931.623	11014
