Data from test_V78500241_1430.txt Node
Date: Fri Mar 25 15:19:48 CST 2022
User: usil
Spectrometer: V785-0024
Trigger mode: 0
Integration Time (sec): 4.000000E-1
Scans to average: 1
Nonlinearity correction enabled: false
Boxcar width: 0
Storing dark spectrum: false
XAxis mode: Wavelengths
Number of Pixels in Spectrum: 1024
>>>>>Begin Spectral Data<<<<<
801.071	28120
801.214	27934
801.356	27895
801.499	27671
801.641	27504
801.783	27526
801.926	27679
802.068	27530
802.211	27656
802.353	27492
802.496	27214
802.638	27367
802.78	27169
802.923	27176
803.065	27169
803.208	27180
803.35	27268
803.492	27294
803.635	27393
803.777	27359
803.919	27454
804.061	27682
804.204	27515
804.346	27447
804.488	27325
804.63	27485
804.773	27348
804.915	27500
805.057	27629
805.199	27454
805.341	27530
805.483	27606
805.626	27656
805.768	27439
805.91	27557
806.052	27523
806.194	27549
806.336	27797
806.478	27469
806.62	27561
806.762	27751
806.904	27751
807.046	28044
807.188	27979
807.33	27903
807.472	28059
807.614	27953
807.756	28097
807.898	27854
808.04	27914
808.182	27884
808.324	27857
808.465	27823
808.607	27987
808.749	28207
808.891	28253
809.033	28474
809.174	28299
809.316	28211
809.458	28166
809.6	28131
809.741	28306
809.883	28455
810.025	28497
810.166	28516
810.308	28626
810.45	28443
810.591	28523
810.733	28299
810.875	28166
811.016	28162
811.158	28154
811.299	28200
811.441	28131
811.582	28329
811.724	28158
811.865	28265
812.007	28204
812.148	28226
812.29	28333
812.431	28356
812.573	28535
812.714	28588
812.855	28725
812.997	28915
813.138	28968
813.279	28900
813.421	28809
813.562	28771
813.703	28538
813.845	28409
813.986	28249
814.127	28013
814.268	27918
814.41	27968
814.551	27842
814.692	27922
814.833	27934
814.974	27793
815.115	27934
815.256	27785
815.397	27720
815.539	27850
815.68	27652
815.821	27690
815.962	27812
816.103	27656
816.244	27637
816.385	27435
816.526	27477
816.666	27291
816.807	27154
816.948	27245
817.089	27367
817.23	27298
817.371	27283
817.512	27192
817.653	27222
817.793	27241
817.934	27119
818.075	27252
818.216	27310
818.356	27150
818.497	27081
818.638	26975
818.778	26895
818.919	26948
819.06	27074
819.2	27112
819.341	27138
819.481	27222
819.622	27435
819.762	27359
819.903	27336
820.043	27397
820.184	27374
820.324	27351
820.465	27367
820.605	27348
820.746	27408
820.886	27112
821.026	27260
821.167	27211
821.307	27306
821.447	27146
821.588	27093
821.728	26986
821.868	26823
822.008	26594
822.149	26609
822.289	26667
822.429	26389
822.569	26476
822.709	26305
822.849	26195
822.99	26084
823.13	26275
823.27	26256
823.41	25925
823.55	25936
823.69	26043
823.83	25978
823.97	25913
824.11	25677
824.25	25883
824.389	25746
824.529	25959
824.669	25746
824.809	25852
824.949	25814
825.089	25871
825.228	25780
825.368	25799
825.508	25738
825.648	25814
825.787	25734
825.927	25655
826.067	25643
826.206	25597
826.346	25655
826.485	25784
826.625	25712
826.765	25765
826.904	25780
827.044	25499
827.183	25544
827.323	25331
827.462	25601
827.601	25415
827.741	25521
827.88	25324
828.02	25324
828.159	25369
828.298	25400
828.437	25525
828.577	25247
828.716	25415
828.855	25289
828.994	25145
829.134	25050
829.273	25118
829.412	25118
829.551	25103
829.69	25008
829.829	25168
829.968	25228
830.107	25133
830.246	25103
830.385	25000
830.524	25019
830.663	25015
830.802	24764
830.941	24688
831.08	24681
831.219	24753
831.357	24738
831.496	24958
831.635	24760
831.774	24578
831.913	24544
832.051	24566
832.19	24429
832.329	24483
832.467	24483
832.606	24471
832.744	24372
832.883	24486
833.022	24452
833.16	24323
833.299	24429
833.437	24483
833.576	24582
833.714	24460
833.852	24505
833.991	24494
834.129	24574
834.267	24505
834.406	24544
834.544	24498
834.682	24509
834.821	24426
834.959	24544
835.097	24311
835.235	24464
835.373	24452
835.511	24323
835.65	24300
835.788	24213
835.926	24296
836.064	24136
836.202	24106
836.34	24365
836.478	24437
836.615	24152
836.753	24319
836.891	24251
837.029	24197
837.167	24125
837.305	24163
837.443	24190
837.58	23992
837.718	24304
837.856	24144
837.993	23939
838.131	24205
838.269	23920
838.406	23984
838.544	24011
838.681	23718
838.819	23813
838.956	23680
839.094	23558
839.231	23566
839.369	23828
839.506	23897
839.643	23847
839.781	23581
839.918	23684
840.055	23733
840.193	23577
840.33	23653
840.467	23398
840.604	23433
840.742	23687
840.879	23341
841.016	23478
841.153	23490
841.29	23398
841.427	23414
841.564	23501
841.701	23535
841.838	23364
841.975	23410
842.112	23360
842.249	23277
842.385	23178
842.522	23425
842.659	23185
842.796	23109
842.933	23239
843.069	23216
843.206	23083
843.343	23277
843.479	23174
843.616	23102
843.752	23147
843.889	23037
844.025	23204
844.162	22972
844.298	23181
844.435	22980
844.571	23033
844.708	22965
844.844	23147
844.98	23197
845.117	23113
845.253	22892
845.389	22839
845.525	22850
845.661	22816
845.798	22752
845.934	22885
846.07	22592
846.206	22717
846.342	22835
846.478	22831
846.614	22481
846.75	22485
846.886	22428
847.022	22527
847.158	22459
847.294	22424
847.429	22504
847.565	22421
847.701	22740
847.837	22287
847.972	22242
848.108	22242
848.244	22306
848.379	22063
848.515	22025
848.65	22044
848.786	22021
848.921	22002
849.057	22166
849.192	22177
849.328	22063
849.463	22097
849.598	21884
849.734	21903
849.869	21922
850.004	21842
850.14	21888
850.275	21800
850.41	21762
850.545	21724
850.68	21892
850.815	21785
850.95	21732
851.085	21903
851.22	21968
851.355	21918
851.49	21785
851.625	21850
851.76	21808
851.895	21701
852.03	21774
852.165	21648
852.299	21876
852.434	21899
852.569	21774
852.703	21880
852.838	21835
852.973	21854
853.107	21880
853.242	21797
853.376	21724
853.511	21591
853.645	21553
853.78	21698
853.914	21751
854.048	21496
854.183	21717
854.317	21553
854.451	21861
854.585	21633
854.72	21736
854.854	21667
854.988	21515
855.122	21675
855.256	21530
855.39	21648
855.524	21717
855.658	21698
855.792	21648
855.926	21610
856.06	21595
856.194	21755
856.327	21542
856.461	21591
856.595	21526
856.729	21629
856.862	21656
856.996	21789
857.13	21690
857.263	21804
857.397	21819
857.53	21549
857.664	21747
857.797	21713
857.931	21671
858.064	21682
858.197	21770
858.331	21561
858.464	21629
858.597	21633
858.731	21629
858.864	21648
858.997	21542
859.13	21652
859.263	21660
859.396	21652
859.529	21606
859.662	21576
859.795	21618
859.928	21610
860.061	21770
860.194	21888
860.327	21778
860.46	21557
860.592	21781
860.725	21819
860.858	21701
860.99	21606
861.123	21557
861.256	21656
861.388	21542
861.521	22147
861.653	21553
861.786	21443
861.918	21447
862.05	21557
862.183	21523
862.315	21610
862.447	21599
862.58	21561
862.712	21439
862.844	21317
862.976	21382
863.108	21363
863.24	21629
863.372	21298
863.504	21355
863.636	21431
863.768	21393
863.9	21370
864.032	21226
864.164	21329
864.296	21386
864.428	21481
864.559	21454
864.691	21500
864.823	21325
864.954	21287
865.086	21230
865.217	21260
865.349	21100
865.48	21241
865.612	21100
865.743	21256
865.875	21176
866.006	21252
866.137	21321
866.269	21230
866.4	21085
866.531	21241
866.662	21135
866.793	21066
866.924	21272
867.055	21287
867.186	21100
867.317	21180
867.448	21154
867.579	21131
867.71	21093
867.841	21116
867.972	21161
868.103	21176
868.233	21146
868.364	21154
868.495	21218
868.625	21302
868.756	21496
868.886	21325
869.017	21447
869.147	21477
869.278	21557
869.408	21420
869.539	21336
869.669	21431
869.799	21545
869.929	21561
870.06	21534
870.19	21736
870.32	21690
870.45	21732
870.58	21831
870.71	21895
870.84	21880
870.97	21663
871.1	21804
871.23	21903
871.36	21930
871.489	21808
871.619	21907
871.749	22063
871.879	22086
872.008	22093
872.138	22017
872.267	22025
872.397	21778
872.526	21850
872.656	21804
872.785	21808
872.915	21994
873.044	22131
873.173	21903
873.303	22013
873.432	22013
873.561	22196
873.69	21941
873.819	22063
873.948	22101
874.077	22029
874.206	21930
874.335	21922
874.464	22147
874.593	22150
874.722	22219
874.851	22162
874.979	22246
875.108	22413
875.237	22257
875.365	22169
875.494	22272
875.623	22105
875.751	22322
875.88	22242
876.008	22322
876.136	22375
876.265	22672
876.393	22660
876.521	22622
876.65	22630
876.778	22626
876.906	22466
877.034	22588
877.162	22478
877.29	22504
877.418	22584
877.546	22580
877.674	22519
877.802	22561
877.93	22538
878.058	22554
878.185	22478
878.313	22557
878.441	22542
878.568	22386
878.696	22493
878.824	22615
878.951	22656
879.079	22698
879.206	22896
879.333	22698
879.461	22573
879.588	22664
879.715	22698
879.842	22767
879.97	22626
880.097	22500
880.224	22375
880.351	22447
880.478	22382
880.605	22284
880.732	22360
880.859	22588
880.986	22356
881.112	22382
881.239	22337
881.366	22063
881.493	22029
881.619	22040
881.746	22109
881.872	21888
881.999	21827
882.125	21857
882.252	21876
882.378	21930
882.505	21968
882.631	21846
882.757	21648
882.883	21785
883.01	21682
883.136	21576
883.262	21633
883.388	21439
883.514	21724
883.64	21583
883.766	21610
883.892	21431
884.018	21500
884.143	21507
884.269	21701
884.395	21408
884.52	21329
884.646	21260
884.772	21188
884.897	21108
885.023	21310
885.148	21264
885.274	21420
885.399	21272
885.524	21332
885.65	21302
885.775	21260
885.9	21294
886.025	21416
886.15	21329
886.275	21233
886.4	21142
886.525	21252
886.65	21146
886.775	21233
886.9	21469
887.025	21428
887.149	21321
887.274	21028
887.399	21028
887.523	20971
887.648	20982
887.773	20990
887.897	21085
888.021	21116
888.146	21123
888.27	21066
888.395	21062
888.519	21142
888.643	21039
888.767	21188
888.891	20895
889.015	20979
889.139	20929
889.263	20785
889.387	20941
889.511	21036
889.635	21081
889.759	20762
889.883	20785
890.006	20792
890.13	20925
890.254	20708
890.377	20743
890.501	20583
890.624	20537
890.748	20609
890.871	20526
890.995	20503
891.118	20415
891.241	20282
891.364	20450
891.488	20533
891.611	20492
891.734	20389
891.857	20454
891.98	20499
892.103	20537
892.226	20355
892.349	20400
892.471	20229
892.594	20461
892.717	20259
892.839	20267
892.962	20225
893.085	20389
893.207	20278
893.33	20252
893.452	20206
893.575	20355
893.697	20313
893.819	20457
893.941	20514
894.064	20457
894.186	20221
894.308	20332
894.43	20309
894.552	20347
894.674	20423
894.796	20210
894.918	20309
895.04	20309
895.161	20256
895.283	20347
895.405	20248
895.526	20278
895.648	20305
895.769	20355
895.891	20408
896.012	20385
896.134	20336
896.255	20358
896.376	20259
896.498	20351
896.619	20301
896.74	20271
896.861	20347
896.982	20644
897.103	20667
897.224	20609
897.345	20583
897.466	20476
897.587	20625
897.708	20716
897.828	20556
897.949	20541
898.07	20351
898.19	20465
898.311	20568
898.431	20465
898.552	20636
898.672	20678
898.792	20560
898.913	20609
899.033	20446
899.153	20343
899.273	20206
899.393	20301
899.513	20366
899.633	20267
899.753	20305
899.873	20191
899.993	20396
900.113	20240
900.232	20214
900.352	20103
900.472	20168
900.591	20024
900.711	20119
900.83	20130
900.95	20206
901.069	19993
901.189	20035
901.308	19765
901.427	19696
901.546	19624
901.665	19681
901.784	19639
901.904	19506
902.023	19510
902.141	19240
902.26	19156
902.379	19221
902.498	19152
902.617	19072
902.735	19213
902.854	19129
902.973	19080
903.091	18844
903.21	18913
903.328	18806
903.446	18753
903.565	18696
903.683	18620
903.801	18578
903.919	18597
904.038	18490
904.156	18555
904.274	18403
904.392	18376
904.51	18285
904.627	18292
904.745	18407
904.863	18429
904.981	18129
905.098	18121
905.216	18155
905.334	18125
905.451	18003
905.569	18038
905.686	18076
905.803	17992
905.921	17783
906.038	17969
906.155	17882
906.272	17802
906.389	17691
906.506	17634
906.623	17547
906.74	17482
906.857	17490
906.974	17493
907.091	17634
907.208	17687
907.324	17672
907.441	17429
907.557	17391
907.674	17414
907.79	17181
907.907	17334
908.023	17410
908.139	17341
908.256	17166
908.372	17151
908.488	17280
908.604	17014
908.72	16908
908.836	16961
908.952	16949
909.068	16987
909.184	17018
909.3	17079
909.415	16995
909.531	16900
909.647	16691
909.762	16763
909.878	16698
909.993	16672
910.108	16729
910.224	16615
910.339	16706
910.454	16558
910.57	16584
910.685	16474
910.8	16691
910.915	16615
911.03	16443
911.145	16276
911.259	16230
911.374	16322
911.489	16322
911.604	16211
911.718	16086
911.833	16048
911.947	15983
912.062	15865
912.176	16074
912.291	16093
912.405	16067
912.519	16192
912.633	16196
912.748	16063
912.862	16032
912.976	15934
913.09	15781
913.204	15755
913.318	15865
913.431	15987
913.545	15850
913.659	15987
913.772	15899
913.886	15690
914	15580
914.113	15774
914.226	15732
914.34	15709
914.453	15530
914.566	15629
914.68	15523
914.793	15466
914.906	15310
915.019	15294
915.132	15188
915.245	15351
915.358	15275
915.47	15272
915.583	15222
915.696	15272
915.809	15325
915.921	15477
916.034	15173
916.146	15161
916.259	15085
916.371	15298
916.483	15256
916.595	15100
916.708	15100
916.82	15055
916.932	15116
917.044	15028
917.156	15028
917.268	14941
917.38	14899
917.491	14944
917.603	14929
917.715	14925
917.826	14986
917.938	14895
918.049	14826
918.161	14891
918.272	15039
918.384	14929
918.495	14838
918.606	14716
918.717	14625
918.828	14758
918.939	14785
919.05	14617
919.161	14564
919.272	14465
919.383	14533
919.494	14739
919.604	14800
919.715	14632
919.826	14480
919.936	14518
920.047	14785
920.157	14602
920.267	14910
920.378	14693
920.488	14545
920.598	14777
920.708	14925
920.818	14838
920.928	14735
921.038	14872
921.148	14929
921.258	14594
921.368	14503
921.477	14442
921.587	14385
921.697	14256
921.806	14324
921.916	14168
922.025	13989
922.134	13940
922.244	14005
922.353	14115
922.462	13963
922.571	13811
922.68	13776
922.789	13639
922.898	13693
923.007	13636
923.116	13605
923.224	13578
923.333	13609
923.442	13544
923.55	13407
923.659	13460
923.767	13628
923.876	13388
923.984	13499
924.092	13396
924.201	13422
924.309	13365
924.417	13358
924.525	13278
924.633	13346
924.741	14088
924.849	13137
924.956	13312
925.064	13122
925.172	13053
925.279	12951
925.387	13072
925.494	13057
925.602	13175
925.709	13122
925.816	12894
925.924	12993
926.031	13053
926.138	12932
926.245	13080
926.352	12962
926.459	13027
926.566	13038
926.673	12909
926.779	12810
926.886	12768
926.993	12688
927.099	12601
927.206	12616
927.312	12513
927.419	12631
927.525	12589
927.631	12547
927.737	12517
927.843	12509
927.95	12365
928.056	12433
928.162	12414
928.267	12517
928.373	12985
928.479	12494
928.585	12289
928.69	12403
928.796	12372
928.901	12330
929.007	12117
929.112	12304
929.218	12209
929.323	12235
929.428	12171
929.533	12292
929.638	12091
929.743	12098
929.848	12144
929.953	12098
930.058	12026
930.163	11813
930.267	11809
930.372	12038
930.477	11790
930.581	11992
930.685	11901
930.79	11824
930.894	11764
930.998	11634
931.103	11889
931.207	11509
931.311	11364
931.415	11204
931.519	11147
931.623	11086
