Data from test_V78500241_2725.txt Node
Date: Fri Mar 25 15:28:50 CST 2022
User: usil
Spectrometer: V785-0024
Trigger mode: 0
Integration Time (sec): 4.000000E-1
Scans to average: 1
Nonlinearity correction enabled: false
Boxcar width: 0
Storing dark spectrum: false
XAxis mode: Wavelengths
Number of Pixels in Spectrum: 1024
>>>>>Begin Spectral Data<<<<<
801.071	27321
801.214	27062
801.356	26868
801.499	26864
801.641	26758
801.783	26678
801.926	26781
802.068	26663
802.211	26640
802.353	26621
802.496	26476
802.638	26301
802.78	26377
802.923	26252
803.065	26134
803.208	26233
803.35	26214
803.492	26461
803.635	26518
803.777	26511
803.919	26495
804.061	26830
804.204	26575
804.346	26442
804.488	26385
804.63	26575
804.773	26393
804.915	26549
805.057	26564
805.199	26465
805.341	26606
805.483	26655
805.626	26632
805.768	26560
805.91	26545
806.052	26511
806.194	26571
806.336	26720
806.478	26594
806.62	26575
806.762	26678
806.904	26857
807.046	27001
807.188	26902
807.33	27070
807.472	27085
807.614	27036
807.756	26967
807.898	26849
808.04	26724
808.182	26819
808.324	26845
808.465	26887
808.607	26940
808.749	27252
808.891	27291
809.033	27378
809.174	27237
809.316	27241
809.458	27188
809.6	27043
809.741	27344
809.883	27321
810.025	27545
810.166	27450
810.308	27523
810.45	27405
810.591	27420
810.733	27332
810.875	27070
811.016	27096
811.158	27173
811.299	27291
811.441	27378
811.582	27401
811.724	27154
811.865	27112
812.007	27165
812.148	27051
812.29	27161
812.431	27313
812.573	27538
812.714	27603
812.855	27694
812.997	27842
813.138	27831
813.279	27835
813.421	27660
813.562	27485
813.703	27435
813.845	27447
813.986	27058
814.127	26990
814.268	26807
814.41	26842
814.551	26883
814.692	26887
814.833	26811
814.974	26804
815.115	26880
815.256	26754
815.397	26701
815.539	26632
815.68	26575
815.821	26492
815.962	26625
816.103	26598
816.244	26579
816.385	26412
816.526	26370
816.666	26214
816.807	26206
816.948	26244
817.089	26199
817.23	26134
817.371	26122
817.512	26157
817.653	26183
817.793	26039
817.934	26229
818.075	26172
818.216	26134
818.356	26054
818.497	25993
818.638	25712
818.778	25803
818.919	25837
819.06	25795
819.2	26005
819.341	26115
819.481	26130
819.622	26233
819.762	26355
819.903	26343
820.043	26176
820.184	26206
820.324	26263
820.465	26221
820.605	26157
820.746	26187
820.886	26062
821.026	26183
821.167	26149
821.307	26145
821.447	26122
821.588	25974
821.728	25803
821.868	25696
822.008	25639
822.149	25487
822.289	25601
822.429	25403
822.569	25217
822.709	25297
822.849	25076
822.99	25114
823.13	25012
823.27	25012
823.41	25015
823.55	24901
823.69	24920
823.83	24951
823.97	24897
824.11	24726
824.25	24563
824.389	24578
824.529	24760
824.669	24707
824.809	24776
824.949	24696
825.089	24711
825.228	24741
825.368	24517
825.508	24547
825.648	24426
825.787	24642
825.927	24734
826.067	24604
826.206	24559
826.346	24715
826.485	24521
826.625	24601
826.765	24669
826.904	24593
827.044	24388
827.183	24365
827.323	24300
827.462	24285
827.601	24327
827.741	24300
827.88	24361
828.02	24155
828.159	24155
828.298	24395
828.437	24357
828.577	24209
828.716	24334
828.855	24117
828.994	23939
829.134	23961
829.273	23992
829.412	23942
829.551	23897
829.69	23973
829.829	23996
829.968	24197
830.107	24034
830.246	24022
830.385	23920
830.524	24007
830.663	23843
830.802	23634
830.941	23646
831.08	23562
831.219	23627
831.357	23634
831.496	23771
831.635	23531
831.774	23577
831.913	23520
832.051	23410
832.19	23395
832.329	23543
832.467	23258
832.606	23140
832.744	23258
832.883	23326
833.022	23208
833.16	23337
833.299	23360
833.437	23227
833.576	23254
833.714	23368
833.852	23299
833.991	23318
834.129	23417
834.267	23417
834.406	23398
834.544	23368
834.682	23467
834.821	23372
834.959	23634
835.097	23372
835.235	23341
835.373	23284
835.511	23330
835.65	23162
835.788	23098
835.926	23105
836.064	23102
836.202	22995
836.34	23136
836.478	23273
836.615	23178
836.753	23242
836.891	23220
837.029	23197
837.167	23140
837.305	23117
837.443	23064
837.58	23067
837.718	23159
837.856	22999
837.993	22869
838.131	23037
838.269	22934
838.406	22991
838.544	22710
838.681	22725
838.819	22710
838.956	22466
839.094	22379
839.231	22497
839.369	22634
839.506	22816
839.643	22729
839.781	22516
839.918	22516
840.055	22527
840.193	22451
840.33	22363
840.467	22546
840.604	22508
840.742	22713
840.879	22382
841.016	22344
841.153	22402
841.29	22493
841.427	22371
841.564	22447
841.701	22447
841.838	22382
841.975	22325
842.112	22405
842.249	22238
842.385	22177
842.522	22398
842.659	22291
842.796	22192
842.933	22116
843.069	22147
843.206	22169
843.343	22280
843.479	22242
843.616	22139
843.752	21975
843.889	22059
844.025	22192
844.162	22048
844.298	22025
844.435	21911
844.571	21960
844.708	22029
844.844	22173
844.98	22128
845.117	21949
845.253	21991
845.389	21808
845.525	21888
845.661	21736
845.798	21778
845.934	21770
846.07	21557
846.206	21762
846.342	21800
846.478	21728
846.614	21393
846.75	21367
846.886	21542
847.022	21519
847.158	21473
847.294	21454
847.429	21428
847.565	21412
847.701	21724
847.837	21226
847.972	21207
848.108	21325
848.244	21359
848.379	21062
848.515	21039
848.65	21104
848.786	21043
848.921	21066
849.057	21074
849.192	21093
849.328	21017
849.463	20994
849.598	21039
849.734	20952
849.869	21013
850.004	20769
850.14	20834
850.275	20739
850.41	20701
850.545	20788
850.68	20838
850.815	20743
850.95	20823
851.085	20891
851.22	20800
851.355	20781
851.49	20769
851.625	20746
851.76	20838
851.895	20712
852.03	20796
852.165	20746
852.299	20811
852.434	20864
852.569	20823
852.703	20781
852.838	20792
852.973	20754
853.107	20849
853.242	20777
853.376	20625
853.511	20522
853.645	20663
853.78	20716
853.914	20560
854.048	20606
854.183	20552
854.317	20689
854.451	20880
854.585	20629
854.72	20545
854.854	20708
854.988	20526
855.122	20598
855.256	20469
855.39	20575
855.524	20678
855.658	20587
855.792	20667
855.926	20651
856.06	20651
856.194	20689
856.327	20625
856.461	20549
856.595	20655
856.729	20598
856.862	20834
856.996	20617
857.13	20724
857.263	20648
857.397	20792
857.53	20625
857.664	20587
857.797	20716
857.931	20644
858.064	20541
858.197	20804
858.331	20590
858.464	20575
858.597	20526
858.731	20659
858.864	20545
858.997	20636
859.13	20640
859.263	20648
859.396	20743
859.529	20541
859.662	20533
859.795	20625
859.928	20625
860.061	20670
860.194	20891
860.327	20621
860.46	20659
860.592	20731
860.725	20735
860.858	20883
860.99	20674
861.123	20632
861.256	20598
861.388	20735
861.521	21252
861.653	20552
861.786	20457
861.918	20503
862.05	20484
862.183	20507
862.315	20556
862.447	20606
862.58	20609
862.712	20381
862.844	20244
862.976	20381
863.108	20355
863.24	20731
863.372	20328
863.504	20415
863.636	20301
863.768	20457
863.9	20317
864.032	20263
864.164	20282
864.296	20427
864.428	20434
864.559	20446
864.691	20495
864.823	20393
864.954	20210
865.086	20244
865.217	20157
865.349	20225
865.48	20404
865.612	20385
865.743	20377
865.875	20320
866.006	20218
866.137	20343
866.269	20271
866.4	20210
866.531	20248
866.662	20244
866.793	20180
866.924	20210
867.055	20195
867.186	20252
867.317	20362
867.448	20115
867.579	20195
867.71	20138
867.841	20145
867.972	20153
868.103	20161
868.233	20278
868.364	20103
868.495	20343
868.625	20446
868.756	20465
868.886	20347
869.017	20457
869.147	20514
869.278	20602
869.408	20518
869.539	20446
869.669	20522
869.799	20370
869.929	20621
870.06	20522
870.19	20781
870.32	20705
870.45	20838
870.58	20693
870.71	20944
870.84	21013
870.97	20765
871.1	20735
871.23	20975
871.36	21020
871.489	20857
871.619	20944
871.749	21062
871.879	20960
872.008	21028
872.138	21028
872.267	21074
872.397	21043
872.526	20861
872.656	20872
872.785	20857
872.915	21089
873.044	21195
873.173	21058
873.303	21077
873.432	21108
873.561	21161
873.69	21123
873.819	21138
873.948	21207
874.077	21108
874.206	20998
874.335	21001
874.464	21089
874.593	21233
874.722	21275
874.851	21340
874.979	21389
875.108	21344
875.237	21393
875.365	21218
875.494	21233
875.623	21192
875.751	21287
875.88	21374
876.008	21500
876.136	21534
876.265	21698
876.393	21694
876.521	21679
876.65	21762
876.778	21679
876.906	21561
877.034	21564
877.162	21633
877.29	21610
877.418	21656
877.546	21629
877.674	21587
877.802	21652
877.93	21644
878.058	21599
878.185	21644
878.313	21545
878.441	21595
878.568	21496
878.696	21511
878.824	21542
878.951	21618
879.079	21804
879.206	21972
879.333	21850
879.461	21816
879.588	21766
879.715	21861
879.842	21911
879.97	21743
880.097	21454
880.224	21545
880.351	21458
880.478	21519
880.605	21561
880.732	21519
880.859	21774
880.986	21500
881.112	21485
881.239	21401
881.366	21298
881.493	21081
881.619	21116
881.746	21081
881.872	21085
881.999	21058
882.125	21146
882.252	21100
882.378	20933
882.505	21119
882.631	20952
882.757	20826
882.883	20914
883.01	20731
883.136	20750
883.262	20651
883.388	20640
883.514	20762
883.64	20777
883.766	20667
883.892	20556
884.018	20552
884.143	20678
884.269	20640
884.395	20396
884.52	20465
884.646	20476
884.772	20282
884.897	20267
885.023	20244
885.148	20636
885.274	20526
885.399	20495
885.524	20480
885.65	20381
885.775	20389
885.9	20419
886.025	20438
886.15	20476
886.275	20313
886.4	20252
886.525	20298
886.65	20324
886.775	20313
886.9	20503
887.025	20568
887.149	20282
887.274	20271
887.399	20248
887.523	20286
887.648	20115
887.773	20035
887.897	20393
888.021	20271
888.146	20149
888.27	20362
888.395	20233
888.519	20210
888.643	20221
888.767	20229
888.891	20134
889.015	19951
889.139	19974
889.263	19951
889.387	20126
889.511	20142
889.635	20054
889.759	20001
889.883	19967
890.006	20027
890.13	20161
890.254	19890
890.377	19982
890.501	19894
890.624	19727
890.748	19715
890.871	19723
890.995	19567
891.118	19655
891.241	19715
891.364	19605
891.488	19708
891.611	19662
891.734	19609
891.857	19658
891.98	19662
892.103	19578
892.226	19662
892.349	19647
892.471	19411
892.594	19506
892.717	19655
892.839	19460
892.962	19510
893.085	19495
893.207	19575
893.33	19362
893.452	19457
893.575	19525
893.697	19472
893.819	19772
893.941	19776
894.064	19597
894.186	19521
894.308	19415
894.43	19609
894.552	19776
894.674	19674
894.796	19476
894.918	19487
895.04	19457
895.161	19480
895.283	19476
895.405	19403
895.526	19476
895.648	19491
895.769	19518
895.891	19518
896.012	19643
896.134	19537
896.255	19449
896.376	19540
896.498	19506
896.619	19597
896.74	19525
896.861	19639
896.982	19772
897.103	19989
897.224	19742
897.345	19647
897.466	19674
897.587	19670
897.708	19837
897.828	19811
897.949	19597
898.07	19609
898.19	19780
898.311	19913
898.431	19712
898.552	19780
898.672	19830
898.792	19814
898.913	19814
899.033	19571
899.153	19674
899.273	19487
899.393	19559
899.513	19597
899.633	19525
899.753	19624
899.873	19407
899.993	19506
900.113	19419
900.232	19441
900.352	19415
900.472	19354
900.591	19301
900.711	19316
900.83	19206
900.95	19411
901.069	19236
901.189	19019
901.308	18928
901.427	18764
901.546	18897
901.665	18867
901.784	18844
901.904	18749
902.023	18688
902.141	18471
902.26	18437
902.379	18403
902.498	18475
902.617	18323
902.735	18410
902.854	18380
902.973	18388
903.091	18026
903.21	18148
903.328	18117
903.446	18011
903.565	17836
903.683	17916
903.801	17802
903.919	17794
904.038	17851
904.156	17676
904.274	17695
904.392	17714
904.51	17718
904.627	17634
904.745	17646
904.863	17695
904.981	17570
905.098	17284
905.216	17387
905.334	17345
905.451	17337
905.569	17231
905.686	17258
905.803	17265
905.921	17193
906.038	17136
906.155	17079
906.272	17045
906.389	17067
906.506	16896
906.623	16873
906.74	16873
906.857	16698
906.974	16911
907.091	16965
907.208	17003
907.324	16847
907.441	16641
907.557	16588
907.674	16634
907.79	16485
907.907	16641
908.023	16569
908.139	16561
908.256	16546
908.372	16516
908.488	16538
908.604	16299
908.72	16265
908.836	16333
908.952	16253
909.068	16352
909.184	16447
909.3	16306
909.415	16295
909.531	16363
909.647	16112
909.762	16097
909.878	15941
909.993	15991
910.108	15934
910.224	15915
910.339	15983
910.454	15793
910.57	15857
910.685	15816
910.8	16036
910.915	15979
911.03	15865
911.145	15705
911.259	15629
911.374	15709
911.489	15545
911.604	15511
911.718	15382
911.833	15298
911.947	15435
912.062	15374
912.176	15443
912.291	15428
912.405	15507
912.519	15641
912.633	15606
912.748	15450
912.862	15275
912.976	15192
913.09	15020
913.204	15165
913.318	15283
913.431	15233
913.545	15237
913.659	15336
913.772	15142
913.886	15070
914	14857
914.113	15142
914.226	15108
914.34	15176
914.453	14914
914.566	15176
914.68	14792
914.793	14914
914.906	14811
915.019	14629
915.132	14670
915.245	14674
915.358	14640
915.47	14617
915.583	14648
915.696	14701
915.809	14632
915.921	14746
916.034	14514
916.146	14522
916.259	14446
916.371	14552
916.483	14564
916.595	14480
916.708	14427
916.82	14484
916.932	14404
917.044	14396
917.156	14385
917.268	14248
917.38	14347
917.491	14317
917.603	14187
917.715	14294
917.826	14351
917.938	14221
918.049	14024
918.161	14229
918.272	14366
918.384	14385
918.495	14237
918.606	14138
918.717	13963
918.828	14088
918.939	14058
919.05	13944
919.161	13986
919.272	13856
919.383	13856
919.494	14138
919.604	14214
919.715	14069
919.826	13974
919.936	14012
920.047	14046
920.157	14024
920.267	14195
920.378	13940
920.488	13940
920.598	14309
920.708	14362
920.818	14202
920.928	14199
921.038	14408
921.148	14332
921.258	14050
921.368	13890
921.477	13822
921.587	13833
921.697	13632
921.806	13826
921.916	13689
922.025	13559
922.134	13483
922.244	13365
922.353	13487
922.462	13350
922.571	13293
922.68	13171
922.789	13171
922.898	13133
923.007	13110
923.116	13072
923.224	13107
923.333	13095
923.442	12977
923.55	13012
923.659	13004
923.767	13107
923.876	12875
923.984	12989
924.092	12924
924.201	12973
924.309	12875
924.417	12962
924.525	12791
924.633	12791
924.741	13727
924.849	12646
924.956	12821
925.064	12635
925.172	12555
925.279	12536
925.387	12593
925.494	12566
925.602	12772
925.709	12639
925.816	12410
925.924	12555
926.031	12627
926.138	12509
926.245	12566
926.352	12414
926.459	12525
926.566	12574
926.673	12448
926.779	12384
926.886	12365
926.993	12251
927.099	12102
927.206	12140
927.312	12102
927.419	12129
927.525	12140
927.631	12205
927.737	12026
927.843	11893
927.95	11855
928.056	11935
928.162	12007
928.267	12019
928.373	12536
928.479	11988
928.585	11916
928.69	11851
928.796	11931
928.901	11847
929.007	11646
929.112	11904
929.218	11786
929.323	11729
929.428	11665
929.533	11851
929.638	11589
929.743	11665
929.848	11630
929.953	11657
930.058	11634
930.163	11459
930.267	11406
930.372	11547
930.477	11387
930.581	11573
930.685	11486
930.79	11334
930.894	11303
930.998	11273
931.103	11448
931.207	10980
931.311	10961
931.415	10908
931.519	10752
931.623	10649
