Data from test_V78500241_2706.txt Node
Date: Fri Mar 25 15:28:42 CST 2022
User: usil
Spectrometer: V785-0024
Trigger mode: 0
Integration Time (sec): 4.000000E-1
Scans to average: 1
Nonlinearity correction enabled: false
Boxcar width: 0
Storing dark spectrum: false
XAxis mode: Wavelengths
Number of Pixels in Spectrum: 1024
>>>>>Begin Spectral Data<<<<<
801.071	27135
801.214	27085
801.356	26792
801.499	26689
801.641	26670
801.783	26781
801.926	26617
802.068	26697
802.211	26606
802.353	26560
802.496	26252
802.638	26221
802.78	26248
802.923	26195
803.065	26210
803.208	26263
803.35	26244
803.492	26374
803.635	26347
803.777	26267
803.919	26492
804.061	26739
804.204	26427
804.346	26271
804.488	26301
804.63	26343
804.773	26438
804.915	26488
805.057	26511
805.199	26381
805.341	26404
805.483	26590
805.626	26507
805.768	26343
805.91	26503
806.052	26568
806.194	26377
806.336	26743
806.478	26552
806.62	26571
806.762	26716
806.904	26834
807.046	27070
807.188	27074
807.33	26967
807.472	27070
807.614	26800
807.756	26937
807.898	26765
808.04	26811
808.182	26735
808.324	26804
808.465	26781
808.607	26906
808.749	27123
808.891	27184
809.033	27317
809.174	27154
809.316	27100
809.458	27055
809.6	27127
809.741	27214
809.883	27131
810.025	27386
810.166	27416
810.308	27424
810.45	27287
810.591	27370
810.733	27173
810.875	27131
811.016	26891
811.158	27009
811.299	27165
811.441	27294
811.582	27351
811.724	27123
811.865	27142
812.007	27066
812.148	27192
812.29	26933
812.431	27294
812.573	27431
812.714	27439
812.855	27656
812.997	27679
813.138	27717
813.279	27599
813.421	27572
813.562	27622
813.703	27401
813.845	27412
813.986	26952
814.127	26895
814.268	26769
814.41	26674
814.551	26697
814.692	26754
814.833	26575
814.974	26720
815.115	26712
815.256	26518
815.397	26754
815.539	26678
815.68	26609
815.821	26450
815.962	26571
816.103	26560
816.244	26453
816.385	26221
816.526	26419
816.666	26267
816.807	25932
816.948	26180
817.089	26065
817.23	26058
817.371	26012
817.512	25932
817.653	25917
817.793	26115
817.934	26122
818.075	25799
818.216	26024
818.356	25986
818.497	25883
818.638	25871
818.778	25803
818.919	25666
819.06	25875
819.2	25875
819.341	25993
819.481	25989
819.622	26180
819.762	26153
819.903	26187
820.043	26103
820.184	26176
820.324	26202
820.465	26248
820.605	25993
820.746	26183
820.886	25955
821.026	26073
821.167	25970
821.307	26103
821.447	25928
821.588	25989
821.728	25868
821.868	25594
822.008	25544
822.149	25491
822.289	25540
822.429	25206
822.569	25160
822.709	25183
822.849	25015
822.99	24962
823.13	24951
823.27	24932
823.41	24859
823.55	24837
823.69	24859
823.83	24890
823.97	24700
824.11	24715
824.25	24589
824.389	24597
824.529	24673
824.669	24578
824.809	24859
824.949	24559
825.089	24654
825.228	24620
825.368	24437
825.508	24422
825.648	24429
825.787	24505
825.927	24471
826.067	24486
826.206	24357
826.346	24437
826.485	24498
826.625	24357
826.765	24604
826.904	24536
827.044	24292
827.183	24224
827.323	24144
827.462	24281
827.601	24258
827.741	24034
827.88	24148
828.02	24213
828.159	24095
828.298	24224
828.437	24224
828.577	24053
828.716	24258
828.855	24098
828.994	23920
829.134	23889
829.273	23958
829.412	23870
829.551	23809
829.69	23840
829.829	23828
829.968	24038
830.107	23984
830.246	23840
830.385	23859
830.524	23809
830.663	23764
830.802	23733
830.941	23634
831.08	23417
831.219	23596
831.357	23570
831.496	23638
831.635	23425
831.774	23543
831.913	23379
832.051	23258
832.19	23254
832.329	23151
832.467	23307
832.606	23060
832.744	23075
832.883	23105
833.022	23185
833.16	23117
833.299	23242
833.437	23288
833.576	23341
833.714	23242
833.852	23292
833.991	23326
834.129	23326
834.267	23326
834.406	23284
834.544	23292
834.682	23311
834.821	23197
834.959	23303
835.097	23269
835.235	23136
835.373	23231
835.511	23254
835.65	23151
835.788	23029
835.926	22949
836.064	22927
836.202	22995
836.34	23121
836.478	23258
836.615	23003
836.753	23151
836.891	23174
837.029	23185
837.167	23094
837.305	22930
837.443	22946
837.58	22869
837.718	23003
837.856	22927
837.993	22862
838.131	22927
838.269	22759
838.406	23044
838.544	22790
838.681	22523
838.819	22569
838.956	22421
839.094	22497
839.231	22466
839.369	22516
839.506	22824
839.643	22801
839.781	22405
839.918	22405
840.055	22489
840.193	22500
840.33	22367
840.467	22344
840.604	22497
840.742	22683
840.879	22166
841.016	22360
841.153	22242
841.29	22493
841.427	22417
841.564	22352
841.701	22379
841.838	22356
841.975	22185
842.112	22394
842.249	22280
842.385	22215
842.522	22417
842.659	22192
842.796	22078
842.933	22090
843.069	21953
843.206	22128
843.343	22215
843.479	22204
843.616	22143
843.752	21922
843.889	21865
844.025	21930
844.162	21865
844.298	22120
844.435	21945
844.571	21759
844.708	22010
844.844	22059
844.98	22021
845.117	21968
845.253	21728
845.389	21736
845.525	21831
845.661	21648
845.798	21705
845.934	21671
846.07	21549
846.206	21572
846.342	21827
846.478	21701
846.614	21424
846.75	21401
846.886	21310
847.022	21428
847.158	21374
847.294	21393
847.429	21477
847.565	21355
847.701	21606
847.837	21062
847.972	21028
848.108	21237
848.244	21085
848.379	20990
848.515	20956
848.65	20902
848.786	21093
848.921	20975
849.057	21058
849.192	21009
849.328	21039
849.463	20975
849.598	20857
849.734	20727
849.869	20849
850.004	20739
850.14	20731
850.275	20845
850.41	20712
850.545	20701
850.68	20686
850.815	20739
850.95	20777
851.085	20941
851.22	20727
851.355	20678
851.49	20735
851.625	20769
851.76	20826
851.895	20644
852.03	20625
852.165	20720
852.299	20701
852.434	20804
852.569	20724
852.703	20659
852.838	20705
852.973	20891
853.107	20807
853.242	20659
853.376	20552
853.511	20568
853.645	20511
853.78	20602
853.914	20571
854.048	20495
854.183	20503
854.317	20720
854.451	20712
854.585	20454
854.72	20602
854.854	20629
854.988	20571
855.122	20530
855.256	20412
855.39	20526
855.524	20606
855.658	20587
855.792	20583
855.926	20587
856.06	20617
856.194	20674
856.327	20537
856.461	20465
856.595	20355
856.729	20556
856.862	20663
856.996	20575
857.13	20689
857.263	20594
857.397	20648
857.53	20545
857.664	20568
857.797	20727
857.931	20651
858.064	20602
858.197	20659
858.331	20621
858.464	20541
858.597	20454
858.731	20583
858.864	20431
858.997	20518
859.13	20450
859.263	20533
859.396	20640
859.529	20495
859.662	20480
859.795	20396
859.928	20488
860.061	20712
860.194	20701
860.327	20667
860.46	20640
860.592	20648
860.725	20777
860.858	20617
860.99	20503
861.123	20530
861.256	20594
861.388	20488
861.521	21184
861.653	20507
861.786	20347
861.918	20438
862.05	20446
862.183	20488
862.315	20522
862.447	20556
862.58	20396
862.712	20324
862.844	20389
862.976	20396
863.108	20423
863.24	20705
863.372	20313
863.504	20180
863.636	20317
863.768	20320
863.9	20252
864.032	20240
864.164	20237
864.296	20286
864.428	20362
864.559	20301
864.691	20336
864.823	20153
864.954	20210
865.086	20263
865.217	20191
865.349	20084
865.48	20096
865.612	20100
865.743	20370
865.875	20298
866.006	20210
866.137	20172
866.269	20202
866.4	20237
866.531	20153
866.662	20084
866.793	20164
866.924	20088
867.055	20100
867.186	20024
867.317	20035
867.448	20191
867.579	20103
867.71	20012
867.841	20027
867.972	20126
868.103	20096
868.233	20062
868.364	20088
868.495	20263
868.625	20328
868.756	20556
868.886	20305
869.017	20396
869.147	20488
869.278	20355
869.408	20324
869.539	20317
869.669	20355
869.799	20332
869.929	20606
870.06	20358
870.19	20758
870.32	20613
870.45	20674
870.58	20697
870.71	20921
870.84	20720
870.97	20762
871.1	20842
871.23	20948
871.36	20960
871.489	20906
871.619	20994
871.749	20868
871.879	21123
872.008	21123
872.138	20921
872.267	20986
872.397	20796
872.526	20876
872.656	20781
872.785	20826
872.915	21020
873.044	21039
873.173	20921
873.303	21024
873.432	20963
873.561	21058
873.69	21081
873.819	21066
873.948	21203
874.077	20967
874.206	20906
874.335	20994
874.464	21055
874.593	21291
874.722	21245
874.851	21237
874.979	21275
875.108	21397
875.237	21165
875.365	21161
875.494	21180
875.623	21355
875.751	21211
875.88	21161
876.008	21416
876.136	21469
876.265	21724
876.393	21709
876.521	21667
876.65	21663
876.778	21549
876.906	21576
877.034	21622
877.162	21587
877.29	21538
877.418	21682
877.546	21561
877.674	21667
877.802	21553
877.93	21591
878.058	21405
878.185	21466
878.313	21545
878.441	21698
878.568	21378
878.696	21542
878.824	21663
878.951	21694
879.079	21709
879.206	21854
879.333	21694
879.461	21698
879.588	21656
879.715	21648
879.842	21854
879.97	21648
880.097	21370
880.224	21374
880.351	21473
880.478	21351
880.605	21378
880.732	21336
880.859	21553
880.986	21462
881.112	21382
881.239	21135
881.366	21192
881.493	21066
881.619	21028
881.746	21005
881.872	21005
881.999	20895
882.125	20880
882.252	20944
882.378	21009
882.505	21089
882.631	20788
882.757	20735
882.883	20708
883.01	20785
883.136	20560
883.262	20530
883.388	20587
883.514	20750
883.64	20716
883.766	20583
883.892	20419
884.018	20526
884.143	20651
884.269	20663
884.395	20419
884.52	20355
884.646	20309
884.772	20278
884.897	20237
885.023	20393
885.148	20336
885.274	20419
885.399	20389
885.524	20317
885.65	20301
885.775	20400
885.9	20358
886.025	20609
886.15	20408
886.275	20187
886.4	20294
886.525	20343
886.65	20275
886.775	20290
886.9	20450
887.025	20590
887.149	20252
887.274	20195
887.399	20065
887.523	19989
887.648	20096
887.773	19997
887.897	20103
888.021	20252
888.146	20069
888.27	20096
888.395	20100
888.519	20142
888.643	20103
888.767	20054
888.891	20096
889.015	20103
889.139	20012
889.263	19898
889.387	20058
889.511	20122
889.635	20024
889.759	19936
889.883	19944
890.006	19898
890.13	19909
890.254	19814
890.377	19841
890.501	19818
890.624	19750
890.748	19681
890.871	19677
890.995	19426
891.118	19434
891.241	19601
891.364	19613
891.488	19582
891.611	19518
891.734	19525
891.857	19533
891.98	19582
892.103	19510
892.226	19518
892.349	19441
892.471	19308
892.594	19502
892.717	19537
892.839	19392
892.962	19403
893.085	19468
893.207	19514
893.33	19320
893.452	19346
893.575	19438
893.697	19491
893.819	19537
893.941	19655
894.064	19510
894.186	19350
894.308	19430
894.43	19563
894.552	19658
894.674	19499
894.796	19343
894.918	19480
895.04	19324
895.161	19563
895.283	19449
895.405	19483
895.526	19449
895.648	19472
895.769	19441
895.891	19445
896.012	19430
896.134	19396
896.255	19480
896.376	19343
896.498	19392
896.619	19472
896.74	19514
896.861	19487
896.982	19708
897.103	19750
897.224	19719
897.345	19738
897.466	19677
897.587	19594
897.708	19712
897.828	19731
897.949	19681
898.07	19563
898.19	19586
898.311	19727
898.431	19514
898.552	19651
898.672	19712
898.792	19765
898.913	19613
899.033	19533
899.153	19422
899.273	19388
899.393	19464
899.513	19514
899.633	19441
899.753	19518
899.873	19403
899.993	19426
900.113	19365
900.232	19430
900.352	19324
900.472	19240
900.591	19263
900.711	19289
900.83	19282
900.95	19301
901.069	19209
901.189	19114
901.308	18890
901.427	18776
901.546	18722
901.665	18764
901.784	18779
901.904	18696
902.023	18597
902.141	18486
902.26	18346
902.379	18357
902.498	18365
902.617	18273
902.735	18369
902.854	18258
902.973	18232
903.091	18011
903.21	17939
903.328	18022
903.446	17988
903.565	17889
903.683	17866
903.801	17718
903.919	17714
904.038	17718
904.156	17619
904.274	17707
904.392	17592
904.51	17402
904.627	17524
904.745	17577
904.863	17604
904.981	17421
905.098	17220
905.216	17330
905.334	17197
905.451	17242
905.569	17284
905.686	17265
905.803	17296
905.921	17071
906.038	17178
906.155	17181
906.272	16919
906.389	16980
906.506	16908
906.623	16889
906.74	16820
906.857	16694
906.974	16641
907.091	16877
907.208	16908
907.324	16889
907.441	16801
907.557	16584
907.674	16561
907.79	16481
907.907	16466
908.023	16550
908.139	16459
908.256	16508
908.372	16318
908.488	16440
908.604	16265
908.72	16268
908.836	16207
908.952	16276
909.068	16337
909.184	16367
909.3	16219
909.415	16120
909.531	16177
909.647	16006
909.762	15964
909.878	15953
909.993	15972
910.108	15880
910.224	16002
910.339	15888
910.454	15808
910.57	15728
910.685	15652
910.8	15926
910.915	15850
911.03	15888
911.145	15591
911.259	15523
911.374	15519
911.489	15454
911.604	15481
911.718	15405
911.833	15405
911.947	15184
912.062	15241
912.176	15367
912.291	15351
912.405	15355
912.519	15580
912.633	15496
912.748	15332
912.862	15294
912.976	15264
913.09	15017
913.204	15013
913.318	15195
913.431	15275
913.545	15192
913.659	15306
913.772	15047
913.886	14975
914	14994
914.113	15051
914.226	14971
914.34	15055
914.453	14857
914.566	14925
914.68	14800
914.793	14849
914.906	14629
915.019	14583
915.132	14423
915.245	14613
915.358	14606
915.47	14564
915.583	14564
915.696	14621
915.809	14750
915.921	14708
916.034	14583
916.146	14537
916.259	14552
916.371	14556
916.483	14522
916.595	14404
916.708	14450
916.82	14313
916.932	14434
917.044	14298
917.156	14385
917.268	14240
917.38	14320
917.491	14259
917.603	14199
917.715	14355
917.826	14381
917.938	14210
918.049	14195
918.161	14206
918.272	14343
918.384	14332
918.495	14218
918.606	14130
918.717	14016
918.828	14016
918.939	14088
919.05	13986
919.161	14024
919.272	13738
919.383	13978
919.494	14126
919.604	14214
919.715	14088
919.826	14027
919.936	14031
920.047	13997
920.157	14073
920.267	14256
920.378	14027
920.488	14024
920.598	14134
920.708	14271
920.818	14058
920.928	14001
921.038	14343
921.148	14248
921.258	14035
921.368	13757
921.477	13830
921.587	13700
921.697	13639
921.806	13746
921.916	13666
922.025	13491
922.134	13468
922.244	13400
922.353	13411
922.462	13331
922.571	13259
922.68	13149
922.789	13034
922.898	13095
923.007	13107
923.116	13099
923.224	13061
923.333	12966
923.442	12920
923.55	12970
923.659	12977
923.767	12939
923.876	12806
923.984	12954
924.092	12779
924.201	12867
924.309	12791
924.417	12852
924.525	12688
924.633	12692
924.741	13651
924.849	12528
924.956	12658
925.064	12490
925.172	12486
925.279	12513
925.387	12509
925.494	12410
925.602	12578
925.709	12544
925.816	12338
925.924	12384
926.031	12528
926.138	12441
926.245	12502
926.352	12384
926.459	12464
926.566	12540
926.673	12327
926.779	12220
926.886	12213
926.993	12022
927.099	12140
927.206	11980
927.312	12030
927.419	12163
927.525	12072
927.631	12083
927.737	11980
927.843	11870
927.95	11851
928.056	11920
928.162	11950
928.267	11942
928.373	12483
928.479	11977
928.585	11733
928.69	11836
928.796	11996
928.901	11775
929.007	11680
929.112	11745
929.218	11779
929.323	11672
929.428	11611
929.533	11824
929.638	11688
929.743	11646
929.848	11627
929.953	11558
930.058	11497
930.163	11368
930.267	11353
930.372	11455
930.477	11353
930.581	11532
930.685	11391
930.79	11235
930.894	11307
930.998	11159
931.103	11360
931.207	10976
931.311	10942
931.415	10858
931.519	10759
931.623	10649
