Data from test_V78500241_3103.txt Node
Date: Fri Mar 25 15:31:28 CST 2022
User: usil
Spectrometer: V785-0024
Trigger mode: 0
Integration Time (sec): 4.000000E-1
Scans to average: 1
Nonlinearity correction enabled: false
Boxcar width: 0
Storing dark spectrum: false
XAxis mode: Wavelengths
Number of Pixels in Spectrum: 1024
>>>>>Begin Spectral Data<<<<<
801.071	26701
801.214	26697
801.356	26503
801.499	26461
801.641	26282
801.783	26221
801.926	26259
802.068	26351
802.211	26062
802.353	26164
802.496	25928
802.638	25830
802.78	25902
802.923	25940
803.065	25708
803.208	25734
803.35	25849
803.492	26027
803.635	25974
803.777	25925
803.919	26043
804.061	26400
804.204	25963
804.346	25932
804.488	25913
804.63	25970
804.773	25795
804.915	25993
805.057	26206
805.199	25906
805.341	25966
805.483	26084
805.626	26084
805.768	26153
805.91	25978
806.052	26062
806.194	26035
806.336	26320
806.478	26065
806.62	26092
806.762	26263
806.904	26313
807.046	26556
807.188	26533
807.33	26587
807.472	26701
807.614	26473
807.756	26488
807.898	26366
808.04	26362
808.182	26290
808.324	26275
808.465	26278
808.607	26590
808.749	26625
808.891	26758
809.033	26925
809.174	26697
809.316	26655
809.458	26807
809.6	26655
809.741	26788
809.883	26807
810.025	26899
810.166	26921
810.308	26948
810.45	26853
810.591	26891
810.733	26697
810.875	26648
811.016	26533
811.158	26590
811.299	26731
811.441	26758
811.582	26842
811.724	26712
811.865	26476
812.007	26640
812.148	26583
812.29	26750
812.431	26781
812.573	26872
812.714	26899
812.855	27127
812.997	27062
813.138	27348
813.279	27188
813.421	27195
813.562	27017
813.703	26979
813.845	26834
813.986	26518
814.127	26450
814.268	26336
814.41	26233
814.551	26221
814.692	26317
814.833	26164
814.974	26244
815.115	26355
815.256	26164
815.397	26039
815.539	26157
815.68	26001
815.821	26016
815.962	25966
816.103	26020
816.244	25986
816.385	25811
816.526	25837
816.666	25620
816.807	25472
816.948	25556
817.089	25632
817.23	25582
817.371	25518
817.512	25499
817.653	25540
817.793	25502
817.934	25464
818.075	25613
818.216	25411
818.356	25582
818.497	25559
818.638	25206
818.778	25221
818.919	25285
819.06	25324
819.2	25339
819.341	25662
819.481	25533
819.622	25605
819.762	25712
819.903	25734
820.043	25632
820.184	25670
820.324	25712
820.465	25742
820.605	25537
820.746	25544
820.886	25460
821.026	25518
821.167	25491
821.307	25613
821.447	25578
821.588	25514
821.728	25373
821.868	25168
822.008	25057
822.149	25038
822.289	25114
822.429	24734
822.569	24612
822.709	24540
822.849	24517
822.99	24525
823.13	24422
823.27	24445
823.41	24304
823.55	24235
823.69	24391
823.83	24167
823.97	24129
824.11	24209
824.25	24068
824.389	24087
824.529	24190
824.669	24186
824.809	24285
824.949	24102
825.089	24213
825.228	24110
825.368	23992
825.508	23916
825.648	23920
825.787	24057
825.927	23923
826.067	24030
826.206	23969
826.346	23931
826.485	24018
826.625	23977
826.765	24045
826.904	24072
827.044	23786
827.183	23680
827.323	23630
827.462	23638
827.601	23604
827.741	23581
827.88	23646
828.02	23585
828.159	23653
828.298	23623
828.437	23729
828.577	23577
828.716	23775
828.855	23585
828.994	23471
829.134	23383
829.273	23387
829.412	23391
829.551	23368
829.69	23216
829.829	23414
829.968	23482
830.107	23296
830.246	23433
830.385	23299
830.524	23387
830.663	23299
830.802	23170
830.941	22968
831.08	22987
831.219	22987
831.357	23010
831.496	23117
831.635	22953
831.774	22900
831.913	22812
832.051	22885
832.19	22805
832.329	22702
832.467	22683
832.606	22607
832.744	22455
832.883	22630
833.022	22599
833.16	22618
833.299	22721
833.437	22729
833.576	22622
833.714	22729
833.852	22778
833.991	22805
834.129	22820
834.267	22790
834.406	22706
834.544	22759
834.682	22801
834.821	22660
834.959	22892
835.097	22691
835.235	22755
835.373	22850
835.511	22672
835.65	22561
835.788	22641
835.926	22440
836.064	22268
836.202	22462
836.34	22656
836.478	22653
836.615	22478
836.753	22637
836.891	22782
837.029	22455
837.167	22584
837.305	22512
837.443	22485
837.58	22478
837.718	22546
837.856	22390
837.993	22356
838.131	22523
838.269	22367
838.406	22424
838.544	22276
838.681	22006
838.819	22093
838.956	21895
839.094	21937
839.231	21926
839.369	22048
839.506	22284
839.643	22093
839.781	21907
839.918	21903
840.055	21972
840.193	21865
840.33	21895
840.467	21781
840.604	21941
840.742	22105
840.879	21690
841.016	21865
841.153	21808
841.29	21987
841.427	21842
841.564	21918
841.701	21816
841.838	21827
841.975	21690
842.112	21770
842.249	21720
842.385	21622
842.522	21770
842.659	21720
842.796	21583
842.933	21625
843.069	21625
843.206	21564
843.343	21724
843.479	21557
843.616	21656
843.752	21393
843.889	21378
844.025	21599
844.162	21378
844.298	21408
844.435	21378
844.571	21325
844.708	21485
844.844	21603
844.98	21561
845.117	21603
845.253	21355
845.389	21310
845.525	21279
845.661	21192
845.798	21074
845.934	21157
846.07	21039
846.206	21218
846.342	21180
846.478	21051
846.614	20986
846.75	20845
846.886	20861
847.022	20960
847.158	20868
847.294	20830
847.429	20902
847.565	20800
847.701	21043
847.837	20522
847.972	20514
848.108	20636
848.244	20705
848.379	20518
848.515	20450
848.65	20381
848.786	20450
848.921	20461
849.057	20522
849.192	20511
849.328	20495
849.463	20499
849.598	20389
849.734	20381
849.869	20282
850.004	20286
850.14	20248
850.275	20256
850.41	20077
850.545	20191
850.68	20202
850.815	20187
850.95	20278
851.085	20469
851.22	20324
851.355	20305
851.49	20172
851.625	20237
851.76	20233
851.895	20218
852.03	20138
852.165	20347
852.299	20339
852.434	20377
852.569	20347
852.703	20237
852.838	20191
852.973	20393
853.107	20328
853.242	20233
853.376	20027
853.511	19947
853.645	20126
853.78	20172
853.914	20092
854.048	20035
854.183	20092
854.317	20107
854.451	20172
854.585	20081
854.72	20084
854.854	20107
854.988	20035
855.122	20176
855.256	19963
855.39	20134
855.524	20168
855.658	20187
855.792	20100
855.926	20119
856.06	20088
856.194	20187
856.327	20153
856.461	20054
856.595	20073
856.729	20161
856.862	20221
856.996	20153
857.13	20210
857.263	20301
857.397	20157
857.53	20183
857.664	20096
857.797	20107
857.931	20100
858.064	20206
858.197	20164
858.331	20062
858.464	19928
858.597	20012
858.731	20107
858.864	19936
858.997	20027
859.13	20138
859.263	20199
859.396	20233
859.529	20031
859.662	20115
859.795	20046
859.928	20073
860.061	20294
860.194	20229
860.327	20062
860.46	20084
860.592	20214
860.725	20385
860.858	20191
860.99	20221
861.123	20058
861.256	19959
861.388	19955
861.521	20564
861.653	20020
861.786	19814
861.918	19913
862.05	20012
862.183	20073
862.315	20073
862.447	20161
862.58	20031
862.712	19757
862.844	19765
862.976	19864
863.108	19864
863.24	20271
863.372	19643
863.504	19871
863.636	19761
863.768	19811
863.9	19849
864.032	19727
864.164	19769
864.296	19875
864.428	19906
864.559	19993
864.691	19860
864.823	19769
864.954	19845
865.086	19712
865.217	19750
865.349	19715
865.48	19761
865.612	19708
865.743	19871
865.875	19734
866.006	19772
866.137	19719
866.269	19635
866.4	19719
866.531	19586
866.662	19647
866.793	19696
866.924	19803
867.055	19757
867.186	19670
867.317	19586
867.448	19590
867.579	19734
867.71	19540
867.841	19635
867.972	19700
868.103	19590
868.233	19685
868.364	19559
868.495	19746
868.625	19818
868.756	19982
868.886	19856
869.017	19955
869.147	20012
869.278	20084
869.408	19898
869.539	19849
869.669	20001
869.799	19959
869.929	20027
870.06	19978
870.19	20210
870.32	20145
870.45	20305
870.58	20313
870.71	20408
870.84	20389
870.97	20328
871.1	20221
871.23	20492
871.36	20609
871.489	20438
871.619	20488
871.749	20594
871.879	20511
872.008	20644
872.138	20530
872.267	20507
872.397	20389
872.526	20366
872.656	20324
872.785	20450
872.915	20454
873.044	20495
873.173	20579
873.303	20659
873.432	20499
873.561	20693
873.69	20598
873.819	20469
873.948	20697
874.077	20667
874.206	20480
874.335	20575
874.464	20621
874.593	20746
874.722	20697
874.851	20765
874.979	20769
875.108	20838
875.237	20678
875.365	20720
875.494	20689
875.623	20781
875.751	20792
875.88	20785
876.008	20986
876.136	20933
876.265	21211
876.393	21302
876.521	21176
876.65	21233
876.778	21214
876.906	21157
877.034	21127
877.162	21119
877.29	21077
877.418	21207
877.546	21218
877.674	21188
877.802	21100
877.93	21173
878.058	21089
878.185	21047
878.313	21100
878.441	21161
878.568	20921
878.696	21070
878.824	21165
878.951	21287
879.079	21351
879.206	21420
879.333	21245
879.461	21146
879.588	21237
879.715	21237
879.842	21469
879.97	21260
880.097	20960
880.224	20963
880.351	21005
880.478	20986
880.605	20963
880.732	20849
880.859	21222
880.986	20998
881.112	21024
881.239	20883
881.366	20746
881.493	20773
881.619	20522
881.746	20579
881.872	20492
881.999	20495
882.125	20389
882.252	20568
882.378	20594
882.505	20712
882.631	20484
882.757	20332
882.883	20259
883.01	20210
883.136	20111
883.262	20005
883.388	20145
883.514	20256
883.64	20339
883.766	20309
883.892	20024
884.018	19989
884.143	20210
884.269	20259
884.395	19959
884.52	19913
884.646	20001
884.772	19879
884.897	19780
885.023	19982
885.148	20100
885.274	20081
885.399	20054
885.524	19951
885.65	19913
885.775	19947
885.9	19864
886.025	20088
886.15	19982
886.275	20027
886.4	19852
886.525	19788
886.65	19887
886.775	19860
886.9	20027
887.025	20199
887.149	19750
887.274	19761
887.399	19746
887.523	19734
887.648	19643
887.773	19651
887.897	19803
888.021	19784
888.146	19613
888.27	19734
888.395	19788
888.519	19803
888.643	19681
888.767	19696
888.891	19620
889.015	19514
889.139	19590
889.263	19445
889.387	19727
889.511	19753
889.635	19613
889.759	19464
889.883	19510
890.006	19613
890.13	19567
890.254	19620
890.377	19438
890.501	19369
890.624	19266
890.748	19430
890.871	19145
890.995	19213
891.118	18985
891.241	19164
891.364	19095
891.488	19225
891.611	19152
891.734	19141
891.857	19107
891.98	19088
892.103	19152
892.226	19145
892.349	19050
892.471	18947
892.594	18894
892.717	19015
892.839	18993
892.962	19088
893.085	19114
893.207	19061
893.33	18985
893.452	18894
893.575	18966
893.697	18962
893.819	19164
893.941	19308
894.064	19076
894.186	18943
894.308	18871
894.43	19088
894.552	19148
894.674	19122
894.796	18928
894.918	19012
895.04	18966
895.161	19145
895.283	19023
895.405	18985
895.526	18970
895.648	18981
895.769	19034
895.891	19069
896.012	19259
896.134	19137
896.255	18985
896.376	19057
896.498	18970
896.619	19099
896.74	19076
896.861	19168
896.982	19430
897.103	19464
897.224	19304
897.345	19278
897.466	19350
897.587	19270
897.708	19365
897.828	19343
897.949	19148
898.07	19198
898.19	19175
898.311	19350
898.431	19221
898.552	19266
898.672	19327
898.792	19392
898.913	19339
899.033	19228
899.153	19099
899.273	19019
899.393	18966
899.513	19145
899.633	19072
899.753	19034
899.873	19057
899.993	19103
900.113	19065
900.232	19145
900.352	19000
900.472	18966
900.591	18703
900.711	18806
900.83	18753
900.95	18875
901.069	18932
901.189	18859
901.308	18540
901.427	18460
901.546	18479
901.665	18490
901.784	18475
901.904	18376
902.023	18205
902.141	18045
902.26	17977
902.379	18003
902.498	17935
902.617	17931
902.735	18102
902.854	17935
902.973	17961
903.091	17668
903.21	17710
903.328	17653
903.446	17516
903.565	17448
903.683	17524
903.801	17345
903.919	17482
904.038	17459
904.156	17322
904.274	17391
904.392	17220
904.51	17220
904.627	17280
904.745	17341
904.863	17292
904.981	17052
905.098	16946
905.216	16904
905.334	16873
905.451	16946
905.569	16930
905.686	16968
905.803	16999
905.921	16778
906.038	16889
906.155	16763
906.272	16656
906.389	16603
906.506	16405
906.623	16466
906.74	16485
906.857	16394
906.974	16443
907.091	16565
907.208	16615
907.324	16558
907.441	16348
907.557	16226
907.674	16215
907.79	16116
907.907	16200
908.023	16135
908.139	16287
908.256	16173
908.372	16169
908.488	16116
908.604	15968
908.72	15979
908.836	15869
908.952	15918
909.068	16059
909.184	16010
909.3	15873
909.415	15892
909.531	15926
909.647	15705
909.762	15709
909.878	15591
909.993	15610
910.108	15652
910.224	15564
910.339	15648
910.454	15492
910.57	15606
910.685	15435
910.8	15679
910.915	15511
911.03	15443
911.145	15374
911.259	15165
911.374	15283
911.489	15119
911.604	15135
911.718	15062
911.833	15013
911.947	14921
912.062	14796
912.176	15047
912.291	14948
912.405	15001
912.519	15138
912.633	15161
912.748	15032
912.862	14948
912.976	14895
913.09	14670
913.204	14842
913.318	14781
913.431	14944
913.545	14910
913.659	14910
913.772	14743
913.886	14644
914	14583
914.113	14800
914.226	14785
914.34	14724
914.453	14533
914.566	14579
914.68	14617
914.793	14511
914.906	14290
915.019	14298
915.132	14210
915.245	14210
915.358	14214
915.47	14290
915.583	14248
915.696	14355
915.809	14396
915.921	14370
916.034	14256
916.146	14062
916.259	14126
916.371	14244
916.483	14183
916.595	14180
916.708	14180
916.82	14054
916.932	14180
917.044	14081
917.156	14050
917.268	13921
917.38	14100
917.491	14020
917.603	13917
917.715	14046
917.826	14005
917.938	13830
918.049	13906
918.161	13890
918.272	14069
918.384	13967
918.495	13837
918.606	13803
918.717	13670
918.828	13776
918.939	13795
919.05	13521
919.161	13666
919.272	13510
919.383	13556
919.494	13696
919.604	13928
919.715	13761
919.826	13582
919.936	13651
920.047	13803
920.157	13693
920.267	13860
920.378	13666
920.488	13689
920.598	13811
920.708	14084
920.818	13871
920.928	13890
921.038	13963
921.148	13909
921.258	13658
921.368	13575
921.477	13480
921.587	13407
921.697	13308
921.806	13502
921.916	13381
922.025	13095
922.134	13133
922.244	13015
922.353	13171
922.462	12962
922.571	12958
922.68	12779
922.789	12795
922.898	12821
923.007	12688
923.116	12749
923.224	12768
923.333	12719
923.442	12616
923.55	12585
923.659	12681
923.767	12673
923.876	12536
923.984	12623
924.092	12502
924.201	12570
924.309	12483
924.417	12464
924.525	12410
924.633	12426
924.741	13438
924.849	12232
924.956	12376
925.064	12292
925.172	12194
925.279	12285
925.387	12296
925.494	12311
925.602	12319
925.709	12350
925.816	12064
925.924	12247
926.031	12281
926.138	12152
926.245	12205
926.352	12083
926.459	12163
926.566	12258
926.673	12125
926.779	11988
926.886	12026
926.993	11870
927.099	11836
927.206	11882
927.312	11771
927.419	11893
927.525	11821
927.631	11855
927.737	11745
927.843	11649
927.95	11482
928.056	11627
928.162	11642
928.267	11657
928.373	12327
928.479	11779
928.585	11509
928.69	11573
928.796	11722
928.901	11577
929.007	11341
929.112	11509
929.218	11406
929.323	11452
929.428	11364
929.533	11490
929.638	11398
929.743	11436
929.848	11444
929.953	11334
930.058	11334
930.163	11067
930.267	11105
930.372	11204
930.477	11060
930.581	11315
930.685	11136
930.79	10987
930.894	11071
930.998	11045
931.103	11185
931.207	10717
931.311	10679
931.415	10478
931.519	10462
931.623	10436
