Data from test_V78500241_1026.txt Node
Date: Fri Mar 25 15:17:00 CST 2022
User: usil
Spectrometer: V785-0024
Trigger mode: 0
Integration Time (sec): 4.000000E-1
Scans to average: 1
Nonlinearity correction enabled: false
Boxcar width: 0
Storing dark spectrum: false
XAxis mode: Wavelengths
Number of Pixels in Spectrum: 1024
>>>>>Begin Spectral Data<<<<<
801.071	28497
801.214	28341
801.356	28006
801.499	28169
801.641	27884
801.783	28059
801.926	28128
802.068	27960
802.211	27979
802.353	27743
802.496	27599
802.638	27644
802.78	27576
802.923	27591
803.065	27591
803.208	27694
803.35	27545
803.492	27762
803.635	27709
803.777	27736
803.919	27838
804.061	28135
804.204	27800
804.346	27778
804.488	27865
804.63	27808
804.773	27831
804.915	27857
805.057	28101
805.199	27865
805.341	28032
805.483	28128
805.626	27930
805.768	27892
805.91	28044
806.052	28082
806.194	28017
806.336	28112
806.478	28147
806.62	28067
806.762	28223
806.904	28242
807.046	28535
807.188	28432
807.33	28470
807.472	28485
807.614	28329
807.756	28462
807.898	28329
808.04	28344
808.182	28299
808.324	28382
808.465	28333
808.607	28580
808.749	28786
808.891	28691
809.033	28915
809.174	28736
809.316	28573
809.458	28550
809.6	28706
809.741	28755
809.883	28934
810.025	28908
810.166	28995
810.308	29014
810.45	28904
810.591	28862
810.733	28691
810.875	28710
811.016	28702
811.158	28679
811.299	28763
811.441	28869
811.582	28915
811.724	28752
811.865	28858
812.007	28660
812.148	28702
812.29	28873
812.431	28923
812.573	28888
812.714	29124
812.855	29162
812.997	29318
813.138	29406
813.279	29375
813.421	29277
813.562	29269
813.703	29029
813.845	29014
813.986	28656
814.127	28394
814.268	28497
814.41	28318
814.551	28398
814.692	28546
814.833	28443
814.974	28440
815.115	28390
815.256	28261
815.397	28249
815.539	28325
815.68	28097
815.821	28017
815.962	28219
816.103	28200
816.244	28055
816.385	28109
816.526	27964
816.666	27797
816.807	27762
816.948	27766
817.089	27949
817.23	27793
817.371	27644
817.512	27888
817.653	27717
817.793	27686
817.934	27736
818.075	27793
818.216	27686
818.356	27656
818.497	27523
818.638	27443
818.778	27370
818.919	27526
819.06	27667
819.2	27599
819.341	27698
819.481	27785
819.622	27850
819.762	28017
819.903	27934
820.043	27880
820.184	27934
820.324	27888
820.465	27857
820.605	27778
820.746	27819
820.886	27728
821.026	27869
821.167	27755
821.307	27918
821.447	27804
821.588	27576
821.728	27424
821.868	27340
822.008	27218
822.149	27249
822.289	27245
822.429	26902
822.569	26994
822.709	26872
822.849	26727
822.99	26853
823.13	26663
823.27	26571
823.41	26602
823.55	26571
823.69	26503
823.83	26518
823.97	26609
824.11	26328
824.25	26408
824.389	26366
824.529	26560
824.669	26396
824.809	26480
824.949	26533
825.089	26465
825.228	26583
825.368	26313
825.508	26256
825.648	26343
825.787	26431
825.927	26309
826.067	26271
826.206	26267
826.346	26248
826.485	26374
826.625	26195
826.765	26412
826.904	26332
827.044	26035
827.183	25955
827.323	25970
827.462	26100
827.601	26035
827.741	26084
827.88	25997
828.02	25833
828.159	25978
828.298	25982
828.437	26115
828.577	25993
828.716	25955
828.855	25875
828.994	25693
829.134	25742
829.273	25742
829.412	25818
829.551	25670
829.69	25734
829.829	25795
829.968	25753
830.107	25757
830.246	25693
830.385	25628
830.524	25578
830.663	25605
830.802	25354
830.941	25270
831.08	25232
831.219	25403
831.357	25438
831.496	25537
831.635	25343
831.774	25110
831.913	25266
832.051	25099
832.19	25122
832.329	25171
832.467	25080
832.606	24882
832.744	24856
832.883	24935
833.022	24890
833.16	25012
833.299	25008
833.437	25080
833.576	25114
833.714	25004
833.852	24981
833.991	25110
834.129	25198
834.267	25164
834.406	25148
834.544	25099
834.682	25091
834.821	25050
834.959	25194
835.097	25122
835.235	25091
835.373	25084
835.511	25027
835.65	24962
835.788	24840
835.926	24829
836.064	24700
836.202	24722
836.34	24996
836.478	24924
836.615	24920
836.753	24901
836.891	24924
837.029	24947
837.167	24833
837.305	24814
837.443	24791
837.58	24715
837.718	24817
837.856	24719
837.993	24631
838.131	24711
838.269	24559
838.406	24620
838.544	24513
838.681	24395
838.819	24369
838.956	24140
839.094	24167
839.231	24224
839.369	24350
839.506	24612
839.643	24414
839.781	24334
839.918	24121
840.055	24064
840.193	24148
840.33	24026
840.467	24159
840.604	24087
840.742	24525
840.879	23999
841.016	24197
841.153	23992
841.29	24197
841.427	24114
841.564	24049
841.701	24068
841.838	23942
841.975	24079
842.112	24057
842.249	23870
842.385	23817
842.522	24060
842.659	23840
842.796	23847
842.933	23783
843.069	23843
843.206	23942
843.343	23904
843.479	23931
843.616	23874
843.752	23741
843.889	23691
844.025	23851
844.162	23501
844.298	23836
844.435	23611
844.571	23573
844.708	23737
844.844	23870
844.98	23775
845.117	23775
845.253	23577
845.389	23436
845.525	23551
845.661	23539
845.798	23364
845.934	23589
846.07	23239
846.206	23398
846.342	23379
846.478	23296
846.614	23223
846.75	22999
846.886	23086
847.022	23231
847.158	23185
847.294	23128
847.429	23128
847.565	22980
847.701	23360
847.837	22862
847.972	22869
848.108	23018
848.244	22866
848.379	22767
848.515	22717
848.65	22713
848.786	22656
848.921	22573
849.057	22698
849.192	22786
849.328	22725
849.463	22710
849.598	22588
849.734	22584
849.869	22531
850.004	22432
850.14	22428
850.275	22531
850.41	22386
850.545	22306
850.68	22440
850.815	22390
850.95	22382
851.085	22641
851.22	22615
851.355	22478
851.49	22352
851.625	22500
851.76	22394
851.895	22375
852.03	22360
852.165	22478
852.299	22405
852.434	22428
852.569	22523
852.703	22512
852.838	22630
852.973	22626
853.107	22660
853.242	22497
853.376	22394
853.511	22261
853.645	22230
853.78	22386
853.914	22215
854.048	22230
854.183	22287
854.317	22318
854.451	22394
854.585	22219
854.72	22215
854.854	22519
854.988	22188
855.122	22333
855.256	22105
855.39	22078
855.524	22493
855.658	22436
855.792	22291
855.926	22276
856.06	22398
856.194	22333
856.327	22249
856.461	22211
856.595	22299
856.729	22226
856.862	22440
856.996	22325
857.13	22322
857.263	22474
857.397	22527
857.53	22295
857.664	22299
857.797	22284
857.931	22344
858.064	22322
858.197	22382
858.331	22432
858.464	22287
858.597	22082
858.731	22242
858.864	22246
858.997	22344
859.13	22207
859.263	22295
859.396	22303
859.529	22310
859.662	22169
859.795	22173
859.928	22306
860.061	22436
860.194	22421
860.327	22485
860.46	22417
860.592	22344
860.725	22352
860.858	22417
860.99	22352
861.123	22322
861.256	22287
861.388	22337
861.521	22957
861.653	22181
861.786	22036
861.918	22067
862.05	22177
862.183	22223
862.315	22253
862.447	22246
862.58	22162
862.712	21911
862.844	21987
862.976	22101
863.108	22044
863.24	22485
863.372	21903
863.504	22120
863.636	22017
863.768	21937
863.9	22036
864.032	21949
864.164	22048
864.296	22013
864.428	22147
864.559	21991
864.691	21994
864.823	22040
864.954	22074
865.086	21972
865.217	21785
865.349	21842
865.48	21937
865.612	21888
865.743	21991
865.875	21823
866.006	21804
866.137	21800
866.269	21854
866.4	21800
866.531	21873
866.662	21911
866.793	21755
866.924	21880
867.055	21797
867.186	21774
867.317	21800
867.448	21778
867.579	21831
867.71	21625
867.841	21701
867.972	21736
868.103	21800
868.233	21778
868.364	21816
868.495	21953
868.625	21998
868.756	22147
868.886	21915
869.017	21991
869.147	22238
869.278	22139
869.408	22021
869.539	21884
869.669	22128
869.799	22185
869.929	22173
870.06	22135
870.19	22356
870.32	22367
870.45	22314
870.58	22447
870.71	22527
870.84	22561
870.97	22394
871.1	22428
871.23	22653
871.36	22679
871.489	22440
871.619	22599
871.749	22622
871.879	22713
872.008	22634
872.138	22569
872.267	22668
872.397	22599
872.526	22402
872.656	22588
872.785	22569
872.915	22618
873.044	22816
873.173	22481
873.303	22668
873.432	22740
873.561	22805
873.69	22584
873.819	22668
873.948	22664
874.077	22611
874.206	22592
874.335	22778
874.464	22797
874.593	22733
874.722	22862
874.851	22774
874.979	22805
875.108	22869
875.237	22839
875.365	22786
875.494	22850
875.623	22900
875.751	22839
875.88	22850
876.008	22949
876.136	22957
876.265	23231
876.393	23269
876.521	23368
876.65	23254
876.778	23193
876.906	23212
877.034	23105
877.162	23292
877.29	23003
877.418	23250
877.546	23261
877.674	23197
877.802	23140
877.93	23231
878.058	23273
878.185	23109
878.313	23124
878.441	23067
878.568	23140
878.696	23174
878.824	23200
878.951	23250
879.079	23269
879.206	23490
879.333	23246
879.461	23136
879.588	23326
879.715	23368
879.842	23573
879.97	23292
880.097	23048
880.224	22968
880.351	23098
880.478	22987
880.605	22965
880.732	23003
880.859	23193
880.986	23090
881.112	22934
881.239	22866
881.366	22839
881.493	22664
881.619	22527
881.746	22462
881.872	22691
881.999	22516
882.125	22455
882.252	22679
882.378	22565
882.505	22752
882.631	22466
882.757	22291
882.883	22352
883.01	22261
883.136	22287
883.262	22090
883.388	22147
883.514	22299
883.64	22219
883.766	22082
883.892	21975
884.018	22166
884.143	22265
884.269	22325
884.395	21972
884.52	21907
884.646	21915
884.772	21785
884.897	21804
885.023	21854
885.148	21888
885.274	21972
885.399	21899
885.524	21915
885.65	21865
885.775	21861
885.9	21941
886.025	22017
886.15	21953
886.275	21888
886.4	21808
886.525	21869
886.65	21934
886.775	21789
886.9	22059
887.025	22002
887.149	21724
887.274	21629
887.399	21694
887.523	21549
887.648	21523
887.773	21610
887.897	21720
888.021	21709
888.146	21713
888.27	21667
888.395	21675
888.519	21587
888.643	21648
888.767	21686
888.891	21553
889.015	21530
889.139	21538
889.263	21405
889.387	21530
889.511	21682
889.635	21466
889.759	21397
889.883	21424
890.006	21496
890.13	21416
890.254	21264
890.377	21344
890.501	21233
890.624	21036
890.748	21184
890.871	21135
890.995	21077
891.118	21055
891.241	21058
891.364	21032
891.488	21119
891.611	20979
891.734	20918
891.857	21241
891.98	20944
892.103	21077
892.226	20876
892.349	20895
892.471	20823
892.594	20815
892.717	20948
892.839	20811
892.962	20826
893.085	20910
893.207	20933
893.33	20625
893.452	20815
893.575	20838
893.697	20887
893.819	21009
893.941	21211
894.064	21036
894.186	20857
894.308	20823
894.43	20910
894.552	20948
894.674	21036
894.796	20830
894.918	20792
895.04	20792
895.161	20929
895.283	20845
895.405	20842
895.526	20788
895.648	20883
895.769	20864
895.891	20925
896.012	20895
896.134	20880
896.255	20944
896.376	20834
896.498	20750
896.619	20910
896.74	20872
896.861	20853
896.982	21233
897.103	21249
897.224	21241
897.345	21047
897.466	20998
897.587	21047
897.708	21207
897.828	20994
897.949	21013
898.07	20967
898.19	21047
898.311	21138
898.431	20963
898.552	20986
898.672	21184
898.792	21043
898.913	20929
899.033	20842
899.153	20872
899.273	20830
899.393	20701
899.513	20842
899.633	20861
899.753	20842
899.873	20731
899.993	20830
900.113	20807
900.232	20781
900.352	20663
900.472	20545
900.591	20583
900.711	20537
900.83	20427
900.95	20613
901.069	20609
901.189	20454
901.308	20256
901.427	20164
901.546	20031
901.665	20138
901.784	20126
901.904	19978
902.023	19982
902.141	19708
902.26	19674
902.379	19769
902.498	19666
902.617	19643
902.735	19635
902.854	19529
902.973	19605
903.091	19221
903.21	19339
903.328	19263
903.446	19141
903.565	19141
903.683	19171
903.801	18977
903.919	19103
904.038	19019
904.156	18772
904.274	19004
904.392	18825
904.51	18817
904.627	18806
904.745	18924
904.863	18833
904.981	18703
905.098	18551
905.216	18563
905.334	18661
905.451	18597
905.569	18502
905.686	18635
905.803	18627
905.921	18395
906.038	18483
906.155	18247
906.272	18201
906.389	18163
906.506	18129
906.623	18121
906.74	18011
906.857	17969
906.974	18022
907.091	18114
907.208	18117
907.324	18087
907.441	17927
907.557	17817
907.674	17771
907.79	17691
907.907	17790
908.023	17783
908.139	17771
908.256	17737
908.372	17627
908.488	17672
908.604	17459
908.72	17558
908.836	17516
908.952	17554
909.068	17608
909.184	17638
909.3	17486
909.415	17509
909.531	17497
909.647	17273
909.762	17079
909.878	17105
909.993	17208
910.108	17151
910.224	17178
910.339	17147
910.454	17037
910.57	16961
910.685	16805
910.8	17220
910.915	17151
911.03	16881
911.145	16812
911.259	16782
911.374	16774
911.489	16675
911.604	16675
911.718	16508
911.833	16379
911.947	16413
912.062	16341
912.176	16382
912.291	16462
912.405	16538
912.519	16599
912.633	16702
912.748	16550
912.862	16580
912.976	16265
913.09	16253
913.204	16382
913.318	16348
913.431	16466
913.545	16333
913.659	16428
913.772	16215
913.886	16139
914	16101
914.113	16249
914.226	16295
914.34	16154
914.453	15994
914.566	16139
914.68	16048
914.793	15888
914.906	15918
915.019	15603
915.132	15587
915.245	15755
915.358	15728
915.47	15667
915.583	15759
915.696	15644
915.809	15831
915.921	15789
916.034	15682
916.146	15538
916.259	15663
916.371	15641
916.483	15648
916.595	15637
916.708	15500
916.82	15530
916.932	15553
917.044	15408
917.156	15485
917.268	15321
917.38	15332
917.491	15226
917.603	15359
917.715	15332
917.826	15424
917.938	15226
918.049	15211
918.161	15199
918.272	15363
918.384	15378
918.495	15245
918.606	15085
918.717	15066
918.828	15169
918.939	15074
919.05	15013
919.161	15024
919.272	14876
919.383	14861
919.494	15104
919.604	15226
919.715	15089
919.826	14994
919.936	14956
920.047	14979
920.157	14982
920.267	15176
920.378	15001
920.488	14941
920.598	15169
920.708	15363
920.818	15203
920.928	15157
921.038	15306
921.148	15332
921.258	14971
921.368	14891
921.477	14823
921.587	14823
921.697	14610
921.806	14765
921.916	14655
922.025	14461
922.134	14294
922.244	14328
922.353	14427
922.462	14256
922.571	14191
922.68	14092
922.789	13967
922.898	14077
923.007	13940
923.116	14035
923.224	14012
923.333	13997
923.442	13811
923.55	13803
923.659	13868
923.767	13868
923.876	13811
923.984	13871
924.092	13738
924.201	13830
924.309	13776
924.417	13788
924.525	13719
924.633	13700
924.741	14689
924.849	13521
924.956	13559
925.064	13362
925.172	13415
925.279	13377
925.387	13449
925.494	13388
925.602	13544
925.709	13441
925.816	13301
925.924	13327
926.031	13521
926.138	13339
926.245	13403
926.352	13244
926.459	13339
926.566	13354
926.673	13324
926.779	13198
926.886	13198
926.993	13034
927.099	13023
927.206	12894
927.312	13038
927.419	12935
927.525	12954
927.631	12951
927.737	12840
927.843	12715
927.95	12639
928.056	12779
928.162	12711
928.267	12844
928.373	13331
928.479	12844
928.585	12559
928.69	12677
928.796	12760
928.901	12639
929.007	12486
929.112	12646
929.218	12570
929.323	12525
929.428	12517
929.533	12585
929.638	12456
929.743	12414
929.848	12460
929.953	12361
930.058	12323
930.163	12133
930.267	12270
930.372	12327
930.477	12095
930.581	12380
930.685	12216
930.79	12041
930.894	12079
930.998	12049
931.103	12247
931.207	11783
931.311	11748
931.415	11627
931.519	11417
931.623	11425
