Data from test_V78500241_2977.txt Node
Date: Fri Mar 25 15:30:35 CST 2022
User: usil
Spectrometer: V785-0024
Trigger mode: 0
Integration Time (sec): 4.000000E-1
Scans to average: 1
Nonlinearity correction enabled: false
Boxcar width: 0
Storing dark spectrum: false
XAxis mode: Wavelengths
Number of Pixels in Spectrum: 1024
>>>>>Begin Spectral Data<<<<<
801.071	27199
801.214	26956
801.356	26921
801.499	26944
801.641	26807
801.783	26644
801.926	26762
802.068	26842
802.211	26648
802.353	26701
802.496	26503
802.638	26408
802.78	26290
802.923	26278
803.065	26305
803.208	26305
803.35	26393
803.492	26537
803.635	26438
803.777	26457
803.919	26427
804.061	26689
804.204	26617
804.346	26564
804.488	26408
804.63	26526
804.773	26393
804.915	26537
805.057	26727
805.199	26377
805.341	26571
805.483	26568
805.626	26522
805.768	26571
805.91	26651
806.052	26659
806.194	26552
806.336	26644
806.478	26617
806.62	26609
806.762	26682
806.904	26731
807.046	27146
807.188	26979
807.33	26986
807.472	27070
807.614	26948
807.756	27001
807.898	26807
808.04	26796
808.182	26705
808.324	26899
808.465	26838
808.607	27081
808.749	27081
808.891	27237
809.033	27348
809.174	27230
809.316	27161
809.458	27123
809.6	27081
809.741	27405
809.883	27359
810.025	27408
810.166	27500
810.308	27397
810.45	27401
810.591	27332
810.733	27150
810.875	27226
811.016	27161
811.158	27203
811.299	27355
811.441	27454
811.582	27462
811.724	27325
811.865	27127
812.007	27180
812.148	27157
812.29	27260
812.431	27306
812.573	27492
812.714	27625
812.855	27633
812.997	27793
813.138	27774
813.279	27781
813.421	27663
813.562	27625
813.703	27492
813.845	27336
813.986	27256
814.127	26925
814.268	26918
814.41	26929
814.551	26800
814.692	26891
814.833	26697
814.974	26754
815.115	26944
815.256	26735
815.397	26785
815.539	26735
815.68	26720
815.821	26575
815.962	26693
816.103	26583
816.244	26575
816.385	26347
816.526	26389
816.666	26240
816.807	26065
816.948	26271
817.089	26244
817.23	26176
817.371	26187
817.512	26122
817.653	26035
817.793	26058
817.934	26005
818.075	26001
818.216	26115
818.356	26081
818.497	26073
818.638	25704
818.778	25841
818.919	25955
819.06	25940
819.2	25944
819.341	26130
819.481	25921
819.622	26187
819.762	26400
819.903	26374
820.043	26347
820.184	26237
820.324	26176
820.465	26282
820.605	26202
820.746	26088
820.886	25989
821.026	26153
821.167	26259
821.307	26195
821.447	26062
821.588	25963
821.728	25841
821.868	25731
822.008	25594
822.149	25567
822.289	25510
822.429	25369
822.569	25179
822.709	25282
822.849	25019
822.99	25042
823.13	25141
823.27	24973
823.41	24901
823.55	24814
823.69	24890
823.83	24810
823.97	24909
824.11	24734
824.25	24566
824.389	24658
824.529	24738
824.669	24795
824.809	24886
824.949	24749
825.089	24837
825.228	24829
825.368	24513
825.508	24585
825.648	24540
825.787	24570
825.927	24646
826.067	24601
826.206	24555
826.346	24616
826.485	24684
826.625	24544
826.765	24700
826.904	24639
827.044	24418
827.183	24273
827.323	24224
827.462	24422
827.601	24376
827.741	24216
827.88	24327
828.02	24197
828.159	24319
828.298	24270
828.437	24292
828.577	24323
828.716	24327
828.855	24452
828.994	24038
829.134	23992
829.273	24041
829.412	23958
829.551	23965
829.69	23878
829.829	24011
829.968	24026
830.107	23999
830.246	23984
830.385	24011
830.524	23908
830.663	23908
830.802	23733
830.941	23459
831.08	23589
831.219	23752
831.357	23592
831.496	23756
831.635	23600
831.774	23467
831.913	23467
832.051	23273
832.19	23261
832.329	23334
832.467	23326
832.606	23250
832.744	23189
832.883	23265
833.022	23223
833.16	23356
833.299	23292
833.437	23368
833.576	23436
833.714	23299
833.852	23383
833.991	23299
834.129	23398
834.267	23459
834.406	23261
834.544	23322
834.682	23349
834.821	23315
834.959	23311
835.097	23246
835.235	23387
835.373	23349
835.511	23387
835.65	23239
835.788	23212
835.926	23014
836.064	22965
836.202	23048
836.34	23159
836.478	23212
836.615	23124
836.753	23086
836.891	23288
837.029	23121
837.167	23113
837.305	23064
837.443	23113
837.58	23014
837.718	23067
837.856	22938
837.993	22919
838.131	23029
838.269	22984
838.406	22881
838.544	22740
838.681	22717
838.819	22713
838.956	22500
839.094	22546
839.231	22542
839.369	22683
839.506	22873
839.643	22774
839.781	22561
839.918	22485
840.055	22493
840.193	22360
840.33	22523
840.467	22470
840.604	22436
840.742	22634
840.879	22306
841.016	22348
841.153	22306
841.29	22489
841.427	22318
841.564	22447
841.701	22466
841.838	22341
841.975	22265
842.112	22265
842.249	22272
842.385	22306
842.522	22497
842.659	22257
842.796	22131
842.933	22207
843.069	22295
843.206	22097
843.343	22154
843.479	22135
843.616	22322
843.752	21873
843.889	22029
844.025	22177
844.162	21926
844.298	22086
844.435	22044
844.571	21903
844.708	21918
844.844	22082
844.98	22112
845.117	21964
845.253	21835
845.389	21766
845.525	21892
845.661	21698
845.798	21564
845.934	21583
846.07	21793
846.206	21629
846.342	21774
846.478	21709
846.614	21408
846.75	21389
846.886	21389
847.022	21435
847.158	21458
847.294	21424
847.429	21405
847.565	21272
847.701	21637
847.837	21108
847.972	21184
848.108	21233
848.244	21249
848.379	21135
848.515	20994
848.65	20967
848.786	21013
848.921	20948
849.057	21081
849.192	21020
849.328	21017
849.463	21077
849.598	21024
849.734	20982
849.869	20880
850.004	20800
850.14	20788
850.275	20811
850.41	20686
850.545	20781
850.68	20693
850.815	20876
850.95	20648
851.085	20990
851.22	20914
851.355	20845
851.49	20792
851.625	20804
851.76	20731
851.895	20746
852.03	20659
852.165	20845
852.299	20849
852.434	20823
852.569	20830
852.703	20739
852.838	20807
852.973	20906
853.107	20910
853.242	20727
853.376	20602
853.511	20537
853.645	20552
853.78	20583
853.914	20663
854.048	20545
854.183	20541
854.317	20617
854.451	20765
854.585	20674
854.72	20686
854.854	20743
854.988	20526
855.122	20537
855.256	20450
855.39	20663
855.524	20564
855.658	20670
855.792	20537
855.926	20587
856.06	20686
856.194	20640
856.327	20636
856.461	20495
856.595	20438
856.729	20556
856.862	20716
856.996	20716
857.13	20701
857.263	20678
857.397	20678
857.53	20549
857.664	20765
857.797	20587
857.931	20777
858.064	20674
858.197	20727
858.331	20686
858.464	20568
858.597	20377
858.731	20617
858.864	20602
858.997	20396
859.13	20632
859.263	20617
859.396	20632
859.529	20693
859.662	20579
859.795	20549
859.928	20552
860.061	20735
860.194	20834
860.327	20765
860.46	20609
860.592	20785
860.725	20781
860.858	20807
860.99	20587
861.123	20507
861.256	20590
861.388	20526
861.521	21199
861.653	20503
861.786	20408
861.918	20461
862.05	20579
862.183	20537
862.315	20579
862.447	20507
862.58	20545
862.712	20385
862.844	20259
862.976	20465
863.108	20404
863.24	20807
863.372	20259
863.504	20313
863.636	20286
863.768	20427
863.9	20404
864.032	20362
864.164	20240
864.296	20336
864.428	20427
864.559	20408
864.691	20305
864.823	20336
864.954	20370
865.086	20256
865.217	20195
865.349	20267
865.48	20263
865.612	20294
865.743	20290
865.875	20278
866.006	20130
866.137	20195
866.269	20103
866.4	20191
866.531	20084
866.662	20092
866.793	20271
866.924	20103
867.055	20168
867.186	20248
867.317	20115
867.448	20005
867.579	20180
867.71	20043
867.841	20005
867.972	20088
868.103	20107
868.233	20065
868.364	20206
868.495	20248
868.625	20492
868.756	20492
868.886	20275
869.017	20476
869.147	20461
869.278	20514
869.408	20454
869.539	20358
869.669	20507
869.799	20374
869.929	20461
870.06	20571
870.19	20735
870.32	20693
870.45	20712
870.58	20807
870.71	20849
870.84	20842
870.97	20868
871.1	20826
871.23	20914
871.36	21066
871.489	20705
871.619	20929
871.749	20986
871.879	20921
872.008	21195
872.138	21058
872.267	21024
872.397	20838
872.526	20853
872.656	20834
872.785	20918
872.915	21043
873.044	21131
873.173	21055
873.303	21096
873.432	21173
873.561	21119
873.69	20986
873.819	21070
873.948	21055
874.077	20876
874.206	20910
874.335	21001
874.464	21249
874.593	21241
874.722	21154
874.851	21241
874.979	21157
875.108	21397
875.237	21173
875.365	21135
875.494	21165
875.623	21355
875.751	21348
875.88	21329
876.008	21458
876.136	21424
876.265	21656
876.393	21846
876.521	21682
876.65	21854
876.778	21656
876.906	21671
877.034	21572
877.162	21622
877.29	21424
877.418	21622
877.546	21663
877.674	21587
877.802	21603
877.93	21648
878.058	21557
878.185	21530
878.313	21587
878.441	21473
878.568	21519
878.696	21557
878.824	21667
878.951	21736
879.079	21751
879.206	21838
879.333	21808
879.461	21606
879.588	21747
879.715	21747
879.842	21880
879.97	21690
880.097	21534
880.224	21614
880.351	21523
880.478	21439
880.605	21397
880.732	21408
880.859	21545
880.986	21458
881.112	21393
881.239	21298
881.366	21222
881.493	21104
881.619	21070
881.746	21036
881.872	20857
881.999	20948
882.125	21005
882.252	20986
882.378	20918
882.505	21165
882.631	20750
882.757	20670
882.883	20838
883.01	20724
883.136	20682
883.262	20606
883.388	20537
883.514	20708
883.64	20811
883.766	20693
883.892	20476
884.018	20674
884.143	20625
884.269	20758
884.395	20404
884.52	20351
884.646	20488
884.772	20317
884.897	20355
885.023	20320
885.148	20461
885.274	20419
885.399	20552
885.524	20469
885.65	20396
885.775	20374
885.9	20355
886.025	20484
886.15	20454
886.275	20305
886.4	20225
886.525	20400
886.65	20301
886.775	20320
886.9	20396
887.025	20457
887.149	20320
887.274	20199
887.399	20214
887.523	20122
887.648	20031
887.773	20001
887.897	20263
888.021	20237
888.146	20161
888.27	20225
888.395	20244
888.519	20134
888.643	20149
888.767	20202
888.891	20008
889.015	19917
889.139	20043
889.263	19860
889.387	20008
889.511	20161
889.635	20039
889.759	19967
889.883	19970
890.006	19959
890.13	20119
890.254	19818
890.377	19986
890.501	19795
890.624	19742
890.748	19776
890.871	19529
890.995	19594
891.118	19571
891.241	19487
891.364	19635
891.488	19830
891.611	19518
891.734	19594
891.857	19624
891.98	19567
892.103	19601
892.226	19651
892.349	19403
892.471	19445
892.594	19476
892.717	19552
892.839	19403
892.962	19506
893.085	19525
893.207	19510
893.33	19445
893.452	19464
893.575	19571
893.697	19415
893.819	19753
893.941	19685
894.064	19521
894.186	19377
894.308	19289
894.43	19548
894.552	19651
894.674	19639
894.796	19362
894.918	19480
895.04	19350
895.161	19495
895.283	19559
895.405	19297
895.526	19480
895.648	19483
895.769	19480
895.891	19540
896.012	19559
896.134	19449
896.255	19411
896.376	19396
896.498	19430
896.619	19590
896.74	19540
896.861	19559
896.982	19746
897.103	19890
897.224	19807
897.345	19750
897.466	19635
897.587	19753
897.708	19826
897.828	19788
897.949	19662
898.07	19499
898.19	19674
898.311	19708
898.431	19700
898.552	19757
898.672	19746
898.792	19746
898.913	19772
899.033	19708
899.153	19510
899.273	19445
899.393	19559
899.513	19476
899.633	19597
899.753	19510
899.873	19537
899.993	19460
900.113	19468
900.232	19453
900.352	19472
900.472	19263
900.591	19301
900.711	19266
900.83	19133
900.95	19327
901.069	19320
901.189	19183
901.308	18943
901.427	18840
901.546	18878
901.665	18871
901.784	18848
901.904	18661
902.023	18616
902.141	18452
902.26	18475
902.379	18410
902.498	18285
902.617	18452
902.735	18460
902.854	18361
902.973	18262
903.091	18216
903.21	18076
903.328	17939
903.446	17931
903.565	17840
903.683	17870
903.801	17771
903.919	17760
904.038	17836
904.156	17608
904.274	17615
904.392	17737
904.51	17482
904.627	17668
904.745	17562
904.863	17764
904.981	17387
905.098	17311
905.216	17280
905.334	17303
905.451	17265
905.569	17239
905.686	17387
905.803	17433
905.921	17086
906.038	17185
906.155	17071
906.272	16869
906.389	17041
906.506	16816
906.623	16839
906.74	16881
906.857	16710
906.974	16790
907.091	16858
907.208	17003
907.324	16938
907.441	16683
907.557	16565
907.674	16523
907.79	16512
907.907	16440
908.023	16599
908.139	16424
908.256	16508
908.372	16440
908.488	16402
908.604	16398
908.72	16272
908.836	16325
908.952	16306
909.068	16257
909.184	16382
909.3	16249
909.415	16344
909.531	16211
909.647	16063
909.762	15983
909.878	15937
909.993	16017
910.108	15937
910.224	15869
910.339	16055
910.454	15892
910.57	15709
910.685	15747
910.8	15949
910.915	15941
911.03	15873
911.145	15682
911.259	15656
911.374	15675
911.489	15481
911.604	15530
911.718	15310
911.833	15367
911.947	15310
912.062	15214
912.176	15389
912.291	15363
912.405	15412
912.519	15587
912.633	15625
912.748	15443
912.862	15313
912.976	15020
913.09	15131
913.204	15154
913.318	15184
913.431	15408
913.545	15279
913.659	15245
913.772	15062
913.886	15036
914	14864
914.113	15051
914.226	15055
914.34	15055
914.453	14861
914.566	14971
914.68	14925
914.793	14826
914.906	14640
915.019	14648
915.132	14621
915.245	14610
915.358	14575
915.47	14667
915.583	14575
915.696	14640
915.809	14693
915.921	14743
916.034	14530
916.146	14518
916.259	14545
916.371	14625
916.483	14602
916.595	14526
916.708	14404
916.82	14385
916.932	14404
917.044	14442
917.156	14313
917.268	14176
917.38	14328
917.491	14225
917.603	14172
917.715	14351
917.826	14339
917.938	14233
918.049	14020
918.161	14259
918.272	14336
918.384	14324
918.495	14301
918.606	14065
918.717	13944
918.828	14111
918.939	14092
919.05	13959
919.161	13982
919.272	13818
919.383	13909
919.494	14043
919.604	14164
919.715	14001
919.826	13967
919.936	13936
920.047	14100
920.157	13997
920.267	14161
920.378	13989
920.488	13982
920.598	14237
920.708	14328
920.818	14138
920.928	14103
921.038	14271
921.148	14218
921.258	13917
921.368	13780
921.477	13822
921.587	13750
921.697	13575
921.806	13776
921.916	13636
922.025	13487
922.134	13354
922.244	13236
922.353	13506
922.462	13350
922.571	13221
922.68	13000
922.789	13057
922.898	13152
923.007	13053
923.116	13038
923.224	12954
923.333	13149
923.442	12970
923.55	12806
923.659	12897
923.767	12909
923.876	12882
923.984	12962
924.092	12852
924.201	12875
924.309	12867
924.417	12848
924.525	12730
924.633	12658
924.741	13403
924.849	12544
924.956	12753
925.064	12521
925.172	12479
925.279	12464
925.387	12604
925.494	12441
925.602	12612
925.709	12506
925.816	12346
925.924	12441
926.031	12570
926.138	12471
926.245	12509
926.352	12334
926.459	12551
926.566	12460
926.673	12399
926.779	12262
926.886	12251
926.993	11996
927.099	12041
927.206	12083
927.312	12015
927.419	12129
927.525	12076
927.631	12125
927.737	11920
927.843	11942
927.95	11878
928.056	11942
928.162	11893
928.267	12045
928.373	12582
928.479	12038
928.585	11756
928.69	11863
928.796	11950
928.901	11752
929.007	11657
929.112	11775
929.218	11790
929.323	11653
929.428	11691
929.533	11836
929.638	11627
929.743	11619
929.848	11592
929.953	11619
930.058	11455
930.163	11349
930.267	11372
930.372	11417
930.477	11311
930.581	11501
930.685	11391
930.79	11322
930.894	11284
930.998	11197
931.103	11322
931.207	11003
931.311	10869
931.415	10831
931.519	10721
931.623	10615
