Data from test_V78500241_1253.txt Node
Date: Fri Mar 25 15:18:34 CST 2022
User: usil
Spectrometer: V785-0024
Trigger mode: 0
Integration Time (sec): 4.000000E-1
Scans to average: 1
Nonlinearity correction enabled: false
Boxcar width: 0
Storing dark spectrum: false
XAxis mode: Wavelengths
Number of Pixels in Spectrum: 1024
>>>>>Begin Spectral Data<<<<<
801.071	27994
801.214	27914
801.356	27652
801.499	27420
801.641	27317
801.783	27382
801.926	27447
802.068	27447
802.211	27272
802.353	27306
802.496	27226
802.638	27058
802.78	27039
802.923	27093
803.065	26998
803.208	27058
803.35	27096
803.492	27154
803.635	27180
803.777	27135
803.919	27146
804.061	27599
804.204	27386
804.346	27188
804.488	27089
804.63	27264
804.773	27146
804.915	27218
805.057	27458
805.199	27195
805.341	27287
805.483	27466
805.626	27317
805.768	27283
805.91	27439
806.052	27401
806.194	27348
806.336	27515
806.478	27447
806.62	27382
806.762	27603
806.904	27679
807.046	27922
807.188	27762
807.33	27827
807.472	27888
807.614	27766
807.756	27861
807.898	27671
808.04	27618
808.182	27709
808.324	27724
808.465	27797
808.607	27953
808.749	28074
808.891	28120
809.033	28276
809.174	27979
809.316	28097
809.458	27964
809.6	27968
809.741	28181
809.883	28249
810.025	28333
810.166	28333
810.308	28356
810.45	28226
810.591	28226
810.733	28162
810.875	28086
811.016	27778
811.158	27899
811.299	28055
811.441	28147
811.582	28299
811.724	28109
811.865	28090
812.007	28097
812.148	28006
812.29	28143
812.431	28284
812.573	28401
812.714	28371
812.855	28611
812.997	28550
813.138	28854
813.279	28820
813.421	28816
813.562	28721
813.703	28341
813.845	28287
813.986	28101
814.127	27873
814.268	27739
814.41	27778
814.551	27736
814.692	27880
814.833	27644
814.974	27682
815.115	27694
815.256	27606
815.397	27561
815.539	27709
815.68	27507
815.821	27420
815.962	27599
816.103	27591
816.244	27450
816.385	27416
816.526	27294
816.666	27154
816.807	27131
816.948	27074
817.089	27188
817.23	27123
817.371	27001
817.512	27089
817.653	27051
817.793	27093
817.934	27032
818.075	27028
818.216	26918
818.356	27085
818.497	26830
818.638	26883
818.778	26842
818.919	26781
819.06	26826
819.2	26819
819.341	27024
819.481	27077
819.622	26971
819.762	27241
819.903	27310
820.043	27340
820.184	27180
820.324	27138
820.465	27241
820.605	27192
820.746	27100
820.886	26933
821.026	27096
821.167	27058
821.307	27104
821.447	27047
821.588	26948
821.728	26815
821.868	26712
822.008	26583
822.149	26560
822.289	26499
822.429	26229
822.569	26218
822.709	26183
822.849	26024
822.99	26092
823.13	25871
823.27	25955
823.41	25909
823.55	25742
823.69	25944
823.83	25776
823.97	25837
824.11	25518
824.25	25582
824.389	25704
824.529	25746
824.669	25563
824.809	25780
824.949	25925
825.089	25814
825.228	25575
825.368	25525
825.508	25563
825.648	25594
825.787	25601
825.927	25559
826.067	25487
826.206	25396
826.346	25624
826.485	25609
826.625	25635
826.765	25556
826.904	25670
827.044	25244
827.183	25297
827.323	25198
827.462	25278
827.601	25285
827.741	25152
827.88	25324
828.02	25274
828.159	25278
828.298	25221
828.437	25362
828.577	25213
828.716	25384
828.855	25171
828.994	25042
829.134	25072
829.273	24939
829.412	24985
829.551	24829
829.69	25004
829.829	24947
829.968	25187
830.107	25076
830.246	25008
830.385	24795
830.524	24783
830.663	24707
830.802	24635
830.941	24623
831.08	24593
831.219	24574
831.357	24677
831.496	24757
831.635	24589
831.774	24589
831.913	24479
832.051	24448
832.19	24403
832.329	24365
832.467	24327
832.606	24277
832.744	24235
832.883	24262
833.022	24270
833.16	24285
833.299	24350
833.437	24216
833.576	24323
833.714	24296
833.852	24334
833.991	24323
834.129	24456
834.267	24407
834.406	24342
834.544	24327
834.682	24494
834.821	24395
834.959	24536
835.097	24353
835.235	24441
835.373	24281
835.511	24361
835.65	24292
835.788	24209
835.926	24144
836.064	23969
836.202	24011
836.34	24159
836.478	24155
836.615	24285
836.753	24167
836.891	24216
837.029	24057
837.167	24205
837.305	23977
837.443	24011
837.58	24038
837.718	24098
837.856	24049
837.993	24022
838.131	23977
838.269	23889
838.406	23840
838.544	23843
838.681	23596
838.819	23642
838.956	23444
839.094	23372
839.231	23425
839.369	23859
839.506	23893
839.643	23798
839.781	23608
839.918	23376
840.055	23417
840.193	23531
840.33	23322
840.467	23391
840.604	23326
840.742	23661
840.879	23239
841.016	23185
841.153	23448
841.29	23490
841.427	23463
841.564	23448
841.701	23220
841.838	23307
841.975	23231
842.112	23235
842.249	23166
842.385	23189
842.522	23368
842.659	23208
842.796	23128
842.933	23029
843.069	23102
843.206	23159
843.343	23216
843.479	23079
843.616	23231
843.752	23006
843.889	23064
844.025	23018
844.162	22889
844.298	23083
844.435	22911
844.571	22980
844.708	23010
844.844	23018
844.98	22984
845.117	23052
845.253	22862
845.389	22736
845.525	22885
845.661	22691
845.798	22592
845.934	22763
846.07	22557
846.206	22630
846.342	22755
846.478	22588
846.614	22375
846.75	22261
846.886	22375
847.022	22470
847.158	22413
847.294	22352
847.429	22451
847.565	22421
847.701	22702
847.837	22120
847.972	22063
848.108	22284
848.244	22147
848.379	22105
848.515	21926
848.65	21945
848.786	21968
848.921	21945
849.057	22112
849.192	22192
849.328	21941
849.463	22055
849.598	21888
849.734	21888
849.869	21797
850.004	21724
850.14	21804
850.275	21736
850.41	21724
850.545	21720
850.68	21633
850.815	21793
850.95	21785
851.085	21854
851.22	21842
851.355	21850
851.49	21690
851.625	21637
851.76	21720
851.895	21682
852.03	21633
852.165	21667
852.299	21785
852.434	21854
852.569	21812
852.703	21724
852.838	21842
852.973	21857
853.107	21899
853.242	21701
853.376	21622
853.511	21466
853.645	21595
853.78	21694
853.914	21648
854.048	21469
854.183	21603
854.317	21652
854.451	21751
854.585	21523
854.72	21443
854.854	21633
854.988	21545
855.122	21561
855.256	21431
855.39	21610
855.524	21618
855.658	21507
855.792	21595
855.926	21644
856.06	21610
856.194	21641
856.327	21500
856.461	21340
856.595	21454
856.729	21515
856.862	21686
856.996	21561
857.13	21644
857.263	21629
857.397	21732
857.53	21542
857.664	21633
857.797	21576
857.931	21580
858.064	21572
858.197	21564
858.331	21587
858.464	21500
858.597	21454
858.731	21500
858.864	21557
858.997	21393
859.13	21603
859.263	21625
859.396	21671
859.529	21450
859.662	21462
859.795	21564
859.928	21606
860.061	21736
860.194	21766
860.327	21599
860.46	21583
860.592	21663
860.725	21637
860.858	21660
860.99	21492
861.123	21412
861.256	21496
861.388	21549
861.521	22196
861.653	21507
861.786	21507
861.918	21256
862.05	21393
862.183	21504
862.315	21530
862.447	21610
862.58	21355
862.712	21173
862.844	21180
862.976	21321
863.108	21195
863.24	21652
863.372	21287
863.504	21207
863.636	21321
863.768	21275
863.9	21252
864.032	21245
864.164	21127
864.296	21378
864.428	21447
864.559	21260
864.691	21317
864.823	21321
864.954	21298
865.086	21287
865.217	21135
865.349	21062
865.48	21150
865.612	21340
865.743	21363
865.875	21214
866.006	21093
866.137	21112
866.269	21165
866.4	21100
866.531	21085
866.662	21211
866.793	21058
866.924	21104
867.055	21108
867.186	21066
867.317	21085
867.448	21024
867.579	21013
867.71	21135
867.841	21020
867.972	21123
868.103	21112
868.233	21055
868.364	21005
868.495	21195
868.625	21310
868.756	21393
868.886	21382
869.017	21340
869.147	21405
869.278	21542
869.408	21378
869.539	21325
869.669	21435
869.799	21344
869.929	21431
870.06	21378
870.19	21774
870.32	21625
870.45	21675
870.58	21762
870.71	21800
870.84	21739
870.97	21812
871.1	21724
871.23	21888
871.36	22006
871.489	21831
871.619	21812
871.749	21945
871.879	21975
872.008	22158
872.138	22040
872.267	21915
872.397	21892
872.526	21774
872.656	21842
872.785	21732
872.915	21979
873.044	21998
873.173	21926
873.303	22051
873.432	22097
873.561	22017
873.69	21922
873.819	21899
873.948	22093
874.077	21850
874.206	21915
874.335	21880
874.464	22010
874.593	22128
874.722	22097
874.851	22139
874.979	22215
875.108	22188
875.237	22143
875.365	22017
875.494	22257
875.623	22291
875.751	22173
875.88	22242
876.008	22185
876.136	22375
876.265	22428
876.393	22607
876.521	22615
876.65	22649
876.778	22531
876.906	22561
877.034	22565
877.162	22462
877.29	22394
877.418	22531
877.546	22565
877.674	22569
877.802	22573
877.93	22432
878.058	22478
878.185	22310
878.313	22462
878.441	22531
878.568	22177
878.696	22546
878.824	22531
878.951	22538
879.079	22634
879.206	22858
879.333	22706
879.461	22497
879.588	22611
879.715	22729
879.842	22854
879.97	22630
880.097	22443
880.224	22306
880.351	22413
880.478	22230
880.605	22207
880.732	22318
880.859	22428
880.986	22554
881.112	22310
881.239	22135
881.366	22162
881.493	22082
881.619	21983
881.746	21903
881.872	22002
881.999	22044
882.125	21926
882.252	21975
882.378	21876
882.505	21960
882.631	21720
882.757	21724
882.883	21743
883.01	21557
883.136	21515
883.262	21428
883.388	21450
883.514	21629
883.64	21732
883.766	21450
883.892	21332
884.018	21447
884.143	21545
884.269	21648
884.395	21359
884.52	21173
884.646	21275
884.772	21199
884.897	21127
885.023	21237
885.148	21291
885.274	21473
885.399	21454
885.524	21184
885.65	21348
885.775	21192
885.9	21272
886.025	21374
886.15	21291
886.275	21252
886.4	21169
886.525	21195
886.65	21313
886.775	21188
886.9	21291
887.025	21469
887.149	21214
887.274	21043
887.399	21055
887.523	21028
887.648	20876
887.773	20944
887.897	21116
888.021	21001
888.146	20899
888.27	21184
888.395	21051
888.519	20979
888.643	21070
888.767	21108
888.891	20902
889.015	20800
889.139	20933
889.263	20796
889.387	20868
889.511	20952
889.635	20933
889.759	20762
889.883	20773
890.006	20857
890.13	20914
890.254	20762
890.377	20735
890.501	20621
890.624	20613
890.748	20579
890.871	20457
890.995	20389
891.118	20305
891.241	20332
891.364	20469
891.488	20377
891.611	20301
891.734	20400
891.857	20415
891.98	20339
892.103	20320
892.226	20362
892.349	20267
892.471	20199
892.594	20275
892.717	20381
892.839	20320
892.962	20328
893.085	20298
893.207	20187
893.33	20126
893.452	20309
893.575	20393
893.697	20138
893.819	20457
893.941	20408
894.064	20480
894.186	20157
894.308	20130
894.43	20305
894.552	20419
894.674	20320
894.796	20168
894.918	20134
895.04	20317
895.161	20332
895.283	20309
895.405	20195
895.526	20320
895.648	20180
895.769	20256
895.891	20225
896.012	20351
896.134	20385
896.255	20233
896.376	20286
896.498	20320
896.619	20225
896.74	20225
896.861	20309
896.982	20560
897.103	20689
897.224	20492
897.345	20480
897.466	20393
897.587	20484
897.708	20571
897.828	20564
897.949	20400
898.07	20187
898.19	20336
898.311	20518
898.431	20442
898.552	20450
898.672	20465
898.792	20530
898.913	20442
899.033	20332
899.153	20290
899.273	20191
899.393	20267
899.513	20332
899.633	20313
899.753	20263
899.873	20115
899.993	20229
900.113	20191
900.232	20202
900.352	20115
900.472	20001
900.591	19917
900.711	19940
900.83	19906
900.95	20153
901.069	19932
901.189	19959
901.308	19666
901.427	19529
901.546	19613
901.665	19548
901.784	19613
901.904	19506
902.023	19270
902.141	19175
902.26	19099
902.379	19061
902.498	19027
902.617	19091
902.735	19148
902.854	19061
902.973	18985
903.091	18920
903.21	18673
903.328	18760
903.446	18661
903.565	18582
903.683	18536
903.801	18547
903.919	18589
904.038	18467
904.156	18426
904.274	18433
904.392	18342
904.51	18300
904.627	18414
904.745	18277
904.863	18380
904.981	18197
905.098	17958
905.216	18034
905.334	17992
905.451	18019
905.569	18076
905.686	17996
905.803	17980
905.921	17840
906.038	17950
906.155	17916
906.272	17649
906.389	17767
906.506	17684
906.623	17501
906.74	17573
906.857	17414
906.974	17406
907.091	17577
907.208	17596
907.324	17501
907.441	17509
907.557	17246
907.674	17178
907.79	17056
907.907	17273
908.023	17250
908.139	17273
908.256	17170
908.372	17216
908.488	17090
908.604	16976
908.72	16927
908.836	17006
908.952	16961
909.068	16968
909.184	16987
909.3	17022
909.415	16927
909.531	16961
909.647	16687
909.762	16729
909.878	16748
909.993	16645
910.108	16736
910.224	16702
910.339	16702
910.454	16584
910.57	16455
910.685	16382
910.8	16569
910.915	16603
911.03	16413
911.145	16242
911.259	16310
911.374	16363
911.489	16238
911.604	16128
911.718	15994
911.833	16006
911.947	15930
912.062	15850
912.176	15979
912.291	15972
912.405	15953
912.519	16253
912.633	16166
912.748	15983
912.862	16086
912.976	15842
913.09	15816
913.204	15759
913.318	15781
913.431	15915
913.545	15899
913.659	15854
913.772	15762
913.886	15641
914	15606
914.113	15720
914.226	15762
914.34	15652
914.453	15523
914.566	15603
914.68	15504
914.793	15496
914.906	15264
915.019	15256
915.132	15245
915.245	15249
915.358	15351
915.47	15245
915.583	15241
915.696	15211
915.809	15397
915.921	15370
916.034	15226
916.146	15180
916.259	15089
916.371	15169
916.483	15203
916.595	15142
916.708	15146
916.82	15043
916.932	15055
917.044	15051
917.156	14960
917.268	14849
917.38	14800
917.491	14880
917.603	14807
917.715	14967
917.826	15001
917.938	14807
918.049	14739
918.161	14746
918.272	14982
918.384	14952
918.495	14731
918.606	14670
918.717	14579
918.828	14587
918.939	14590
919.05	14541
919.161	14629
919.272	14454
919.383	14415
919.494	14629
919.604	14883
919.715	14670
919.826	14549
919.936	14613
920.047	14610
920.157	14602
920.267	14731
920.378	14659
920.488	14564
920.598	14750
920.708	14849
920.818	14769
920.928	14758
921.038	14849
921.148	14781
921.258	14511
921.368	14484
921.477	14301
921.587	14385
921.697	14172
921.806	14267
921.916	14221
922.025	14065
922.134	13936
922.244	13890
922.353	13959
922.462	13818
922.571	13753
922.68	13681
922.789	13521
922.898	13643
923.007	13491
923.116	13738
923.224	13605
923.333	13552
923.442	13438
923.55	13426
923.659	13510
923.767	13487
923.876	13430
923.984	13411
924.092	13320
924.201	13411
924.309	13358
924.417	13388
924.525	13285
924.633	13354
924.741	13993
924.849	13008
924.956	13251
925.064	13091
925.172	12951
925.279	13012
925.387	13031
925.494	13095
925.602	13156
925.709	13126
925.816	12939
925.924	12932
926.031	13031
926.138	13053
926.245	13019
926.352	12882
926.459	13027
926.566	12954
926.673	12833
926.779	12776
926.886	12783
926.993	12601
927.099	12525
927.206	12544
927.312	12559
927.419	12654
927.525	12635
927.631	12662
927.737	12437
927.843	12464
927.95	12338
928.056	12426
928.162	12365
928.267	12380
928.373	13057
928.479	12429
928.585	12220
928.69	12346
928.796	12361
928.901	12262
929.007	12148
929.112	12247
929.218	12235
929.323	12102
929.428	12171
929.533	12220
929.638	12068
929.743	12106
929.848	12129
929.953	12003
930.058	12045
930.163	11908
930.267	11863
930.372	11965
930.477	11775
930.581	11893
930.685	11893
930.79	11668
930.894	11688
930.998	11710
931.103	11798
931.207	11459
931.311	11406
931.415	11391
931.519	11147
931.623	11052
