Data from test_V78500241_1968.txt Node
Date: Fri Mar 25 15:23:33 CST 2022
User: usil
Spectrometer: V785-0024
Trigger mode: 0
Integration Time (sec): 4.000000E-1
Scans to average: 1
Nonlinearity correction enabled: false
Boxcar width: 0
Storing dark spectrum: false
XAxis mode: Wavelengths
Number of Pixels in Spectrum: 1024
>>>>>Begin Spectral Data<<<<<
801.071	27797
801.214	27732
801.356	27488
801.499	27416
801.641	27332
801.783	27325
801.926	27344
802.068	27302
802.211	27256
802.353	27176
802.496	27032
802.638	26933
802.78	26994
802.923	26921
803.065	26868
803.208	26925
803.35	26998
803.492	27036
803.635	27112
803.777	27055
803.919	27127
804.061	27374
804.204	27329
804.346	27150
804.488	26971
804.63	27218
804.773	27051
804.915	26982
805.057	27256
805.199	27077
805.341	27222
805.483	27344
805.626	27272
805.768	27135
805.91	27157
806.052	27237
806.194	27370
806.336	27439
806.478	27272
806.62	27161
806.762	27393
806.904	27561
807.046	27755
807.188	27660
807.33	27713
807.472	27690
807.614	27583
807.756	27572
807.898	27580
808.04	27450
808.182	27427
808.324	27443
808.465	27526
808.607	27979
808.749	27831
808.891	27937
809.033	28070
809.174	27888
809.316	27914
809.458	27857
809.6	27816
809.741	28070
809.883	28109
810.025	28143
810.166	28284
810.308	28097
810.45	28128
810.591	28063
810.733	28048
810.875	27850
811.016	27682
811.158	27545
811.299	27941
811.441	28101
811.582	27994
811.724	27975
811.865	27873
812.007	27884
812.148	27937
812.29	27808
812.431	28090
812.573	28242
812.714	28249
812.855	28451
812.997	28447
813.138	28687
813.279	28565
813.421	28424
813.562	28401
813.703	28405
813.845	28143
813.986	27865
814.127	27732
814.268	27652
814.41	27523
814.551	27580
814.692	27759
814.833	27523
814.974	27496
815.115	27507
815.256	27454
815.397	27450
815.539	27519
815.68	27325
815.821	27291
815.962	27515
816.103	27359
816.244	27245
816.385	27039
816.526	27017
816.666	26914
816.807	26800
816.948	26826
817.089	26982
817.23	26929
817.371	26872
817.512	26819
817.653	26830
817.793	26849
817.934	26849
818.075	26868
818.216	26842
818.356	26842
818.497	26651
818.638	26613
818.778	26518
818.919	26708
819.06	26629
819.2	26773
819.341	26864
819.481	26925
819.622	26979
819.762	27173
819.903	27188
820.043	26864
820.184	27017
820.324	26876
820.465	27096
820.605	26994
820.746	26921
820.886	26857
821.026	26979
821.167	26918
821.307	26952
821.447	26975
821.588	26773
821.728	26701
821.868	26389
822.008	26381
822.149	26343
822.289	26271
822.429	26092
822.569	26016
822.709	26065
822.849	25909
822.99	25845
823.13	25894
823.27	25890
823.41	25476
823.55	25597
823.69	25723
823.83	25742
823.97	25727
824.11	25445
824.25	25472
824.389	25632
824.529	25605
824.669	25460
824.809	25616
824.949	25651
825.089	25582
825.228	25479
825.368	25403
825.508	25362
825.648	25384
825.787	25392
825.927	25499
826.067	25362
826.206	25274
826.346	25354
826.485	25377
826.625	25278
826.765	25400
826.904	25411
827.044	25164
827.183	25206
827.323	25038
827.462	25259
827.601	25156
827.741	25099
827.88	25076
828.02	25046
828.159	25050
828.298	25019
828.437	25145
828.577	25122
828.716	25225
828.855	24985
828.994	24783
829.134	24749
829.273	24875
829.412	24760
829.551	24726
829.69	24757
829.829	24875
829.968	24840
830.107	24810
830.246	24772
830.385	24654
830.524	24863
830.663	24528
830.802	24528
830.941	24361
831.08	24327
831.219	24429
831.357	24448
831.496	24505
831.635	24388
831.774	24323
831.913	24414
832.051	24167
832.19	24357
832.329	24194
832.467	24228
832.606	24003
832.744	23904
832.883	24098
833.022	24026
833.16	24057
833.299	24174
833.437	24030
833.576	24148
833.714	24125
833.852	24129
833.991	24258
834.129	24201
834.267	24076
834.406	24178
834.544	24232
834.682	24007
834.821	24045
834.959	24270
835.097	24015
835.235	24095
835.373	24163
835.511	24148
835.65	24060
835.788	24034
835.926	23817
836.064	23843
836.202	23767
836.34	23824
836.478	24076
836.615	23988
836.753	23935
836.891	24045
837.029	23920
837.167	23882
837.305	23904
837.443	23615
837.58	23851
837.718	23931
837.856	23691
837.993	23775
838.131	23687
838.269	23707
838.406	23821
838.544	23649
838.681	23490
838.819	23478
838.956	23364
839.094	23337
839.231	23334
839.369	23543
839.506	23615
839.643	23539
839.781	23326
839.918	23349
840.055	23246
840.193	23220
840.33	23147
840.467	23269
840.604	23318
840.742	23463
840.879	23056
841.016	23200
841.153	23223
841.29	23311
841.427	23185
841.564	23261
841.701	23204
841.838	23033
841.975	23121
842.112	23220
842.249	23014
842.385	23010
842.522	23159
842.659	22866
842.796	23052
842.933	23025
843.069	22774
843.206	22858
843.343	23029
843.479	23105
843.616	23048
843.752	22782
843.889	22809
844.025	22911
844.162	22831
844.298	22710
844.435	22607
844.571	22622
844.708	22649
844.844	22915
844.98	22953
845.117	22854
845.253	22622
845.389	22679
845.525	22607
845.661	22599
845.798	22409
845.934	22497
846.07	22470
846.206	22508
846.342	22580
846.478	22459
846.614	22249
846.75	22082
846.886	22143
847.022	22246
847.158	22276
847.294	22253
847.429	22226
847.565	22177
847.701	22398
847.837	22032
847.972	21941
848.108	21911
848.244	22010
848.379	21850
848.515	21800
848.65	21816
848.786	21854
848.921	21816
849.057	21956
849.192	21831
849.328	21709
849.463	21690
849.598	21755
849.734	21622
849.869	21603
850.004	21572
850.14	21507
850.275	21606
850.41	21488
850.545	21458
850.68	21481
850.815	21549
850.95	21583
851.085	21838
851.22	21797
851.355	21549
851.49	21481
851.625	21572
851.76	21511
851.895	21507
852.03	21458
852.165	21648
852.299	21549
852.434	21679
852.569	21557
852.703	21542
852.838	21580
852.973	21553
853.107	21679
853.242	21523
853.376	21431
853.511	21306
853.645	21287
853.78	21435
853.914	21325
854.048	21287
854.183	21279
854.317	21408
854.451	21564
854.585	21359
854.72	21313
854.854	21504
854.988	21226
855.122	21462
855.256	21268
855.39	21405
855.524	21348
855.658	21397
855.792	21382
855.926	21408
856.06	21420
856.194	21507
856.327	21370
856.461	21389
856.595	21389
856.729	21378
856.862	21523
856.996	21332
857.13	21504
857.263	21526
857.397	21393
857.53	21393
857.664	21424
857.797	21473
857.931	21492
858.064	21370
858.197	21599
858.331	21428
858.464	21355
858.597	21218
858.731	21386
858.864	21389
858.997	21389
859.13	21355
859.263	21386
859.396	21431
859.529	21325
859.662	21344
859.795	21279
859.928	21199
860.061	21553
860.194	21534
860.327	21401
860.46	21504
860.592	21557
860.725	21481
860.858	21507
860.99	21367
861.123	21283
861.256	21344
861.388	21511
861.521	22070
861.653	21222
861.786	21150
861.918	21230
862.05	21237
862.183	21279
862.315	21348
862.447	21504
862.58	21291
862.712	21066
862.844	21024
862.976	21116
863.108	21112
863.24	21458
863.372	21119
863.504	21066
863.636	21020
863.768	21070
863.9	21085
864.032	21036
864.164	20986
864.296	21001
864.428	21275
864.559	21176
864.691	21100
864.823	21131
864.954	21173
865.086	21131
865.217	21043
865.349	20906
865.48	21058
865.612	21058
865.743	21108
865.875	20933
866.006	21005
866.137	20906
866.269	21043
866.4	20975
866.531	20883
866.662	20845
866.793	20921
866.924	20906
867.055	20899
867.186	20872
867.317	20739
867.448	20868
867.579	20952
867.71	20796
867.841	20872
867.972	20971
868.103	20792
868.233	20823
868.364	20982
868.495	20956
868.625	21188
868.756	21359
868.886	21062
869.017	21214
869.147	21264
869.278	21211
869.408	21222
869.539	21161
869.669	21249
869.799	21161
869.929	21249
870.06	21302
870.19	21473
870.32	21458
870.45	21485
870.58	21496
870.71	21622
870.84	21720
870.97	21591
871.1	21523
871.23	21747
871.36	21762
871.489	21717
871.619	21580
871.749	21804
871.879	21835
872.008	21732
872.138	21759
872.267	21637
872.397	21686
872.526	21538
872.656	21739
872.785	21618
872.915	21770
873.044	21804
873.173	21808
873.303	21800
873.432	21793
873.561	21816
873.69	21698
873.819	21762
873.948	21743
874.077	21812
874.206	21785
874.335	21770
874.464	21804
874.593	22051
874.722	21987
874.851	22051
874.979	22036
875.108	21922
875.237	21930
875.365	21759
875.494	21956
875.623	22082
875.751	21937
875.88	21998
876.008	22090
876.136	22158
876.265	22451
876.393	22443
876.521	22402
876.65	22527
876.778	22360
876.906	22455
877.034	22314
877.162	22352
877.29	22265
877.418	22367
877.546	22318
877.674	22504
877.802	22386
877.93	22318
878.058	22333
878.185	22097
878.313	22367
878.441	22329
878.568	22109
878.696	22219
878.824	22398
878.951	22352
879.079	22561
879.206	22596
879.333	22481
879.461	22402
879.588	22474
879.715	22615
879.842	22736
879.97	22405
880.097	22147
880.224	22200
880.351	22196
880.478	22188
880.605	22169
880.732	22234
880.859	22428
880.986	22230
881.112	22169
881.239	21998
881.366	21903
881.493	21903
881.619	21743
881.746	21755
881.872	21789
881.999	21641
882.125	21641
882.252	21747
882.378	21728
882.505	21789
882.631	21530
882.757	21431
882.883	21500
883.01	21424
883.136	21344
883.262	21317
883.388	21310
883.514	21439
883.64	21283
883.766	21325
883.892	21184
884.018	21161
884.143	21268
884.269	21504
884.395	21161
884.52	21070
884.646	20979
884.772	21032
884.897	20830
885.023	21138
885.148	21214
885.274	21264
885.399	21226
885.524	21096
885.65	21142
885.775	21036
885.9	21119
886.025	21169
886.15	21180
886.275	21047
886.4	20929
886.525	21074
886.65	21017
886.775	20914
886.9	21199
887.025	21275
887.149	21020
887.274	20963
887.399	20830
887.523	20800
887.648	20815
887.773	20823
887.897	20910
888.021	20864
888.146	20731
888.27	20967
888.395	20963
888.519	20921
888.643	20765
888.767	20864
888.891	20792
889.015	20712
889.139	20655
889.263	20648
889.387	20834
889.511	20902
889.635	20823
889.759	20648
889.883	20632
890.006	20648
890.13	20674
890.254	20549
890.377	20568
890.501	20419
890.624	20434
890.748	20454
890.871	20294
890.995	20199
891.118	20142
891.241	20092
891.364	20149
891.488	20286
891.611	20199
891.734	20290
891.857	20248
891.98	20168
892.103	20248
892.226	20218
892.349	20111
892.471	19947
892.594	20206
892.717	20214
892.839	20100
892.962	20065
893.085	20240
893.207	20100
893.33	19947
893.452	20107
893.575	20020
893.697	20111
893.819	20370
893.941	20206
894.064	20301
894.186	20024
894.308	20046
894.43	20149
894.552	20111
894.674	20142
894.796	20073
894.918	19993
895.04	20031
895.161	20244
895.283	20073
895.405	19940
895.526	20142
895.648	20039
895.769	20077
895.891	19997
896.012	20199
896.134	20107
896.255	20191
896.376	19982
896.498	20119
896.619	20172
896.74	20084
896.861	20050
896.982	20438
897.103	20590
897.224	20461
897.345	20412
897.466	20286
897.587	20267
897.708	20454
897.828	20309
897.949	20412
898.07	20286
898.19	20298
898.311	20480
898.431	20317
898.552	20358
898.672	20233
898.792	20396
898.913	20400
899.033	20305
899.153	20149
899.273	20088
899.393	20020
899.513	20065
899.633	19959
899.753	20020
899.873	20035
899.993	20031
900.113	20027
900.232	20046
900.352	20039
900.472	19936
900.591	19788
900.711	19818
900.83	19731
900.95	19909
901.069	19970
901.189	19655
901.308	19529
901.427	19544
901.546	19403
901.665	19403
901.784	19381
901.904	19206
902.023	19213
902.141	18985
902.26	18966
902.379	19050
902.498	18966
902.617	18894
902.735	19027
902.854	19008
902.973	18859
903.091	18608
903.21	18635
903.328	18547
903.446	18547
903.565	18486
903.683	18456
903.801	18323
903.919	18338
904.038	18441
904.156	18190
904.274	18209
904.392	18095
904.51	18167
904.627	18133
904.745	18178
904.863	18281
904.981	18064
905.098	17923
905.216	17786
905.334	17912
905.451	17908
905.569	17741
905.686	17916
905.803	17748
905.921	17653
906.038	17657
906.155	17687
906.272	17467
906.389	17585
906.506	17406
906.623	17398
906.74	17402
906.857	17296
906.974	17284
907.091	17410
907.208	17551
907.324	17452
907.441	17334
907.557	17121
907.674	17212
907.79	17056
907.907	17041
908.023	17174
908.139	17113
908.256	17151
908.372	17010
908.488	16934
908.604	16900
908.72	16820
908.836	16881
908.952	16805
909.068	16801
909.184	16911
909.3	16854
909.415	16816
909.531	16869
909.647	16599
909.762	16569
909.878	16459
909.993	16535
910.108	16508
910.224	16577
910.339	16550
910.454	16375
910.57	16409
910.685	16257
910.8	16535
910.915	16459
911.03	16398
911.145	16120
911.259	16143
911.374	16128
911.489	16017
911.604	15987
911.718	15842
911.833	15895
911.947	15755
912.062	15728
912.176	15835
912.291	15869
912.405	15869
912.519	15972
912.633	16002
912.748	15903
912.862	15835
912.976	15591
913.09	15561
913.204	15751
913.318	15808
913.431	15800
913.545	15827
913.659	15755
913.772	15606
913.886	15542
914	15500
914.113	15545
914.226	15679
914.34	15545
914.453	15386
914.566	15519
914.68	15458
914.793	15370
914.906	15207
915.019	15104
915.132	15058
915.245	15138
915.358	15127
915.47	15108
915.583	15081
915.696	15058
915.809	15256
915.921	15142
916.034	15020
916.146	15039
916.259	15043
916.371	15074
916.483	15062
916.595	14906
916.708	14883
916.82	14967
916.932	14937
917.044	14861
917.156	14857
917.268	14796
917.38	14819
917.491	14731
917.603	14785
917.715	14815
917.826	14876
917.938	14708
918.049	14602
918.161	14697
918.272	14773
918.384	14857
918.495	14750
918.606	14431
918.717	14442
918.828	14541
918.939	14602
919.05	14423
919.161	14419
919.272	14161
919.383	14381
919.494	14556
919.604	14743
919.715	14495
919.826	14511
919.936	14427
920.047	14473
920.157	14492
920.267	14682
920.378	14526
920.488	14412
920.598	14663
920.708	14788
920.818	14530
920.928	14522
921.038	14777
921.148	14674
921.258	14465
921.368	14313
921.477	14221
921.587	14214
921.697	14130
921.806	14161
921.916	14145
922.025	13928
922.134	14043
922.244	13734
922.353	13887
922.462	13856
922.571	13647
922.68	13457
922.789	13567
922.898	13525
923.007	13491
923.116	13575
923.224	13514
923.333	13377
923.442	13407
923.55	13358
923.659	13301
923.767	13426
923.876	13202
923.984	13362
924.092	13240
924.201	13232
924.309	13232
924.417	13301
924.525	13168
924.633	13137
924.741	13989
924.849	12905
924.956	13038
925.064	12958
925.172	12833
925.279	12932
925.387	12939
925.494	12989
925.602	13080
925.709	13031
925.816	12856
925.924	12882
926.031	12996
926.138	12909
926.245	12928
926.352	12779
926.459	12856
926.566	12867
926.673	12741
926.779	12662
926.886	12635
926.993	12540
927.099	12490
927.206	12532
927.312	12490
927.419	12585
927.525	12422
927.631	12475
927.737	12361
927.843	12292
927.95	12216
928.056	12270
928.162	12353
928.267	12338
928.373	12894
928.479	12338
928.585	12167
928.69	12235
928.796	12266
928.901	12175
929.007	12076
929.112	12129
929.218	12201
929.323	12125
929.428	11992
929.533	12224
929.638	12034
929.743	11901
929.848	12102
929.953	12049
930.058	11901
930.163	11729
930.267	11764
930.372	11809
930.477	11657
930.581	11927
930.685	11767
930.79	11608
930.894	11630
930.998	11589
931.103	11718
931.207	11368
931.311	11204
931.415	11174
931.519	10961
931.623	11060
