Data from test_V78500241_1909.txt Node
Date: Fri Mar 25 15:23:08 CST 2022
User: usil
Spectrometer: V785-0024
Trigger mode: 0
Integration Time (sec): 4.000000E-1
Scans to average: 1
Nonlinearity correction enabled: false
Boxcar width: 0
Storing dark spectrum: false
XAxis mode: Wavelengths
Number of Pixels in Spectrum: 1024
>>>>>Begin Spectral Data<<<<<
801.071	27241
801.214	27275
801.356	26921
801.499	26731
801.641	26857
801.783	26773
801.926	26899
802.068	26880
802.211	26785
802.353	26727
802.496	26465
802.638	26324
802.78	26442
802.923	26351
803.065	26488
803.208	26404
803.35	26347
803.492	26450
803.635	26708
803.777	26450
803.919	26621
804.061	26960
804.204	26648
804.346	26697
804.488	26564
804.63	26705
804.773	26609
804.915	26606
805.057	26804
805.199	26579
805.341	26636
805.483	26800
805.626	26727
805.768	26693
805.91	26758
806.052	26674
806.194	26731
806.336	26937
806.478	26686
806.62	26838
806.762	26895
806.904	27058
807.046	27211
807.188	27226
807.33	27081
807.472	26994
807.614	27207
807.756	27138
807.898	27028
808.04	26979
808.182	27024
808.324	27123
808.465	26925
808.607	27363
808.749	27412
808.891	27477
809.033	27447
809.174	27416
809.316	27359
809.458	27408
809.6	27291
809.741	27595
809.883	27488
810.025	27637
810.166	27610
810.308	27557
810.45	27526
810.591	27530
810.733	27397
810.875	27363
811.016	27211
811.158	27157
811.299	27401
811.441	27427
811.582	27431
811.724	27249
811.865	27195
812.007	27199
812.148	27264
812.29	27454
812.431	27511
812.573	27652
812.714	27644
812.855	27823
812.997	27968
813.138	28048
813.279	28029
813.421	27705
813.562	27800
813.703	27587
813.845	27256
813.986	27226
814.127	27131
814.268	26963
814.41	27058
814.551	26849
814.692	27119
814.833	26883
814.974	27051
815.115	27104
815.256	26849
815.397	26849
815.539	26883
815.68	26655
815.821	26754
815.962	26788
816.103	26693
816.244	26701
816.385	26499
816.526	26564
816.666	26358
816.807	26225
816.948	26461
817.089	26476
817.23	26286
817.371	26389
817.512	26351
817.653	26218
817.793	26107
817.934	26286
818.075	26187
818.216	26294
818.356	26164
818.497	26237
818.638	25921
818.778	26103
818.919	26008
819.06	26172
819.2	26183
819.341	26221
819.481	26259
819.622	26393
819.762	26541
819.903	26431
820.043	26469
820.184	26434
820.324	26465
820.465	26469
820.605	26309
820.746	26214
820.886	26240
821.026	26385
821.167	26290
821.307	26434
821.447	26396
821.588	26218
821.728	26020
821.868	26058
822.008	25651
822.149	25791
822.289	25662
822.429	25415
822.569	25460
822.709	25331
822.849	25202
822.99	25377
823.13	25244
823.27	25278
823.41	25038
823.55	25053
823.69	25133
823.83	24977
823.97	24962
824.11	24947
824.25	24878
824.389	24859
824.529	24897
824.669	24863
824.809	24935
824.949	24977
825.089	24939
825.228	24943
825.368	24806
825.508	24726
825.648	24700
825.787	24886
825.927	24798
826.067	24741
826.206	24798
826.346	24757
826.485	24821
826.625	24688
826.765	24779
826.904	24684
827.044	24452
827.183	24475
827.323	24433
827.462	24464
827.601	24544
827.741	24395
827.88	24467
828.02	24361
828.159	24471
828.298	24433
828.437	24460
828.577	24384
828.716	24433
828.855	24407
828.994	24174
829.134	24163
829.273	24254
829.412	24076
829.551	24064
829.69	24197
829.829	24136
829.968	24292
830.107	24209
830.246	24194
830.385	24125
830.524	24049
830.663	23916
830.802	23889
830.941	23840
831.08	23748
831.219	23843
831.357	23912
831.496	23999
831.635	23767
831.774	23649
831.913	23672
832.051	23619
832.19	23501
832.329	23570
832.467	23395
832.606	23463
832.744	23307
832.883	23554
833.022	23440
833.16	23383
833.299	23429
833.437	23471
833.576	23474
833.714	23398
833.852	23516
833.991	23684
834.129	23577
834.267	23482
834.406	23501
834.544	23524
834.682	23490
834.821	23543
834.959	23737
835.097	23433
835.235	23729
835.373	23512
835.511	23474
835.65	23364
835.788	23414
835.926	23181
836.064	23299
836.202	23136
836.34	23261
836.478	23345
836.615	23277
836.753	23330
836.891	23444
837.029	23372
837.167	23296
837.305	23242
837.443	23220
837.58	23277
837.718	23356
837.856	23345
837.993	23041
838.131	23231
838.269	23121
838.406	23147
838.544	23056
838.681	22949
838.819	22816
838.956	22889
839.094	22755
839.231	22649
839.369	22839
839.506	23003
839.643	22953
839.781	22710
839.918	22706
840.055	22691
840.193	22664
840.33	22607
840.467	22557
840.604	22698
840.742	22767
840.879	22550
841.016	22478
841.153	22584
841.29	22713
841.427	22645
841.564	22637
841.701	22607
841.838	22466
841.975	22474
842.112	22538
842.249	22360
842.385	22272
842.522	22512
842.659	22481
842.796	22352
842.933	22394
843.069	22280
843.206	22333
843.343	22512
843.479	22382
843.616	22295
843.752	22036
843.889	22215
844.025	22276
844.162	22131
844.298	22314
844.435	22139
844.571	22135
844.708	22211
844.844	22314
844.98	22207
845.117	22306
845.253	22181
845.389	22090
845.525	21972
845.661	21895
845.798	21884
845.934	21941
846.07	21918
846.206	21956
846.342	22006
846.478	21930
846.614	21663
846.75	21462
846.886	21641
847.022	21633
847.158	21690
847.294	21728
847.429	21732
847.565	21637
847.701	21789
847.837	21272
847.972	21272
848.108	21485
848.244	21458
848.379	21325
848.515	21131
848.65	21310
848.786	21306
848.921	21207
849.057	21344
849.192	21378
849.328	21154
849.463	21081
849.598	21150
849.734	21047
849.869	21074
850.004	21039
850.14	20925
850.275	21024
850.41	20941
850.545	20948
850.68	20857
850.815	21017
850.95	20937
851.085	21268
851.22	21077
851.355	20967
851.49	21070
851.625	21100
851.76	20956
851.895	20883
852.03	20880
852.165	20975
852.299	20994
852.434	21127
852.569	21017
852.703	20986
852.838	21055
852.973	21005
853.107	21104
853.242	21055
853.376	20842
853.511	20697
853.645	20743
853.78	20853
853.914	20765
854.048	20826
854.183	20731
854.317	20845
854.451	20963
854.585	20864
854.72	20826
854.854	20899
854.988	20640
855.122	20758
855.256	20686
855.39	20785
855.524	20815
855.658	20746
855.792	20921
855.926	20765
856.06	20895
856.194	20864
856.327	20819
856.461	20727
856.595	20697
856.729	20731
856.862	20826
856.996	20876
857.13	20861
857.263	20948
857.397	20956
857.53	20807
857.664	20880
857.797	20963
857.931	20826
858.064	20773
858.197	20944
858.331	20735
858.464	20701
858.597	20636
858.731	20712
858.864	20625
858.997	20800
859.13	20720
859.263	20834
859.396	20872
859.529	20689
859.662	20716
859.795	20765
859.928	20750
860.061	20963
860.194	21005
860.327	20712
860.46	20796
860.592	20937
860.725	20986
860.858	20975
860.99	20773
861.123	20720
861.256	20754
861.388	20724
861.521	21500
861.653	20785
861.786	20560
861.918	20625
862.05	20701
862.183	20689
862.315	20788
862.447	20826
862.58	20746
862.712	20533
862.844	20473
862.976	20590
863.108	20537
863.24	20921
863.372	20473
863.504	20499
863.636	20446
863.768	20530
863.9	20552
864.032	20503
864.164	20514
864.296	20594
864.428	20754
864.559	20495
864.691	20594
864.823	20473
864.954	20549
865.086	20434
865.217	20423
865.349	20225
865.48	20389
865.612	20438
865.743	20590
865.875	20446
866.006	20366
866.137	20427
866.269	20374
866.4	20366
866.531	20290
866.662	20336
866.793	20351
866.924	20347
867.055	20332
867.186	20446
867.317	20305
867.448	20267
867.579	20343
867.71	20248
867.841	20237
867.972	20396
868.103	20278
868.233	20343
868.364	20275
868.495	20499
868.625	20579
868.756	20701
868.886	20537
869.017	20431
869.147	20670
869.278	20777
869.408	20712
869.539	20442
869.669	20655
869.799	20689
869.929	20781
870.06	20648
870.19	20857
870.32	20929
870.45	20918
870.58	20986
870.71	21062
870.84	21138
870.97	20990
871.1	21058
871.23	21108
871.36	21222
871.489	21085
871.619	21146
871.749	21211
871.879	21279
872.008	21298
872.138	21264
872.267	21237
872.397	21165
872.526	21017
872.656	21070
872.785	21009
872.915	21272
873.044	21367
873.173	21142
873.303	21412
873.432	21329
873.561	21268
873.69	21146
873.819	21104
873.948	21291
874.077	21161
874.206	21370
874.335	21199
874.464	21325
874.593	21336
874.722	21302
874.851	21405
874.979	21408
875.108	21462
875.237	21408
875.365	21401
875.494	21462
875.623	21568
875.751	21424
875.88	21443
876.008	21614
876.136	21679
876.265	21812
876.393	21994
876.521	21987
876.65	21934
876.778	21915
876.906	21694
877.034	21873
877.162	21804
877.29	21766
877.418	21869
877.546	21819
877.674	21793
877.802	21766
877.93	21827
878.058	21778
878.185	21705
878.313	21766
878.441	21812
878.568	21622
878.696	21884
878.824	21816
878.951	21876
879.079	21930
879.206	22082
879.333	22006
879.461	21823
879.588	21949
879.715	22017
879.842	22105
879.97	21850
880.097	21705
880.224	21622
880.351	21709
880.478	21660
880.605	21660
880.732	21549
880.859	21755
880.986	21720
881.112	21682
881.239	21431
881.366	21443
881.493	21332
881.619	21154
881.746	21321
881.872	21279
881.999	21157
882.125	21161
882.252	21294
882.378	21138
882.505	21355
882.631	21013
882.757	20998
882.883	21169
883.01	20960
883.136	20921
883.262	20857
883.388	20701
883.514	20982
883.64	20902
883.766	20804
883.892	20777
884.018	20731
884.143	20830
884.269	21051
884.395	20746
884.52	20621
884.646	20545
884.772	20632
884.897	20423
885.023	20629
885.148	20815
885.274	20864
885.399	20655
885.524	20602
885.65	20609
885.775	20564
885.9	20533
886.025	20735
886.15	20697
886.275	20564
886.4	20511
886.525	20400
886.65	20488
886.775	20556
886.9	20629
887.025	20781
887.149	20492
887.274	20355
887.399	20282
887.523	20313
887.648	20271
887.773	20320
887.897	20381
888.021	20294
888.146	20153
888.27	20526
888.395	20400
888.519	20324
888.643	20381
888.767	20328
888.891	20358
889.015	20233
889.139	20248
889.263	20107
889.387	20248
889.511	20499
889.635	20374
889.759	20092
889.883	20084
890.006	20183
890.13	20240
890.254	20088
890.377	20043
890.501	19959
890.624	20039
890.748	19947
890.871	19906
890.995	19655
891.118	19712
891.241	19750
891.364	19723
891.488	19936
891.611	19776
891.734	19731
891.857	19803
891.98	19727
892.103	19693
892.226	19788
892.349	19696
892.471	19586
892.594	19616
892.717	19696
892.839	19559
892.962	19693
893.085	19761
893.207	19597
893.33	19552
893.452	19689
893.575	19700
893.697	19590
893.819	19868
893.941	19769
894.064	19742
894.186	19533
894.308	19521
894.43	19734
894.552	19826
894.674	19727
894.796	19540
894.918	19689
895.04	19552
895.161	19693
895.283	19666
895.405	19575
895.526	19753
895.648	19655
895.769	19613
895.891	19575
896.012	19765
896.134	19708
896.255	19674
896.376	19540
896.498	19605
896.619	19753
896.74	19799
896.861	19677
896.982	19997
897.103	20039
897.224	19963
897.345	19917
897.466	19795
897.587	19921
897.708	20027
897.828	19871
897.949	19826
898.07	19658
898.19	19750
898.311	19944
898.431	19864
898.552	19822
898.672	20020
898.792	19997
898.913	20069
899.033	19742
899.153	19575
899.273	19537
899.393	19590
899.513	19700
899.633	19632
899.753	19594
899.873	19537
899.993	19658
900.113	19537
900.232	19601
900.352	19537
900.472	19491
900.591	19426
900.711	19426
900.83	19324
900.95	19438
901.069	19491
901.189	19285
901.308	19069
901.427	18954
901.546	19057
901.665	18977
901.784	19008
901.904	18913
902.023	18844
902.141	18604
902.26	18509
902.379	18639
902.498	18445
902.617	18544
902.735	18620
902.854	18422
902.973	18380
903.091	18133
903.21	18277
903.328	18163
903.446	18083
903.565	18072
903.683	18072
903.801	17893
903.919	17973
904.038	17965
904.156	17809
904.274	17847
904.392	17752
904.51	17680
904.627	17703
904.745	17901
904.863	17794
904.981	17642
905.098	17547
905.216	17528
905.334	17410
905.451	17486
905.569	17463
905.686	17376
905.803	17444
905.921	17277
906.038	17318
906.155	17292
906.272	17280
906.389	17121
906.506	17006
906.623	17029
906.74	16953
906.857	16972
906.974	16900
907.091	17079
907.208	17041
907.324	16965
907.441	16862
907.557	16748
907.674	16736
907.79	16630
907.907	16668
908.023	16702
908.139	16626
908.256	16630
908.372	16554
908.488	16660
908.604	16504
908.72	16432
908.836	16470
908.952	16417
909.068	16432
909.184	16531
909.3	16443
909.415	16519
909.531	16546
909.647	16147
909.762	16265
909.878	16196
909.993	16101
910.108	16036
910.224	16025
910.339	16013
910.454	15949
910.57	15960
910.685	15876
910.8	16207
910.915	16010
911.03	15892
911.145	15785
911.259	15778
911.374	15789
911.489	15743
911.604	15564
911.718	15477
911.833	15485
911.947	15496
912.062	15279
912.176	15325
912.291	15496
912.405	15614
912.519	15656
912.633	15686
912.748	15504
912.862	15408
912.976	15294
913.09	15233
913.204	15294
913.318	15291
913.431	15351
913.545	15332
913.659	15355
913.772	15302
913.886	15192
914	15157
914.113	15127
914.226	15214
914.34	15237
914.453	15055
914.566	15173
914.68	15058
914.793	14982
914.906	14773
915.019	14769
915.132	14807
915.245	14697
915.358	14731
915.47	14705
915.583	14655
915.696	14819
915.809	14853
915.921	14906
916.034	14682
916.146	14564
916.259	14758
916.371	14716
916.483	14754
916.595	14522
916.708	14575
916.82	14625
916.932	14545
917.044	14495
917.156	14473
917.268	14431
917.38	14412
917.491	14393
917.603	14469
917.715	14518
917.826	14480
917.938	14374
918.049	14229
918.161	14366
918.272	14412
918.384	14541
918.495	14328
918.606	14237
918.717	14218
918.828	14286
918.939	14176
919.05	14138
919.161	14084
919.272	13978
919.383	13913
919.494	14225
919.604	14362
919.715	14180
919.826	14100
919.936	14126
920.047	14164
920.157	14092
920.267	14305
920.378	14073
920.488	13978
920.598	14275
920.708	14526
920.818	14301
920.928	14317
921.038	14442
921.148	14377
921.258	14081
921.368	13993
921.477	13925
921.587	13803
921.697	13769
921.806	13936
921.916	13753
922.025	13620
922.134	13567
922.244	13449
922.353	13609
922.462	13468
922.571	13419
922.68	13194
922.789	13251
922.898	13145
923.007	13145
923.116	13225
923.224	13133
923.333	13171
923.442	13126
923.55	12947
923.659	12981
923.767	12996
923.876	12943
923.984	13000
924.092	12954
924.201	13046
924.309	12966
924.417	12901
924.525	12798
924.633	12909
924.741	13780
924.849	12692
924.956	12764
925.064	12688
925.172	12498
925.279	12498
925.387	12726
925.494	12570
925.602	12646
925.709	12684
925.816	12528
925.924	12597
926.031	12623
926.138	12547
926.245	12544
926.352	12513
926.459	12551
926.566	12582
926.673	12448
926.779	12460
926.886	12327
926.993	12270
927.099	12167
927.206	12106
927.312	12098
927.419	12220
927.525	12140
927.631	12273
927.737	12125
927.843	12102
927.95	11908
928.056	12030
928.162	12053
928.267	12095
928.373	12642
928.479	12148
928.585	11828
928.69	12007
928.796	11999
928.901	11901
929.007	11771
929.112	11843
929.218	11843
929.323	11722
929.428	11726
929.533	11843
929.638	11627
929.743	11718
929.848	11756
929.953	11680
930.058	11566
930.163	11463
930.267	11459
930.372	11543
930.477	11425
930.581	11642
930.685	11482
930.79	11376
930.894	11322
930.998	11345
931.103	11452
931.207	11056
931.311	11006
931.415	10999
931.519	10717
931.623	10771
