Data from test_V78500241_1186.txt Node
Date: Fri Mar 25 15:18:06 CST 2022
User: usil
Spectrometer: V785-0024
Trigger mode: 0
Integration Time (sec): 4.000000E-1
Scans to average: 1
Nonlinearity correction enabled: false
Boxcar width: 0
Storing dark spectrum: false
XAxis mode: Wavelengths
Number of Pixels in Spectrum: 1024
>>>>>Begin Spectral Data<<<<<
801.071	27812
801.214	27869
801.356	27477
801.499	27507
801.641	27298
801.783	27317
801.926	27424
802.068	27279
802.211	27199
802.353	27252
802.496	27055
802.638	27081
802.78	26940
802.923	26982
803.065	27001
803.208	27039
803.35	27062
803.492	27131
803.635	27283
803.777	27131
803.919	27211
804.061	27564
804.204	27245
804.346	27138
804.488	27077
804.63	27211
804.773	27032
804.915	27180
805.057	27355
805.199	27214
805.341	27386
805.483	27469
805.626	27233
805.768	27241
805.91	27336
806.052	27302
806.194	27192
806.336	27564
806.478	27279
806.62	27329
806.762	27473
806.904	27644
807.046	27857
807.188	27663
807.33	27759
807.472	27873
807.614	27523
807.756	27717
807.898	27724
808.04	27466
808.182	27534
808.324	27557
808.465	27542
808.607	27705
808.749	28036
808.891	27983
809.033	28173
809.174	27888
809.316	27850
809.458	28002
809.6	27800
809.741	28006
809.883	28063
810.025	28166
810.166	28109
810.308	28131
810.45	28147
810.591	28223
810.733	28063
810.875	27827
811.016	27819
811.158	27914
811.299	28006
811.441	28070
811.582	28101
811.724	27972
811.865	27835
812.007	27972
812.148	27953
812.29	28169
812.431	28124
812.573	28295
812.714	28352
812.855	28481
812.997	28626
813.138	28618
813.279	28641
813.421	28512
813.562	28394
813.703	28257
813.845	28291
813.986	27934
814.127	27804
814.268	27583
814.41	27671
814.551	27682
814.692	27701
814.833	27553
814.974	27656
815.115	27622
815.256	27633
815.397	27557
815.539	27614
815.68	27591
815.821	27393
815.962	27439
816.103	27405
816.244	27317
816.385	27348
816.526	27233
816.666	26975
816.807	26899
816.948	27017
817.089	27116
817.23	26944
817.371	26887
817.512	26960
817.653	26811
817.793	26849
817.934	27009
818.075	26914
818.216	27001
818.356	26853
818.497	26777
818.638	26800
818.778	26606
818.919	26731
819.06	26731
819.2	26731
819.341	26937
819.481	26975
819.622	27070
819.762	27340
819.903	27173
820.043	27207
820.184	27142
820.324	27028
820.465	27077
820.605	27249
820.746	26982
820.886	26853
821.026	27062
821.167	27150
821.307	27131
821.447	26982
821.588	27024
821.728	26617
821.868	26655
822.008	26446
822.149	26453
822.289	26393
822.429	26225
822.569	26111
822.709	26092
822.849	25959
822.99	25947
823.13	25894
823.27	25902
823.41	25772
823.55	25548
823.69	25837
823.83	25685
823.97	25799
824.11	25518
824.25	25567
824.389	25685
824.529	25613
824.669	25772
824.809	25750
824.949	25780
825.089	25727
825.228	25597
825.368	25518
825.508	25369
825.648	25396
825.787	25407
825.927	25556
826.067	25441
826.206	25544
826.346	25491
826.485	25483
826.625	25388
826.765	25563
826.904	25525
827.044	25358
827.183	25320
827.323	25213
827.462	25236
827.601	25099
827.741	25148
827.88	25160
828.02	25031
828.159	25190
828.298	25179
828.437	25209
828.577	25084
828.716	25327
828.855	25031
828.994	24932
829.134	24837
829.273	24856
829.412	24844
829.551	24848
829.69	24867
829.829	24913
829.968	24973
830.107	25034
830.246	24966
830.385	24844
830.524	24909
830.663	24768
830.802	24696
830.941	24414
831.08	24627
831.219	24608
831.357	24502
831.496	24730
831.635	24559
831.774	24437
831.913	24289
832.051	24410
832.19	24186
832.329	24239
832.467	24209
832.606	24258
832.744	24110
832.883	24285
833.022	24190
833.16	24216
833.299	24232
833.437	24258
833.576	24201
833.714	24228
833.852	24266
833.991	24315
834.129	24247
834.267	24346
834.406	24308
834.544	24319
834.682	24311
834.821	24213
834.959	24456
835.097	24285
835.235	24308
835.373	24235
835.511	24251
835.65	24144
835.788	24133
835.926	23977
836.064	23950
836.202	23836
836.34	24182
836.478	24121
836.615	24091
836.753	24072
836.891	24163
837.029	24110
837.167	24034
837.305	24087
837.443	23863
837.58	23889
837.718	24114
837.856	24087
837.993	23798
838.131	23897
838.269	23813
838.406	23771
838.544	23676
838.681	23703
838.819	23573
838.956	23326
839.094	23391
839.231	23596
839.369	23535
839.506	23707
839.643	23554
839.781	23497
839.918	23288
840.055	23497
840.193	23425
840.33	23239
840.467	23326
840.604	23387
840.742	23627
840.879	23311
841.016	23246
841.153	23162
841.29	23349
841.427	23254
841.564	23299
841.701	23341
841.838	23170
841.975	23242
842.112	23303
842.249	23140
842.385	23239
842.522	23288
842.659	23117
842.796	23102
842.933	23079
843.069	23052
843.206	23003
843.343	23067
843.479	23121
843.616	23147
843.752	22869
843.889	22881
844.025	23071
844.162	22805
844.298	22930
844.435	22858
844.571	22816
844.708	22961
844.844	23010
844.98	23022
845.117	22972
845.253	22774
845.389	22763
845.525	22717
845.661	22538
845.798	22573
845.934	22645
846.07	22523
846.206	22577
846.342	22706
846.478	22440
846.614	22367
846.75	22413
846.886	22249
847.022	22234
847.158	22402
847.294	22314
847.429	22432
847.565	22325
847.701	22538
847.837	22086
847.972	21964
848.108	22223
848.244	22109
848.379	21926
848.515	22025
848.65	21941
848.786	22010
848.921	22078
849.057	21983
849.192	22013
849.328	22025
849.463	21956
849.598	21972
849.734	21808
849.869	21781
850.004	21690
850.14	21656
850.275	21580
850.41	21545
850.545	21656
850.68	21648
850.815	21629
850.95	21709
851.085	21739
851.22	21785
851.355	21641
851.49	21686
851.625	21587
851.76	21641
851.895	21542
852.03	21644
852.165	21667
852.299	21701
852.434	21682
852.569	21671
852.703	21804
852.838	21629
852.973	21842
853.107	21819
853.242	21583
853.376	21443
853.511	21511
853.645	21405
853.78	21690
853.914	21435
854.048	21405
854.183	21424
854.317	21534
854.451	21682
854.585	21466
854.72	21534
854.854	21591
854.988	21420
855.122	21485
855.256	21291
855.39	21538
855.524	21523
855.658	21583
855.792	21564
855.926	21462
856.06	21583
856.194	21572
856.327	21553
856.461	21458
856.595	21374
856.729	21454
856.862	21705
856.996	21610
857.13	21641
857.263	21553
857.397	21667
857.53	21538
857.664	21652
857.797	21473
857.931	21622
858.064	21481
858.197	21637
858.331	21473
858.464	21504
858.597	21412
858.731	21321
858.864	21412
858.997	21488
859.13	21511
859.263	21450
859.396	21553
859.529	21538
859.662	21412
859.795	21412
859.928	21576
860.061	21625
860.194	21675
860.327	21564
860.46	21526
860.592	21576
860.725	21629
860.858	21660
860.99	21686
861.123	21363
861.256	21435
861.388	21534
861.521	22303
861.653	21386
861.786	21264
861.918	21351
862.05	21374
862.183	21469
862.315	21408
862.447	21443
862.58	21348
862.712	21081
862.844	21291
862.976	21336
863.108	21294
863.24	21648
863.372	21077
863.504	21260
863.636	21279
863.768	21135
863.9	21070
864.032	21066
864.164	21169
864.296	21192
864.428	21283
864.559	21260
864.691	21264
864.823	21222
864.954	21150
865.086	21180
865.217	21093
865.349	21138
865.48	20960
865.612	21089
865.743	21142
865.875	21192
866.006	21081
866.137	21146
866.269	21096
866.4	21058
866.531	21055
866.662	21108
866.793	20986
866.924	20975
867.055	21123
867.186	21135
867.317	20883
867.448	20906
867.579	21020
867.71	20842
867.841	21009
867.972	21085
868.103	20963
868.233	21001
868.364	21020
868.495	21195
868.625	21233
868.756	21351
868.886	21161
869.017	21287
869.147	21382
869.278	21374
869.408	21408
869.539	21275
869.669	21370
869.799	21389
869.929	21397
870.06	21332
870.19	21553
870.32	21511
870.45	21542
870.58	21717
870.71	21732
870.84	21823
870.97	21656
871.1	21682
871.23	21956
871.36	21793
871.489	21785
871.619	21854
871.749	21793
871.879	21823
872.008	21903
872.138	21865
872.267	21846
872.397	21625
872.526	21701
872.656	21774
872.785	21709
872.915	21960
873.044	21937
873.173	21892
873.303	21968
873.432	21850
873.561	21922
873.69	22074
873.819	21873
873.948	21934
874.077	21747
874.206	21793
874.335	21915
874.464	21953
874.593	22284
874.722	22017
874.851	22097
874.979	22090
875.108	22185
875.237	22128
875.365	21880
875.494	22029
875.623	22196
875.751	22017
875.88	22036
876.008	22223
876.136	22363
876.265	22386
876.393	22630
876.521	22603
876.65	22607
876.778	22550
876.906	22512
877.034	22421
877.162	22493
877.29	22451
877.418	22337
877.546	22459
877.674	22413
877.802	22462
877.93	22348
878.058	22459
878.185	22356
878.313	22500
878.441	22371
878.568	22299
878.696	22333
878.824	22443
878.951	22584
879.079	22664
879.206	22725
879.333	22641
879.461	22519
879.588	22622
879.715	22645
879.842	22778
879.97	22424
880.097	22360
880.224	22261
880.351	22363
880.478	22284
880.605	22249
880.732	22329
880.859	22398
880.986	22379
881.112	22291
881.239	22177
881.366	22063
881.493	21934
881.619	21823
881.746	21922
881.872	21835
881.999	21800
882.125	21766
882.252	21915
882.378	21850
882.505	21983
882.631	21743
882.757	21686
882.883	21656
883.01	21454
883.136	21545
883.262	21370
883.388	21450
883.514	21618
883.64	21538
883.766	21336
883.892	21412
884.018	21348
884.143	21519
884.269	21614
884.395	21192
884.52	21233
884.646	21184
884.772	21020
884.897	20982
885.023	21195
885.148	21321
885.274	21237
885.399	21272
885.524	21169
885.65	21351
885.775	21283
885.9	21226
886.025	21321
886.15	21256
886.275	21119
886.4	21051
886.525	21055
886.65	21112
886.775	21085
886.9	21302
887.025	21553
887.149	21123
887.274	21001
887.399	20872
887.523	21047
887.648	21001
887.773	20849
887.897	21005
888.021	21051
888.146	20838
888.27	20994
888.395	21135
888.519	20918
888.643	21081
888.767	21077
888.891	21017
889.015	20830
889.139	20952
889.263	20663
889.387	20891
889.511	21009
889.635	20880
889.759	20720
889.883	20640
890.006	20762
890.13	20842
890.254	20644
890.377	20617
890.501	20503
890.624	20442
890.748	20537
890.871	20465
890.995	20400
891.118	20252
891.241	20339
891.364	20438
891.488	20469
891.611	20317
891.734	20366
891.857	20362
891.98	20332
892.103	20290
892.226	20317
892.349	20423
892.471	20115
892.594	20282
892.717	20256
892.839	20138
892.962	20259
893.085	20309
893.207	20282
893.33	20134
893.452	20031
893.575	20221
893.697	20111
893.819	20343
893.941	20336
894.064	20358
894.186	20176
894.308	20092
894.43	20450
894.552	20362
894.674	20317
894.796	20058
894.918	20164
895.04	20172
895.161	20278
895.283	20221
895.405	20145
895.526	20157
895.648	20199
895.769	20275
895.891	20317
896.012	20343
896.134	20172
896.255	20278
896.376	20126
896.498	20199
896.619	20317
896.74	20221
896.861	20256
896.982	20419
897.103	20583
897.224	20434
897.345	20324
897.466	20358
897.587	20454
897.708	20625
897.828	20393
897.949	20400
898.07	20343
898.19	20450
898.311	20526
898.431	20370
898.552	20400
898.672	20484
898.792	20564
898.913	20431
899.033	20358
899.153	20206
899.273	20096
899.393	20195
899.513	20195
899.633	20138
899.753	20134
899.873	20103
899.993	20119
900.113	20046
900.232	20191
900.352	20054
900.472	19967
900.591	19967
900.711	20027
900.83	19811
900.95	20008
901.069	19947
901.189	19811
901.308	19597
901.427	19521
901.546	19529
901.665	19556
901.784	19537
901.904	19419
902.023	19259
902.141	19057
902.26	19027
902.379	19095
902.498	19065
902.617	19019
902.735	18973
902.854	18966
902.973	18897
903.091	18696
903.21	18738
903.328	18730
903.446	18616
903.565	18578
903.683	18559
903.801	18448
903.919	18525
904.038	18426
904.156	18334
904.274	18384
904.392	18262
904.51	18186
904.627	18296
904.745	18319
904.863	18213
904.981	18015
905.098	17996
905.216	17843
905.334	18095
905.451	18038
905.569	17961
905.686	18083
905.803	17832
905.921	17691
906.038	17840
906.155	17748
906.272	17619
906.389	17604
906.506	17490
906.623	17532
906.74	17535
906.857	17410
906.974	17345
907.091	17581
907.208	17592
907.324	17516
907.441	17387
907.557	17269
907.674	17273
907.79	17220
907.907	17197
908.023	17269
908.139	17277
908.256	17174
908.372	17174
908.488	17094
908.604	17010
908.72	16942
908.836	16873
908.952	16968
909.068	16930
909.184	17124
909.3	16854
909.415	16850
909.531	16911
909.647	16626
909.762	16702
909.878	16664
909.993	16801
910.108	16561
910.224	16592
910.339	16675
910.454	16379
910.57	16500
910.685	16329
910.8	16588
910.915	16599
911.03	16447
911.145	16344
911.259	16166
911.374	16188
911.489	16135
911.604	16051
911.718	16002
911.833	15953
911.947	15766
912.062	15774
912.176	15907
912.291	15975
912.405	15972
912.519	16120
912.633	16109
912.748	16032
912.862	15842
912.976	15789
913.09	15614
913.204	15846
913.318	15808
913.431	15972
913.545	15842
913.659	15854
913.772	15694
913.886	15610
914	15606
914.113	15587
914.226	15663
914.34	15591
914.453	15435
914.566	15614
914.68	15500
914.793	15462
914.906	15233
915.019	15161
915.132	15211
915.245	15169
915.358	15199
915.47	15150
915.583	15233
915.696	15146
915.809	15340
915.921	15336
916.034	15188
916.146	15047
916.259	15131
916.371	15074
916.483	15142
916.595	15097
916.708	15024
916.82	14990
916.932	14944
917.044	14910
917.156	14895
917.268	14819
917.38	14792
917.491	14899
917.603	14921
917.715	14880
917.826	14880
917.938	14708
918.049	14663
918.161	14788
918.272	14952
918.384	14910
918.495	14750
918.606	14552
918.717	14571
918.828	14651
918.939	14590
919.05	14518
919.161	14514
919.272	14450
919.383	14511
919.494	14613
919.604	14807
919.715	14560
919.826	14434
919.936	14503
920.047	14583
920.157	14598
920.267	14777
920.378	14511
920.488	14492
920.598	14655
920.708	14872
920.818	14644
920.928	14636
921.038	14872
921.148	14792
921.258	14594
921.368	14389
921.477	14256
921.587	14248
921.697	14168
921.806	14221
921.916	14153
922.025	13959
922.134	13970
922.244	13940
922.353	14005
922.462	13765
922.571	13738
922.68	13685
922.789	13476
922.898	13700
923.007	13468
923.116	13540
923.224	13548
923.333	13502
923.442	13438
923.55	13388
923.659	13415
923.767	13480
923.876	13396
923.984	13449
924.092	13350
924.201	13343
924.309	13400
924.417	13270
924.525	13232
924.633	13304
924.741	14031
924.849	12947
924.956	13099
925.064	13042
925.172	12939
925.279	12894
925.387	13110
925.494	12993
925.602	13114
925.709	13031
925.816	12878
925.924	12916
926.031	12985
926.138	13019
926.245	13027
926.352	12848
926.459	12920
926.566	13004
926.673	12859
926.779	12768
926.886	12798
926.993	12582
927.099	12559
927.206	12601
927.312	12551
927.419	12509
927.525	12551
927.631	12570
927.737	12429
927.843	12490
927.95	12338
928.056	12353
928.162	12315
928.267	12388
928.373	12875
928.479	12422
928.585	12144
928.69	12323
928.796	12350
928.901	12353
929.007	12159
929.112	12190
929.218	12152
929.323	12110
929.428	12140
929.533	12201
929.638	12030
929.743	12087
929.848	12144
929.953	12026
930.058	11901
930.163	11714
930.267	11843
930.372	11809
930.477	11722
930.581	11958
930.685	11779
930.79	11756
930.894	11703
930.998	11554
931.103	11805
931.207	11410
931.311	11341
931.415	11246
931.519	11140
931.623	11105
