Data from test_V78500241_766.txt Node
Date: Fri Mar 25 15:15:11 CST 2022
User: usil
Spectrometer: V785-0024
Trigger mode: 0
Integration Time (sec): 4.000000E-1
Scans to average: 1
Nonlinearity correction enabled: false
Boxcar width: 0
Storing dark spectrum: false
XAxis mode: Wavelengths
Number of Pixels in Spectrum: 1024
>>>>>Begin Spectral Data<<<<<
801.071	28097
801.214	27926
801.356	27808
801.499	27926
801.641	27663
801.783	27656
801.926	27717
802.068	27610
802.211	27511
802.353	27488
802.496	27367
802.638	27325
802.78	27138
802.923	27233
803.065	27169
803.208	27351
803.35	27420
803.492	27268
803.635	27534
803.777	27466
803.919	27367
804.061	27660
804.204	27572
804.346	27462
804.488	27302
804.63	27481
804.773	27488
804.915	27542
805.057	27435
805.199	27466
805.341	27431
805.483	27641
805.626	27671
805.768	27477
805.91	27671
806.052	27511
806.194	27481
806.336	27739
806.478	27644
806.62	27686
806.762	27846
806.904	27892
807.046	28010
807.188	28063
807.33	28082
807.472	28044
807.614	28074
807.756	28029
807.898	27934
808.04	27861
808.182	27838
808.324	27945
808.465	28017
808.607	28109
808.749	28219
808.891	28246
809.033	28481
809.174	28306
809.316	28272
809.458	28219
809.6	28310
809.741	28535
809.883	28428
810.025	28599
810.166	28599
810.308	28577
810.45	28596
810.591	28550
810.733	28428
810.875	28196
811.016	28200
811.158	28086
811.299	28363
811.441	28421
811.582	28470
811.724	28337
811.865	28120
812.007	28242
812.148	28272
812.29	28337
812.431	28519
812.573	28713
812.714	28736
812.855	28771
812.997	29018
813.138	29079
813.279	29018
813.421	28892
813.562	28839
813.703	28577
813.845	28519
813.986	28424
814.127	28166
814.268	27953
814.41	27941
814.551	28025
814.692	28207
814.833	27934
814.974	27956
815.115	28067
815.256	27911
815.397	27865
815.539	27922
815.68	27652
815.821	27694
815.962	27812
816.103	27819
816.244	27736
816.385	27705
816.526	27469
816.666	27435
816.807	27214
816.948	27192
817.089	27447
817.23	27370
817.371	27332
817.512	27332
817.653	27245
817.793	27138
817.934	27260
818.075	27241
818.216	27348
818.356	27222
818.497	27348
818.638	27081
818.778	27009
818.919	27138
819.06	27020
819.2	27260
819.341	27370
819.481	27272
819.622	27466
819.762	27576
819.903	27447
820.043	27386
820.184	27450
820.324	27306
820.465	27500
820.605	27378
820.746	27378
820.886	27363
821.026	27405
821.167	27336
821.307	27450
821.447	27363
821.588	27154
821.728	27074
821.868	26956
822.008	26811
822.149	26765
822.289	26674
822.429	26537
822.569	26530
822.709	26415
822.849	26263
822.99	26248
823.13	26218
823.27	26256
823.41	26084
823.55	25959
823.69	26054
823.83	26043
823.97	26031
824.11	25894
824.25	25807
824.389	25932
824.529	25989
824.669	25917
824.809	26084
824.949	26024
825.089	26081
825.228	25871
825.368	25852
825.508	25811
825.648	25799
825.787	25826
825.927	25955
826.067	25757
826.206	25784
826.346	25871
826.485	25765
826.625	25643
826.765	25868
826.904	25795
827.044	25662
827.183	25563
827.323	25430
827.462	25620
827.601	25506
827.741	25449
827.88	25434
828.02	25324
828.159	25613
828.298	25594
828.437	25571
828.577	25533
828.716	25658
828.855	25293
828.994	25331
829.134	25232
829.273	25354
829.412	25168
829.551	25175
829.69	25202
829.829	25327
829.968	25255
830.107	25251
830.246	25198
830.385	25084
830.524	25228
830.663	25015
830.802	24909
830.941	24791
831.08	24806
831.219	24715
831.357	24932
831.496	25088
831.635	24985
831.774	24757
831.913	24776
832.051	24677
832.19	24585
832.329	24658
832.467	24563
832.606	24353
832.744	24445
832.883	24547
833.022	24464
833.16	24486
833.299	24677
833.437	24536
833.576	24585
833.714	24608
833.852	24620
833.991	24688
834.129	24757
834.267	24570
834.406	24585
834.544	24608
834.682	24551
834.821	24566
834.959	24669
835.097	24505
835.235	24536
835.373	24536
835.511	24460
835.65	24391
835.788	24372
835.926	24342
836.064	24171
836.202	24194
836.34	24464
836.478	24380
836.615	24300
836.753	24483
836.891	24414
837.029	24399
837.167	24300
837.305	24304
837.443	24148
837.58	24216
837.718	24330
837.856	24239
837.993	24232
838.131	24178
838.269	23988
838.406	24076
838.544	24136
838.681	23836
838.819	23847
838.956	23661
839.094	23653
839.231	23649
839.369	23977
839.506	24159
839.643	23897
839.781	23600
839.918	23737
840.055	23726
840.193	23737
840.33	23558
840.467	23604
840.604	23691
840.742	23813
840.879	23463
841.016	23577
841.153	23444
841.29	23687
841.427	23585
841.564	23649
841.701	23554
841.838	23592
841.975	23596
842.112	23512
842.249	23395
842.385	23383
842.522	23585
842.659	23433
842.796	23273
842.933	23406
843.069	23326
843.206	23345
843.343	23379
843.479	23406
843.616	23349
843.752	23155
843.889	23189
844.025	23318
844.162	23102
844.298	23128
844.435	23197
844.571	23060
844.708	23109
844.844	23212
844.98	23345
845.117	23246
845.253	23022
845.389	22976
845.525	23037
845.661	22904
845.798	22900
845.934	22915
846.07	22786
846.206	22923
846.342	22881
846.478	22820
846.614	22649
846.75	22618
846.886	22596
847.022	22675
847.158	22622
847.294	22538
847.429	22497
847.565	22607
847.701	22725
847.837	22413
847.972	22188
848.108	22447
848.244	22390
848.379	22287
848.515	22188
848.65	22158
848.786	22219
848.921	22238
849.057	22246
849.192	22166
849.328	22329
849.463	22284
849.598	22116
849.734	21915
849.869	22010
850.004	22051
850.14	21911
850.275	21857
850.41	21846
850.545	21941
850.68	21918
850.815	21956
850.95	21762
851.085	22238
851.22	21930
851.355	21960
851.49	21880
851.625	21903
851.76	21838
851.895	21972
852.03	21785
852.165	21903
852.299	21895
852.434	22036
852.569	21941
852.703	21778
852.838	21968
852.973	22131
853.107	22169
853.242	21819
853.376	21766
853.511	21587
853.645	21667
853.78	21865
853.914	21736
854.048	21762
854.183	21705
854.317	21717
854.451	21903
854.585	21941
854.72	21823
854.854	21812
854.988	21618
855.122	21637
855.256	21660
855.39	21728
855.524	21819
855.658	21793
855.792	21797
855.926	21736
856.06	21739
856.194	21838
856.327	21755
856.461	21663
856.595	21747
856.729	21743
856.862	21747
856.996	21831
857.13	21618
857.263	21888
857.397	21907
857.53	21698
857.664	21854
857.797	21785
857.931	21869
858.064	21762
858.197	21842
858.331	21785
858.464	21690
858.597	21686
858.731	21576
858.864	21713
858.997	21660
859.13	21682
859.263	21747
859.396	21789
859.529	21641
859.662	21705
859.795	21755
859.928	21762
860.061	21945
860.194	21983
860.327	21857
860.46	21812
860.592	21835
860.725	21873
860.858	21926
860.99	21728
861.123	21652
861.256	21675
861.388	21701
861.521	22481
861.653	21679
861.786	21557
861.918	21496
862.05	21690
862.183	21679
862.315	21770
862.447	21682
862.58	21774
862.712	21492
862.844	21450
862.976	21488
863.108	21564
863.24	21884
863.372	21443
863.504	21462
863.636	21515
863.768	21485
863.9	21408
864.032	21424
864.164	21332
864.296	21477
864.428	21545
864.559	21523
864.691	21583
864.823	21416
864.954	21355
865.086	21431
865.217	21340
865.349	21329
865.48	21428
865.612	21283
865.743	21408
865.875	21329
866.006	21363
866.137	21435
866.269	21332
866.4	21245
866.531	21275
866.662	21264
866.793	21214
866.924	21359
867.055	21283
867.186	21302
867.317	21176
867.448	21142
867.579	21169
867.71	21112
867.841	21199
867.972	21272
868.103	21237
868.233	21195
868.364	21203
868.495	21313
868.625	21447
868.756	21641
868.886	21481
869.017	21580
869.147	21606
869.278	21587
869.408	21519
869.539	21507
869.669	21580
869.799	21739
869.929	21606
870.06	21671
870.19	21979
870.32	21850
870.45	21922
870.58	21869
870.71	22002
870.84	22029
870.97	21960
871.1	21899
871.23	22036
871.36	22067
871.489	22032
871.619	22029
871.749	22074
871.879	22169
872.008	22375
872.138	22097
872.267	22158
872.397	22013
872.526	21953
872.656	21888
872.785	21937
872.915	22048
873.044	22219
873.173	22120
873.303	22268
873.432	22158
873.561	22219
873.69	22192
873.819	22063
873.948	22097
874.077	22150
874.206	22109
874.335	22131
874.464	22265
874.593	22367
874.722	22295
874.851	22379
874.979	22375
875.108	22379
875.237	22363
875.365	22265
875.494	22303
875.623	22504
875.751	22246
875.88	22360
876.008	22455
876.136	22519
876.265	22748
876.393	22881
876.521	22786
876.65	22763
876.778	22713
876.906	22668
877.034	22603
877.162	22755
877.29	22702
877.418	22752
877.546	22672
877.674	22748
877.802	22725
877.93	22607
878.058	22733
878.185	22535
878.313	22531
878.441	22660
878.568	22428
878.696	22626
878.824	22847
878.951	22664
879.079	22862
879.206	22919
879.333	22782
879.461	22565
879.588	22790
879.715	22790
879.842	22908
879.97	22755
880.097	22531
880.224	22451
880.351	22546
880.478	22569
880.605	22413
880.732	22478
880.859	22748
880.986	22519
881.112	22466
881.239	22390
881.366	22280
881.493	22169
881.619	22188
881.746	22150
881.872	21991
881.999	22059
882.125	22051
882.252	22154
882.378	21953
882.505	22166
882.631	21960
882.757	21918
882.883	21823
883.01	21679
883.136	21888
883.262	21618
883.388	21580
883.514	21835
883.64	21861
883.766	21705
883.892	21564
884.018	21511
884.143	21732
884.269	21759
884.395	21553
884.52	21344
884.646	21458
884.772	21435
884.897	21351
885.023	21412
885.148	21443
885.274	21545
885.399	21542
885.524	21515
885.65	21424
885.775	21424
885.9	21378
886.025	21469
886.15	21568
886.275	21340
886.4	21367
886.525	21435
886.65	21340
886.775	21393
886.9	21485
887.025	21542
887.149	21435
887.274	21211
887.399	21226
887.523	21047
887.648	21039
887.773	20998
887.897	21245
888.021	21203
888.146	21017
888.27	21226
888.395	21264
888.519	21184
888.643	21165
888.767	21173
888.891	21039
889.015	21013
889.139	20986
889.263	21047
889.387	21093
889.511	21157
889.635	21096
889.759	20933
889.883	20975
890.006	21051
890.13	21077
890.254	20887
890.377	20902
890.501	20842
890.624	20636
890.748	20788
890.871	20583
890.995	20533
891.118	20473
891.241	20613
891.364	20526
891.488	20629
891.611	20625
891.734	20499
891.857	20629
891.98	20579
892.103	20522
892.226	20594
892.349	20457
892.471	20294
892.594	20442
892.717	20556
892.839	20393
892.962	20461
893.085	20434
893.207	20415
893.33	20301
893.452	20202
893.575	20450
893.697	20381
893.819	20507
893.941	20537
894.064	20533
894.186	20332
894.308	20385
894.43	20484
894.552	20560
894.674	20465
894.796	20347
894.918	20400
895.04	20404
895.161	20549
895.283	20339
895.405	20450
895.526	20499
895.648	20305
895.769	20404
895.891	20442
896.012	20533
896.134	20461
896.255	20347
896.376	20457
896.498	20549
896.619	20526
896.74	20450
896.861	20423
896.982	20693
897.103	20804
897.224	20678
897.345	20651
897.466	20556
897.587	20712
897.708	20750
897.828	20739
897.949	20549
898.07	20396
898.19	20636
898.311	20693
898.431	20537
898.552	20473
898.672	20758
898.792	20750
898.913	20754
899.033	20404
899.153	20412
899.273	20389
899.393	20347
899.513	20374
899.633	20339
899.753	20385
899.873	20309
899.993	20377
900.113	20328
900.232	20377
900.352	20286
900.472	20168
900.591	19982
900.711	20290
900.83	20164
900.95	20195
901.069	20244
901.189	20122
901.308	19871
901.427	19670
901.546	19772
901.665	19742
901.784	19655
901.904	19662
902.023	19590
902.141	19289
902.26	19240
902.379	19354
902.498	19369
902.617	19171
902.735	19156
902.854	19213
902.973	19164
903.091	18970
903.21	18810
903.328	18837
903.446	18924
903.565	18741
903.683	18783
903.801	18601
903.919	18604
904.038	18642
904.156	18441
904.274	18544
904.392	18388
904.51	18452
904.627	18460
904.745	18570
904.863	18506
904.981	18304
905.098	18186
905.216	18144
905.334	18201
905.451	18251
905.569	18125
905.686	18194
905.803	18178
905.921	17977
906.038	18011
906.155	17954
906.272	17714
906.389	17790
906.506	17710
906.623	17718
906.74	17657
906.857	17642
906.974	17630
907.091	17623
907.208	17726
907.324	17745
907.441	17490
907.557	17349
907.674	17376
907.79	17356
907.907	17376
908.023	17417
908.139	17406
908.256	17410
908.372	17391
908.488	17246
908.604	17147
908.72	17041
908.836	17102
908.952	17060
909.068	17121
909.184	17235
909.3	17140
909.415	17102
909.531	17033
909.647	16934
909.762	16873
909.878	16763
909.993	16873
910.108	16869
910.224	16782
910.339	16839
910.454	16622
910.57	16668
910.685	16596
910.8	16816
910.915	16736
911.03	16622
911.145	16478
911.259	16409
911.374	16459
911.489	16287
911.604	16215
911.718	16204
911.833	16112
911.947	16021
912.062	16002
912.176	16124
912.291	16017
912.405	16112
912.519	16291
912.633	16356
912.748	16162
912.862	16086
912.976	16082
913.09	15911
913.204	15907
913.318	15911
913.431	15930
913.545	16036
913.659	15991
913.772	15846
913.886	15785
914	15743
914.113	15827
914.226	15808
914.34	15793
914.453	15663
914.566	15934
914.68	15610
914.793	15610
914.906	15450
915.019	15405
915.132	15260
915.245	15298
915.358	15374
915.47	15325
915.583	15313
915.696	15329
915.809	15504
915.921	15542
916.034	15370
916.146	15146
916.259	15233
916.371	15336
916.483	15424
916.595	15203
916.708	15199
916.82	15203
916.932	15131
917.044	15211
917.156	15070
917.268	15005
917.38	15009
917.491	14982
917.603	15051
917.715	15001
917.826	15036
917.938	14937
918.049	14815
918.161	14937
918.272	15017
918.384	15047
918.495	14891
918.606	14823
918.717	14617
918.828	14743
918.939	14758
919.05	14610
919.161	14640
919.272	14514
919.383	14670
919.494	14804
919.604	14861
919.715	14716
919.826	14674
919.936	14705
920.047	14777
920.157	14731
920.267	14933
920.378	14697
920.488	14739
920.598	14880
920.708	15017
920.818	14800
920.928	14883
921.038	15066
921.148	14952
921.258	14701
921.368	14552
921.477	14488
921.587	14362
921.697	14252
921.806	14438
921.916	14324
922.025	14195
922.134	14012
922.244	14081
922.353	14050
922.462	13928
922.571	13852
922.68	13681
922.789	13704
922.898	13769
923.007	13624
923.116	13776
923.224	13708
923.333	13727
923.442	13518
923.55	13533
923.659	13571
923.767	13601
923.876	13480
923.984	13563
924.092	13460
924.201	13476
924.309	13430
924.417	13381
924.525	13335
924.633	13381
924.741	14145
924.849	13221
924.956	13350
925.064	13198
925.172	13103
925.279	13198
925.387	13118
925.494	13050
925.602	13297
925.709	13076
925.816	12962
925.924	13164
926.031	13118
926.138	13122
926.245	13110
926.352	12958
926.459	13015
926.566	13107
926.673	13015
926.779	12901
926.886	12825
926.993	12730
927.099	12692
927.206	12608
927.312	12639
927.419	12791
927.525	12662
927.631	12719
927.737	12589
927.843	12547
927.95	12407
928.056	12593
928.162	12498
928.267	12623
928.373	13141
928.479	12639
928.585	12353
928.69	12460
928.796	12536
928.901	12426
929.007	12247
929.112	12426
929.218	12346
929.323	12224
929.428	12300
929.533	12395
929.638	12182
929.743	12205
929.848	12216
929.953	12220
930.058	12098
930.163	11988
930.267	12011
930.372	12041
930.477	11927
930.581	12167
930.685	11984
930.79	11794
930.894	11863
930.998	11851
931.103	11904
931.207	11512
931.311	11493
931.415	11440
931.519	11239
931.623	11174
