Data from test_V78500241_1626.txt Node
Date: Fri Mar 25 15:21:10 CST 2022
User: usil
Spectrometer: V785-0024
Trigger mode: 0
Integration Time (sec): 4.000000E-1
Scans to average: 1
Nonlinearity correction enabled: false
Boxcar width: 0
Storing dark spectrum: false
XAxis mode: Wavelengths
Number of Pixels in Spectrum: 1024
>>>>>Begin Spectral Data<<<<<
801.071	27991
801.214	27884
801.356	27686
801.499	27519
801.641	27507
801.783	27454
801.926	27534
802.068	27580
802.211	27443
802.353	27378
802.496	27173
802.638	27222
802.78	27154
802.923	27100
803.065	26982
803.208	26956
803.35	27123
803.492	27214
803.635	27336
803.777	27272
803.919	27344
804.061	27713
804.204	27283
804.346	27367
804.488	27222
804.63	27230
804.773	27325
804.915	27298
805.057	27424
805.199	27195
805.341	27340
805.483	27580
805.626	27389
805.768	27351
805.91	27424
806.052	27420
806.194	27245
806.336	27538
806.478	27504
806.62	27386
806.762	27545
806.904	27804
807.046	27869
807.188	27914
807.33	27972
807.472	27941
807.614	27819
807.756	27831
807.898	27778
808.04	27622
808.182	27648
808.324	27739
808.465	27888
808.607	28006
808.749	28143
808.891	28192
809.033	28188
809.174	28215
809.316	27964
809.458	28063
809.6	28067
809.741	28211
809.883	28223
810.025	28325
810.166	28417
810.308	28226
810.45	28375
810.591	28344
810.733	28223
810.875	28032
811.016	27994
811.158	27911
811.299	28086
811.441	28181
811.582	28230
811.724	28143
811.865	28067
812.007	28021
812.148	27983
812.29	28234
812.431	28310
812.573	28421
812.714	28523
812.855	28672
812.997	28694
813.138	28793
813.279	28771
813.421	28664
813.562	28485
813.703	28538
813.845	28276
813.986	28070
814.127	27873
814.268	27941
814.41	27911
814.551	27717
814.692	27816
814.833	27675
814.974	27778
815.115	27827
815.256	27572
815.397	27720
815.539	27720
815.68	27473
815.821	27515
815.962	27603
816.103	27549
816.244	27370
816.385	27397
816.526	27306
816.666	27142
816.807	27032
816.948	27066
817.089	27211
817.23	26975
817.371	27089
817.512	27036
817.653	26986
817.793	27074
817.934	27104
818.075	27017
818.216	27005
818.356	27009
818.497	26979
818.638	26845
818.778	26815
818.919	26823
819.06	26952
819.2	26899
819.341	27009
819.481	27127
819.622	27116
819.762	27485
819.903	27386
820.043	27241
820.184	27199
820.324	27154
820.465	27332
820.605	27256
820.746	27119
820.886	27047
821.026	27135
821.167	27009
821.307	27146
821.447	26979
821.588	27131
821.728	26845
821.868	26590
822.008	26495
822.149	26594
822.289	26556
822.429	26221
822.569	26282
822.709	26286
822.849	26050
822.99	26035
823.13	26012
823.27	25982
823.41	25875
823.55	25719
823.69	25879
823.83	25830
823.97	25799
824.11	25632
824.25	25578
824.389	25685
824.529	25868
824.669	25643
824.809	25845
824.949	25791
825.089	25894
825.228	25643
825.368	25582
825.508	25662
825.648	25518
825.787	25632
825.927	25616
826.067	25510
826.206	25464
826.346	25734
826.485	25605
826.625	25674
826.765	25590
826.904	25556
827.044	25464
827.183	25396
827.323	25160
827.462	25282
827.601	25339
827.741	25384
827.88	25282
828.02	25259
828.159	25118
828.298	25160
828.437	25312
828.577	25126
828.716	25354
828.855	25293
828.994	25038
829.134	24897
829.273	25004
829.412	24886
829.551	24989
829.69	24951
829.829	25152
829.968	25091
830.107	25027
830.246	25008
830.385	24909
830.524	24890
830.663	24757
830.802	24681
830.941	24635
831.08	24604
831.219	24639
831.357	24875
831.496	24722
831.635	24593
831.774	24639
831.913	24486
832.051	24311
832.19	24456
832.329	24391
832.467	24258
832.606	24304
832.744	24197
832.883	24178
833.022	24243
833.16	24289
833.299	24353
833.437	24342
833.576	24361
833.714	24441
833.852	24342
833.991	24456
834.129	24300
834.267	24483
834.406	24395
834.544	24380
834.682	24357
834.821	24247
834.959	24483
835.097	24426
835.235	24395
835.373	24342
835.511	24258
835.65	24148
835.788	24243
835.926	24121
836.064	23980
836.202	23954
836.34	24079
836.478	24292
836.615	24251
836.753	24247
836.891	24300
837.029	24148
837.167	24152
837.305	24083
837.443	24034
837.58	23980
837.718	24106
837.856	24022
837.993	23988
838.131	23950
838.269	23939
838.406	23847
838.544	23745
838.681	23729
838.819	23528
838.956	23471
839.094	23516
839.231	23543
839.369	23623
839.506	23931
839.643	23775
839.781	23516
839.918	23379
840.055	23482
840.193	23505
840.33	23421
840.467	23501
840.604	23410
840.742	23699
840.879	23284
841.016	23364
841.153	23178
841.29	23349
841.427	23395
841.564	23528
841.701	23395
841.838	23360
841.975	23277
842.112	23223
842.249	23204
842.385	23197
842.522	23322
842.659	23444
842.796	23162
842.933	23197
843.069	23075
843.206	23044
843.343	23124
843.479	23079
843.616	23170
843.752	22984
843.889	23041
844.025	23067
844.162	22942
844.298	23041
844.435	22980
844.571	22942
844.708	22908
844.844	23094
844.98	23056
845.117	22991
845.253	22862
845.389	22862
845.525	22786
845.661	22759
845.798	22717
845.934	22592
846.07	22561
846.206	22713
846.342	22854
846.478	22588
846.614	22451
846.75	22284
846.886	22398
847.022	22535
847.158	22424
847.294	22424
847.429	22322
847.565	22356
847.701	22569
847.837	22166
847.972	22093
848.108	22215
848.244	22200
848.379	22059
848.515	22002
848.65	21975
848.786	21991
848.921	22135
849.057	22055
849.192	22109
849.328	21857
849.463	21911
849.598	21876
849.734	21857
849.869	21770
850.004	21774
850.14	21903
850.275	21804
850.41	21667
850.545	21759
850.68	21774
850.815	21774
850.95	21789
851.085	21865
851.22	21953
851.355	21739
851.49	21762
851.625	21739
851.76	21816
851.895	21660
852.03	21614
852.165	21789
852.299	21717
852.434	21793
852.569	21812
852.703	21736
852.838	21835
852.973	21717
853.107	21895
853.242	21652
853.376	21534
853.511	21511
853.645	21477
853.78	21671
853.914	21557
854.048	21481
854.183	21549
854.317	21504
854.451	21717
854.585	21682
854.72	21534
854.854	21637
854.988	21401
855.122	21583
855.256	21348
855.39	21519
855.524	21622
855.658	21564
855.792	21515
855.926	21447
856.06	21466
856.194	21682
856.327	21466
856.461	21564
856.595	21473
856.729	21580
856.862	21641
856.996	21557
857.13	21812
857.263	21622
857.397	21648
857.53	21572
857.664	21488
857.797	21686
857.931	21637
858.064	21641
858.197	21751
858.331	21515
858.464	21462
858.597	21477
858.731	21606
858.864	21485
858.997	21553
859.13	21587
859.263	21682
859.396	21622
859.529	21477
859.662	21492
859.795	21389
859.928	21614
860.061	21644
860.194	21762
860.327	21652
860.46	21530
860.592	21747
860.725	21641
860.858	21618
860.99	21701
861.123	21378
861.256	21648
861.388	21568
861.521	22291
861.653	21504
861.786	21359
861.918	21477
862.05	21397
862.183	21363
862.315	21428
862.447	21583
862.58	21572
862.712	21336
862.844	21317
862.976	21382
863.108	21302
863.24	21637
863.372	21226
863.504	21211
863.636	21336
863.768	21249
863.9	21264
864.032	21374
864.164	21214
864.296	21340
864.428	21382
864.559	21237
864.691	21416
864.823	21260
864.954	21207
865.086	21313
865.217	21135
865.349	21116
865.48	21188
865.612	21180
865.743	21169
865.875	21264
866.006	21055
866.137	21108
866.269	21138
866.4	21108
866.531	21100
866.662	20990
866.793	21180
866.924	21089
867.055	21112
867.186	21093
867.317	20971
867.448	20982
867.579	21043
867.71	21024
867.841	20979
867.972	21142
868.103	21066
868.233	21142
868.364	21203
868.495	21093
868.625	21412
868.756	21401
868.886	21283
869.017	21272
869.147	21408
869.278	21428
869.408	21374
869.539	21351
869.669	21386
869.799	21310
869.929	21431
870.06	21412
870.19	21606
870.32	21583
870.45	21641
870.58	21785
870.71	21713
870.84	21804
870.97	21682
871.1	21698
871.23	21895
871.36	22010
871.489	21793
871.619	21850
871.749	21930
871.879	21915
872.008	22048
872.138	21926
872.267	21987
872.397	21835
872.526	21759
872.656	21644
872.785	21759
872.915	21964
873.044	21991
873.173	21934
873.303	21968
873.432	22021
873.561	22116
873.69	21895
873.819	21793
873.948	21945
874.077	21964
874.206	21808
874.335	21956
874.464	22017
874.593	22135
874.722	22055
874.851	22177
874.979	22154
875.108	22196
875.237	22055
875.365	22032
875.494	22109
875.623	22230
875.751	22139
875.88	22276
876.008	22268
876.136	22337
876.265	22504
876.393	22622
876.521	22577
876.65	22577
876.778	22626
876.906	22436
877.034	22500
877.162	22432
877.29	22375
877.418	22675
877.546	22546
877.674	22599
877.802	22523
877.93	22527
878.058	22382
878.185	22386
878.313	22451
878.441	22432
878.568	22421
878.696	22386
878.824	22432
878.951	22599
879.079	22580
879.206	22820
879.333	22565
879.461	22516
879.588	22584
879.715	22599
879.842	22790
879.97	22485
880.097	22360
880.224	22382
880.351	22341
880.478	22306
880.605	22253
880.732	22181
880.859	22519
880.986	22337
881.112	22344
881.239	22188
881.366	22086
881.493	21888
881.619	21884
881.746	21884
881.872	21968
881.999	21873
882.125	21812
882.252	21926
882.378	21857
882.505	21915
882.631	21690
882.757	21580
882.883	21671
883.01	21603
883.136	21443
883.262	21561
883.388	21412
883.514	21701
883.64	21781
883.766	21496
883.892	21306
884.018	21462
884.143	21587
884.269	21644
884.395	21397
884.52	21272
884.646	21199
884.772	21184
884.897	21100
885.023	21275
885.148	21321
885.274	21291
885.399	21332
885.524	21264
885.65	21249
885.775	21237
885.9	21291
886.025	21405
886.15	21142
886.275	21211
886.4	21135
886.525	21310
886.65	21184
886.775	20998
886.9	21321
887.025	21378
887.149	21188
887.274	21108
887.399	20944
887.523	21028
887.648	21005
887.773	20857
887.897	20956
888.021	21058
888.146	20880
888.27	21055
888.395	21173
888.519	21005
888.643	20929
888.767	21066
888.891	20956
889.015	20693
889.139	20838
889.263	20724
889.387	20876
889.511	20963
889.635	20868
889.759	20785
889.883	20758
890.006	20781
890.13	20880
890.254	20667
890.377	20705
890.501	20556
890.624	20545
890.748	20533
890.871	20419
890.995	20366
891.118	20214
891.241	20396
891.364	20419
891.488	20503
891.611	20336
891.734	20347
891.857	20404
891.98	20404
892.103	20278
892.226	20282
892.349	20263
892.471	20069
892.594	20191
892.717	20187
892.839	20187
892.962	20244
893.085	20298
893.207	20305
893.33	20111
893.452	20126
893.575	20286
893.697	20176
893.819	20377
893.941	20358
894.064	20377
894.186	20210
894.308	20237
894.43	20221
894.552	20404
894.674	20374
894.796	20092
894.918	20229
895.04	20218
895.161	20206
895.283	20164
895.405	20237
895.526	20206
895.648	20202
895.769	20271
895.891	20233
896.012	20355
896.134	20214
896.255	20187
896.376	20210
896.498	20183
896.619	20317
896.74	20301
896.861	20290
896.982	20689
897.103	20724
897.224	20579
897.345	20545
897.466	20343
897.587	20492
897.708	20636
897.828	20377
897.949	20377
898.07	20214
898.19	20317
898.311	20560
898.431	20423
898.552	20423
898.672	20469
898.792	20613
898.913	20450
899.033	20366
899.153	20282
899.273	20225
899.393	20221
899.513	20210
899.633	20145
899.753	20145
899.873	20046
899.993	20153
900.113	20149
900.232	20161
900.352	20058
900.472	20122
900.591	19989
900.711	20031
900.83	19974
900.95	19967
901.069	20039
901.189	19947
901.308	19613
901.427	19582
901.546	19613
901.665	19540
901.784	19658
901.904	19388
902.023	19324
902.141	19282
902.26	19156
902.379	19266
902.498	19133
902.617	18981
902.735	19160
902.854	19103
902.973	19008
903.091	18715
903.21	18734
903.328	18741
903.446	18639
903.565	18612
903.683	18540
903.801	18460
903.919	18410
904.038	18403
904.156	18426
904.274	18399
904.392	18353
904.51	18201
904.627	18281
904.745	18365
904.863	18277
904.981	18045
905.098	17931
905.216	17912
905.334	17969
905.451	17988
905.569	17958
905.686	17893
905.803	17958
905.921	17798
906.038	17855
906.155	17927
906.272	17653
906.389	17718
906.506	17665
906.623	17547
906.74	17592
906.857	17398
906.974	17429
907.091	17592
907.208	17718
907.324	17528
907.441	17429
907.557	17299
907.674	17117
907.79	17197
907.907	17189
908.023	17273
908.139	17326
908.256	17235
908.372	17128
908.488	17086
908.604	16930
908.72	16911
908.836	16911
908.952	16873
909.068	16938
909.184	16972
909.3	16927
909.415	16972
909.531	16847
909.647	16653
909.762	16687
909.878	16679
909.993	16649
910.108	16611
910.224	16672
910.339	16637
910.454	16440
910.57	16512
910.685	16310
910.8	16691
910.915	16649
911.03	16360
911.145	16303
911.259	16291
911.374	16192
911.489	16154
911.604	16109
911.718	15987
911.833	15956
911.947	15884
912.062	15869
912.176	16013
912.291	15937
912.405	15987
912.519	16162
912.633	16185
912.748	15907
912.862	15911
912.976	15812
913.09	15682
913.204	15762
913.318	15880
913.431	15937
913.545	15884
913.659	15907
913.772	15648
913.886	15656
914	15614
914.113	15785
914.226	15717
914.34	15561
914.453	15500
914.566	15732
914.68	15435
914.793	15492
914.906	15264
915.019	15184
915.132	15135
915.245	15180
915.358	15260
915.47	15218
915.583	15207
915.696	15272
915.809	15306
915.921	15382
916.034	15108
916.146	15089
916.259	15028
916.371	15226
916.483	15089
916.595	15024
916.708	15017
916.82	15135
916.932	14941
917.044	14982
917.156	14941
917.268	14838
917.38	14956
917.491	14819
917.603	14849
917.715	14925
917.826	14918
917.938	14716
918.049	14632
918.161	14739
918.272	15020
918.384	14921
918.495	14788
918.606	14644
918.717	14602
918.828	14552
918.939	14640
919.05	14564
919.161	14522
919.272	14400
919.383	14537
919.494	14663
919.604	14807
919.715	14636
919.826	14438
919.936	14556
920.047	14625
920.157	14556
920.267	14750
920.378	14583
920.488	14571
920.598	14811
920.708	14952
920.818	14785
920.928	14762
921.038	14853
921.148	14834
921.258	14522
921.368	14358
921.477	14381
921.587	14271
921.697	14157
921.806	14324
921.916	14187
922.025	13944
922.134	13989
922.244	14012
922.353	14054
922.462	13871
922.571	13776
922.68	13597
922.789	13624
922.898	13689
923.007	13506
923.116	13715
923.224	13548
923.333	13510
923.442	13441
923.55	13502
923.659	13441
923.767	13499
923.876	13422
923.984	13502
924.092	13240
924.201	13400
924.309	13327
924.417	13381
924.525	13240
924.633	13217
924.741	14210
924.849	13038
924.956	13164
925.064	13057
925.172	12970
925.279	13027
925.387	13004
925.494	13019
925.602	13137
925.709	13008
925.816	12787
925.924	12989
926.031	12966
926.138	13027
926.245	12981
926.352	12821
926.459	12913
926.566	13000
926.673	12764
926.779	12760
926.886	12741
926.993	12612
927.099	12673
927.206	12589
927.312	12532
927.419	12589
927.525	12601
927.631	12566
927.737	12460
927.843	12479
927.95	12395
928.056	12403
928.162	12353
928.267	12490
928.373	13072
928.479	12486
928.585	12228
928.69	12346
928.796	12433
928.901	12323
929.007	12197
929.112	12220
929.218	12129
929.323	12136
929.428	12121
929.533	12178
929.638	12049
929.743	12102
929.848	12136
929.953	11988
930.058	11973
930.163	11783
930.267	11859
930.372	11996
930.477	11771
930.581	12068
930.685	11859
930.79	11737
930.894	11680
930.998	11684
931.103	11824
931.207	11463
931.311	11433
931.415	11280
931.519	11102
931.623	11102
