Data from test_V78500241_2003.txt Node
Date: Fri Mar 25 15:23:48 CST 2022
User: usil
Spectrometer: V785-0024
Trigger mode: 0
Integration Time (sec): 4.000000E-1
Scans to average: 1
Nonlinearity correction enabled: false
Boxcar width: 0
Storing dark spectrum: false
XAxis mode: Wavelengths
Number of Pixels in Spectrum: 1024
>>>>>Begin Spectral Data<<<<<
801.071	27690
801.214	27458
801.356	27359
801.499	27374
801.641	27214
801.783	27142
801.926	27332
802.068	27176
802.211	27077
802.353	26887
802.496	26910
802.638	26853
802.78	26754
802.923	26842
803.065	26826
803.208	26648
803.35	26864
803.492	27066
803.635	27150
803.777	26986
803.919	27108
804.061	27233
804.204	27116
804.346	26842
804.488	26914
804.63	27108
804.773	26960
804.915	27043
805.057	27039
805.199	26929
805.341	27066
805.483	27036
805.626	27070
805.768	27017
805.91	27237
806.052	27138
806.194	27028
806.336	27256
806.478	27176
806.62	27005
806.762	27329
806.904	27313
807.046	27622
807.188	27618
807.33	27603
807.472	27629
807.614	27557
807.756	27545
807.898	27367
808.04	27302
808.182	27355
808.324	27504
808.465	27511
808.607	27511
808.749	27778
808.891	27755
809.033	27953
809.174	27766
809.316	27717
809.458	27903
809.6	27663
809.741	27907
809.883	27953
810.025	27956
810.166	28013
810.308	28082
810.45	27838
810.591	27953
810.733	27747
810.875	27850
811.016	27743
811.158	27561
811.299	27850
811.441	27861
811.582	27937
811.724	27698
811.865	27724
812.007	27618
812.148	27759
812.29	27724
812.431	27972
812.573	28082
812.714	28025
812.855	28234
812.997	28314
813.138	28634
813.279	28379
813.421	28348
813.562	28112
813.703	28097
813.845	27918
813.986	27705
814.127	27485
814.268	27416
814.41	27363
814.551	27477
814.692	27435
814.833	27306
814.974	27424
815.115	27466
815.256	27294
815.397	27192
815.539	27340
815.68	27157
815.821	27272
815.962	27237
816.103	27176
816.244	27081
816.385	26895
816.526	26895
816.666	26819
816.807	26575
816.948	26788
817.089	26845
817.23	26636
817.371	26602
817.512	26769
817.653	26644
817.793	26571
817.934	26606
818.075	26689
818.216	26705
818.356	26613
818.497	26575
818.638	26419
818.778	26594
818.919	26522
819.06	26583
819.2	26541
819.341	26609
819.481	26651
819.622	26826
819.762	27081
819.903	26834
820.043	26921
820.184	26823
820.324	26640
820.465	26834
820.605	26826
820.746	26796
820.886	26606
821.026	26811
821.167	26716
821.307	26670
821.447	26750
821.588	26571
821.728	26404
821.868	26317
822.008	26145
822.149	26244
822.289	26225
822.429	25917
822.569	25788
822.709	25826
822.849	25723
822.99	25639
823.13	25639
823.27	25655
823.41	25422
823.55	25358
823.69	25457
823.83	25472
823.97	25479
824.11	25274
824.25	25236
824.389	25175
824.529	25343
824.669	25278
824.809	25354
824.949	25464
825.089	25426
825.228	25396
825.368	25110
825.508	25175
825.648	25046
825.787	25297
825.927	25274
826.067	25206
826.206	25187
826.346	25148
826.485	25240
826.625	25148
826.765	25168
826.904	25171
827.044	24966
827.183	24943
827.323	24810
827.462	25015
827.601	24962
827.741	24905
827.88	24992
828.02	24776
828.159	24920
828.298	24943
828.437	24954
828.577	24833
828.716	24954
828.855	24681
828.994	24559
829.134	24604
829.273	24620
829.412	24540
829.551	24517
829.69	24604
829.829	24551
829.968	24719
830.107	24574
830.246	24688
830.385	24540
830.524	24369
830.663	24395
830.802	24315
830.941	24266
831.08	24064
831.219	24251
831.357	24296
831.496	24540
831.635	24194
831.774	24114
831.913	24087
832.051	24083
832.19	23931
832.329	23859
832.467	23992
832.606	23767
832.744	23805
832.883	23859
833.022	23771
833.16	23961
833.299	23851
833.437	23992
833.576	23908
833.714	23901
833.852	23988
833.991	23935
834.129	23939
834.267	24072
834.406	23969
834.544	23847
834.682	23958
834.821	23954
834.959	23996
835.097	23931
835.235	23927
835.373	23935
835.511	23939
835.65	23748
835.788	23737
835.926	23627
836.064	23596
836.202	23608
836.34	23878
836.478	23805
836.615	23805
836.753	23680
836.891	23805
837.029	23824
837.167	23695
837.305	23672
837.443	23668
837.58	23657
837.718	23638
837.856	23733
837.993	23604
838.131	23657
838.269	23627
838.406	23573
838.544	23421
838.681	23356
838.819	23159
838.956	23117
839.094	23094
839.231	23208
839.369	23197
839.506	23353
839.643	23372
839.781	23117
839.918	22984
840.055	23064
840.193	23022
840.33	22991
840.467	23037
840.604	22877
840.742	23410
840.879	22862
841.016	22896
841.153	23044
841.29	23083
841.427	23014
841.564	23060
841.701	22987
841.838	23067
841.975	22805
842.112	22949
842.249	22896
842.385	22618
842.522	22968
842.659	22911
842.796	22820
842.933	22915
843.069	22675
843.206	22637
843.343	22862
843.479	22733
843.616	22816
843.752	22603
843.889	22402
844.025	22626
844.162	22409
844.298	22523
844.435	22523
844.571	22375
844.708	22459
844.844	22672
844.98	22618
845.117	22622
845.253	22527
845.389	22390
845.525	22516
845.661	22360
845.798	22299
845.934	22291
846.07	22310
846.206	22337
846.342	22516
846.478	22230
846.614	22032
846.75	21945
846.886	21975
847.022	22036
847.158	22044
847.294	22090
847.429	22051
847.565	21968
847.701	22154
847.837	21698
847.972	21797
848.108	21915
848.244	21762
848.379	21583
848.515	21488
848.65	21523
848.786	21743
848.921	21629
849.057	21679
849.192	21599
849.328	21656
849.463	21583
849.598	21576
849.734	21458
849.869	21492
850.004	21519
850.14	21351
850.275	21511
850.41	21283
850.545	21355
850.68	21222
850.815	21340
850.95	21317
851.085	21450
851.22	21496
851.355	21428
851.49	21351
851.625	21374
851.76	21355
851.895	21249
852.03	21272
852.165	21268
852.299	21450
852.434	21428
852.569	21408
852.703	21294
852.838	21447
852.973	21549
853.107	21378
853.242	21249
853.376	21275
853.511	21108
853.645	21256
853.78	21233
853.914	21256
854.048	21108
854.183	21032
854.317	21245
854.451	21424
854.585	21112
854.72	21135
854.854	21207
854.988	21135
855.122	21138
855.256	20963
855.39	21157
855.524	21275
855.658	21169
855.792	21241
855.926	21214
856.06	21344
856.194	21207
856.327	21249
856.461	21142
856.595	21184
856.729	21165
856.862	21233
856.996	21188
857.13	21252
857.263	21283
857.397	21275
857.53	21218
857.664	21355
857.797	21283
857.931	21325
858.064	21119
858.197	21294
858.331	21081
858.464	21123
858.597	20921
858.731	21123
858.864	21119
858.997	21203
859.13	21252
859.263	21135
859.396	21287
859.529	21066
859.662	21245
859.795	21154
859.928	21207
860.061	21332
860.194	21329
860.327	21058
860.46	21272
860.592	21226
860.725	21283
860.858	21249
860.99	21135
861.123	21070
861.256	21142
861.388	21154
861.521	21865
861.653	21001
861.786	20979
861.918	21005
862.05	20929
862.183	21237
862.315	21093
862.447	21245
862.58	21146
862.712	20887
862.844	20876
862.976	21009
863.108	20891
863.24	21237
863.372	20773
863.504	20887
863.636	20948
863.768	20956
863.9	20811
864.032	20769
864.164	20868
864.296	20948
864.428	21028
864.559	20925
864.691	20880
864.823	20868
864.954	20872
865.086	20906
865.217	20830
865.349	20651
865.48	20739
865.612	20781
865.743	20880
865.875	20750
866.006	20796
866.137	20724
866.269	20777
866.4	20777
866.531	20693
866.662	20625
866.793	20743
866.924	20621
867.055	20716
867.186	20796
867.317	20598
867.448	20697
867.579	20625
867.71	20556
867.841	20545
867.972	20731
868.103	20617
868.233	20693
868.364	20765
868.495	20716
868.625	20823
868.756	21074
868.886	20804
869.017	20971
869.147	21112
869.278	21142
869.408	21070
869.539	20933
869.669	21123
869.799	20994
869.929	21051
870.06	21100
870.19	21233
870.32	21203
870.45	21405
870.58	21393
870.71	21477
870.84	21401
870.97	21340
871.1	21401
871.23	21568
871.36	21564
871.489	21454
871.619	21515
871.749	21553
871.879	21542
872.008	21663
872.138	21477
872.267	21526
872.397	21374
872.526	21359
872.656	21325
872.785	21275
872.915	21591
873.044	21705
873.173	21564
873.303	21671
873.432	21701
873.561	21694
873.69	21656
873.819	21603
873.948	21648
874.077	21530
874.206	21507
874.335	21454
874.464	21766
874.593	21778
874.722	21781
874.851	21808
874.979	21835
875.108	21987
875.237	21789
875.365	21709
875.494	21785
875.623	21899
875.751	21751
875.88	21884
876.008	21842
876.136	21945
876.265	22219
876.393	22375
876.521	22185
876.65	22246
876.778	22131
876.906	22200
877.034	22139
877.162	22207
877.29	22112
877.418	22135
877.546	22188
877.674	22226
877.802	22196
877.93	22112
878.058	22143
878.185	21975
878.313	22230
878.441	22158
878.568	22010
878.696	22086
878.824	22215
878.951	22265
879.079	22280
879.206	22447
879.333	22310
879.461	22169
879.588	22188
879.715	22280
879.842	22459
879.97	22128
880.097	22059
880.224	21983
880.351	22021
880.478	22051
880.605	21930
880.732	21934
880.859	22215
880.986	21953
881.112	21975
881.239	21880
881.366	21698
881.493	21469
881.619	21545
881.746	21523
881.872	21557
881.999	21492
882.125	21526
882.252	21675
882.378	21473
882.505	21629
882.631	21431
882.757	21211
882.883	21306
883.01	21241
883.136	21203
883.262	21116
883.388	20998
883.514	21218
883.64	21306
883.766	21108
883.892	21055
884.018	21081
884.143	21218
884.269	21291
884.395	20990
884.52	20902
884.646	20979
884.772	20895
884.897	20857
885.023	20880
885.148	20941
885.274	21081
885.399	20990
885.524	20861
885.65	20971
885.775	20834
885.9	20785
886.025	20876
886.15	21013
886.275	20842
886.4	20811
886.525	20823
886.65	20758
886.775	20708
886.9	21066
887.025	21001
887.149	20929
887.274	20648
887.399	20663
887.523	20712
887.648	20499
887.773	20583
887.897	20625
888.021	20689
888.146	20503
888.27	20765
888.395	20773
888.519	20644
888.643	20693
888.767	20724
888.891	20644
889.015	20549
889.139	20518
889.263	20454
889.387	20514
889.511	20568
889.635	20560
889.759	20495
889.883	20362
890.006	20355
890.13	20617
890.254	20393
890.377	20328
890.501	20210
890.624	20202
890.748	20164
890.871	20084
890.995	20001
891.118	19932
891.241	19978
891.364	20046
891.488	20100
891.611	20035
891.734	20043
891.857	20096
891.98	20005
892.103	20092
892.226	20058
892.349	19925
892.471	19761
892.594	20046
892.717	20020
892.839	19936
892.962	20005
893.085	20027
893.207	19921
893.33	19830
893.452	19890
893.575	19959
893.697	19856
893.819	20062
893.941	20130
894.064	20088
894.186	19909
894.308	19814
894.43	20012
894.552	20088
894.674	19928
894.796	19894
894.918	19944
895.04	19833
895.161	20039
895.283	19978
895.405	19875
895.526	20077
895.648	19795
895.769	19898
895.891	19913
896.012	19906
896.134	19875
896.255	19913
896.376	19974
896.498	20020
896.619	20024
896.74	19811
896.861	20035
896.982	20240
897.103	20339
897.224	20202
897.345	20092
897.466	20096
897.587	20210
897.708	20214
897.828	20195
897.949	20088
898.07	20016
898.19	20046
898.311	20176
898.431	20088
898.552	20233
898.672	20202
898.792	20278
898.913	20195
899.033	20088
899.153	19940
899.273	19906
899.393	19856
899.513	19928
899.633	19879
899.753	19852
899.873	19803
899.993	20035
900.113	19833
900.232	19967
900.352	19811
900.472	19734
900.591	19651
900.711	19655
900.83	19639
900.95	19681
901.069	19795
901.189	19556
901.308	19460
901.427	19228
901.546	19225
901.665	19324
901.784	19308
901.904	19114
902.023	19023
902.141	18913
902.26	18772
902.379	18871
902.498	18821
902.617	18779
902.735	18840
902.854	18734
902.973	18772
903.091	18521
903.21	18475
903.328	18498
903.446	18308
903.565	18330
903.683	18311
903.801	18186
903.919	18247
904.038	18152
904.156	18038
904.274	18136
904.392	18041
904.51	18026
904.627	17969
904.745	18049
904.863	18095
904.981	17786
905.098	17813
905.216	17672
905.334	17779
905.451	17767
905.569	17684
905.686	17710
905.803	17661
905.921	17376
906.038	17638
906.155	17505
906.272	17372
906.389	17474
906.506	17326
906.623	17136
906.74	17212
906.857	17216
906.974	17189
907.091	17208
907.208	17398
907.324	17311
907.441	17292
907.557	16949
907.674	17006
907.79	16854
907.907	16984
908.023	17003
908.139	17010
908.256	16949
908.372	16919
908.488	16790
908.604	16698
908.72	16630
908.836	16725
908.952	16748
909.068	16752
909.184	16881
909.3	16713
909.415	16721
909.531	16698
909.647	16409
909.762	16379
909.878	16344
909.993	16375
910.108	16455
910.224	16268
910.339	16348
910.454	16325
910.57	16131
910.685	16097
910.8	16405
910.915	16314
911.03	16230
911.145	16086
911.259	16036
911.374	16055
911.489	15884
911.604	15827
911.718	15762
911.833	15667
911.947	15660
912.062	15587
912.176	15660
912.291	15755
912.405	15759
912.519	15819
912.633	15903
912.748	15694
912.862	15705
912.976	15534
913.09	15397
913.204	15561
913.318	15526
913.431	15637
913.545	15641
913.659	15698
913.772	15469
913.886	15462
914	15336
914.113	15428
914.226	15511
914.34	15382
914.453	15237
914.566	15435
914.68	15222
914.793	15260
914.906	15020
915.019	15039
915.132	14902
915.245	15077
915.358	14952
915.47	14902
915.583	14971
915.696	14944
915.809	15051
915.921	15089
916.034	14963
916.146	14872
916.259	14830
916.371	15005
916.483	14887
916.595	14876
916.708	14826
916.82	14735
916.932	14788
917.044	14842
917.156	14758
917.268	14564
917.38	14621
917.491	14583
917.603	14640
917.715	14621
917.826	14731
917.938	14549
918.049	14492
918.161	14693
918.272	14640
918.384	14739
918.495	14533
918.606	14408
918.717	14328
918.828	14374
918.939	14389
919.05	14328
919.161	14305
919.272	14206
919.383	14218
919.494	14385
919.604	14469
919.715	14339
919.826	14320
919.936	14214
920.047	14400
920.157	14313
920.267	14583
920.378	14450
920.488	14358
920.598	14511
920.708	14644
920.818	14476
920.928	14503
921.038	14693
921.148	14617
921.258	14317
921.368	14161
921.477	14107
921.587	14111
921.697	13997
921.806	14050
921.916	14016
922.025	13833
922.134	13750
922.244	13662
922.353	13765
922.462	13628
922.571	13483
922.68	13438
922.789	13312
922.898	13445
923.007	13308
923.116	13350
923.224	13392
923.333	13335
923.442	13274
923.55	13206
923.659	13293
923.767	13198
923.876	13137
923.984	13266
924.092	13126
924.201	13221
924.309	13084
924.417	13091
924.525	13084
924.633	13065
924.741	13830
924.849	12901
924.956	12962
925.064	12856
925.172	12741
925.279	12776
925.387	12871
925.494	12741
925.602	12844
925.709	12913
925.816	12684
925.924	12764
926.031	12844
926.138	12722
926.245	12821
926.352	12620
926.459	12810
926.566	12859
926.673	12741
926.779	12589
926.886	12582
926.993	12350
927.099	12388
927.206	12308
927.312	12334
927.419	12403
927.525	12350
927.631	12429
927.737	12270
927.843	12209
927.95	12159
928.056	12194
928.162	12182
928.267	12281
928.373	12821
928.479	12289
928.585	12022
928.69	12114
928.796	12197
928.901	12144
929.007	11897
929.112	12087
929.218	12038
929.323	12003
929.428	11916
929.533	12133
929.638	11935
929.743	11878
929.848	11912
929.953	11859
930.058	11786
930.163	11554
930.267	11695
930.372	11802
930.477	11634
930.581	11756
930.685	11707
930.79	11619
930.894	11573
930.998	11570
931.103	11604
931.207	11189
931.311	11216
931.415	11090
931.519	10934
931.623	10900
