Data from test_V78500241_2061.txt Node
Date: Fri Mar 25 15:24:12 CST 2022
User: usil
Spectrometer: V785-0024
Trigger mode: 0
Integration Time (sec): 4.000000E-1
Scans to average: 1
Nonlinearity correction enabled: false
Boxcar width: 0
Storing dark spectrum: false
XAxis mode: Wavelengths
Number of Pixels in Spectrum: 1024
>>>>>Begin Spectral Data<<<<<
801.071	27557
801.214	27641
801.356	27317
801.499	27378
801.641	27252
801.783	27275
801.926	27294
802.068	27275
802.211	27142
802.353	27058
802.496	26800
802.638	26845
802.78	26937
802.923	26731
803.065	26765
803.208	26781
803.35	26781
803.492	26910
803.635	27036
803.777	26971
803.919	27013
804.061	27207
804.204	27066
804.346	27104
804.488	27058
804.63	27051
804.773	26933
804.915	27131
805.057	27123
805.199	27009
805.341	26990
805.483	27268
805.626	27173
805.768	27062
805.91	27085
806.052	27184
806.194	27093
806.336	27359
806.478	27180
806.62	27169
806.762	27268
806.904	27427
807.046	27648
807.188	27637
807.33	27469
807.472	27629
807.614	27462
807.756	27583
807.898	27485
808.04	27306
808.182	27473
808.324	27363
808.465	27450
808.607	27660
808.749	27789
808.891	27884
809.033	27934
809.174	27892
809.316	27682
809.458	27812
809.6	27614
809.741	27732
809.883	27838
810.025	28166
810.166	28082
810.308	28101
810.45	28051
810.591	28025
810.733	27960
810.875	27739
811.016	27732
811.158	27633
811.299	27873
811.441	27975
811.582	27808
811.724	27816
811.865	27785
812.007	27732
812.148	27717
812.29	27789
812.431	28010
812.573	27975
812.714	28200
812.855	28348
812.997	28348
813.138	28535
813.279	28436
813.421	28169
813.562	28169
813.703	28120
813.845	28059
813.986	27572
814.127	27412
814.268	27492
814.41	27583
814.551	27500
814.692	27625
814.833	27393
814.974	27374
815.115	27401
815.256	27306
815.397	27397
815.539	27386
815.68	27355
815.821	27256
815.962	27211
816.103	27154
816.244	27192
816.385	26872
816.526	26902
816.666	26716
816.807	26712
816.948	26823
817.089	26849
817.23	26906
817.371	26792
817.512	26708
817.653	26701
817.793	26720
817.934	26785
818.075	26651
818.216	26804
818.356	26682
818.497	26670
818.638	26495
818.778	26609
818.919	26412
819.06	26560
819.2	26670
819.341	26693
819.481	26609
819.622	26826
819.762	27077
819.903	26899
820.043	26861
820.184	26944
820.324	26823
820.465	26940
820.605	27024
820.746	26807
820.886	26762
821.026	26868
821.167	26712
821.307	26830
821.447	26788
821.588	26617
821.728	26552
821.868	26419
822.008	26233
822.149	26278
822.289	26153
822.429	25951
822.569	25925
822.709	25807
822.849	25742
822.99	25685
823.13	25624
823.27	25643
823.41	25613
823.55	25499
823.69	25628
823.83	25590
823.97	25578
824.11	25457
824.25	25438
824.389	25438
824.529	25533
824.669	25422
824.809	25285
824.949	25438
825.089	25400
825.228	25335
825.368	25198
825.508	25187
825.648	25141
825.787	25278
825.927	25251
826.067	25209
826.206	25209
826.346	25251
826.485	25373
826.625	25126
826.765	25388
826.904	25099
827.044	25129
827.183	25012
827.323	24920
827.462	25076
827.601	24916
827.741	25031
827.88	25069
828.02	24928
828.159	24848
828.298	24954
828.437	25084
828.577	24772
828.716	24954
828.855	24764
828.994	24703
829.134	24764
829.273	24661
829.412	24715
829.551	24593
829.69	24509
829.829	24661
829.968	24677
830.107	24669
830.246	24726
830.385	24642
830.524	24433
830.663	24395
830.802	24319
830.941	24281
831.08	24163
831.219	24380
831.357	24342
831.496	24494
831.635	24296
831.774	24197
831.913	24068
832.051	24041
832.19	23999
832.329	24053
832.467	23973
832.606	23840
832.744	23859
832.883	23798
833.022	23889
833.16	23996
833.299	23954
833.437	23893
833.576	24064
833.714	23980
833.852	24038
833.991	24110
834.129	24110
834.267	24197
834.406	23973
834.544	23999
834.682	23999
834.821	23901
834.959	24190
835.097	23958
835.235	24087
835.373	23977
835.511	23859
835.65	23870
835.788	23821
835.926	23771
836.064	23611
836.202	23600
836.34	23866
836.478	23824
836.615	23767
836.753	23786
836.891	23885
837.029	23741
837.167	23657
837.305	23623
837.443	23680
837.58	23748
837.718	23691
837.856	23627
837.993	23543
838.131	23646
838.269	23501
838.406	23490
838.544	23463
838.681	23258
838.819	23204
838.956	23041
839.094	23143
839.231	23197
839.369	23379
839.506	23554
839.643	23151
839.781	23235
839.918	23128
840.055	23220
840.193	23220
840.33	23090
840.467	23109
840.604	23029
840.742	23311
840.879	22812
841.016	22873
841.153	22972
841.29	23090
841.427	23010
841.564	23098
841.701	23029
841.838	23086
841.975	22980
842.112	22984
842.249	22854
842.385	22835
842.522	22991
842.659	22850
842.796	22866
842.933	22824
843.069	22721
843.206	22782
843.343	22877
843.479	22721
843.616	22729
843.752	22470
843.889	22538
844.025	22717
844.162	22535
844.298	22736
844.435	22637
844.571	22611
844.708	22573
844.844	22801
844.98	22626
845.117	22664
845.253	22565
845.389	22440
845.525	22516
845.661	22398
845.798	22329
845.934	22382
846.07	22329
846.206	22344
846.342	22455
846.478	22360
846.614	22093
846.75	21975
846.886	22078
847.022	22055
847.158	22246
847.294	21941
847.429	22025
847.565	22055
847.701	22272
847.837	21690
847.972	21682
848.108	21899
848.244	21846
848.379	21717
848.515	21618
848.65	21568
848.786	21751
848.921	21701
849.057	21827
849.192	21709
849.328	21694
849.463	21728
849.598	21511
849.734	21496
849.869	21481
850.004	21416
850.14	21401
850.275	21595
850.41	21230
850.545	21397
850.68	21264
850.815	21416
850.95	21325
851.085	21549
851.22	21393
851.355	21443
851.49	21405
851.625	21321
851.76	21443
851.895	21260
852.03	21321
852.165	21428
852.299	21469
852.434	21561
852.569	21332
852.703	21351
852.838	21428
852.973	21481
853.107	21595
853.242	21298
853.376	21226
853.511	21161
853.645	21188
853.78	21344
853.914	21287
854.048	21119
854.183	21074
854.317	21157
854.451	21367
854.585	21161
854.72	21214
854.854	21321
854.988	21150
855.122	21173
855.256	21169
855.39	21157
855.524	21279
855.658	21287
855.792	21260
855.926	21264
856.06	21275
856.194	21317
856.327	21180
856.461	21245
856.595	21207
856.729	21112
856.862	21195
856.996	21378
857.13	21287
857.263	21310
857.397	21226
857.53	21260
857.664	21298
857.797	21218
857.931	21420
858.064	21310
858.197	21241
858.331	21203
858.464	21245
858.597	21100
858.731	21165
858.864	21123
858.997	21123
859.13	21062
859.263	21256
859.396	21207
859.529	21100
859.662	21142
859.795	21154
859.928	21264
860.061	21321
860.194	21435
860.327	21169
860.46	21138
860.592	21222
860.725	21397
860.858	21233
860.99	21207
861.123	21180
861.256	21108
861.388	21161
861.521	21857
861.653	21036
861.786	21085
861.918	20975
862.05	21123
862.183	21157
862.315	21100
862.447	21233
862.58	21195
862.712	20975
862.844	20998
862.976	21017
863.108	21036
863.24	21226
863.372	20963
863.504	20857
863.636	20880
863.768	20918
863.9	20861
864.032	20845
864.164	20895
864.296	20880
864.428	21055
864.559	21047
864.691	21089
864.823	20979
864.954	20929
865.086	20925
865.217	20807
865.349	20746
865.48	20887
865.612	20743
865.743	20864
865.875	20746
866.006	20754
866.137	20845
866.269	20845
866.4	20876
866.531	20750
866.662	20758
866.793	20701
866.924	20811
867.055	20777
867.186	20834
867.317	20568
867.448	20716
867.579	20663
867.71	20663
867.841	20648
867.972	20773
868.103	20697
868.233	20716
868.364	20804
868.495	20758
868.625	20960
868.756	21119
868.886	20792
869.017	20990
869.147	21028
869.278	21032
869.408	21020
869.539	21024
869.669	21055
869.799	21081
869.929	21161
870.06	21047
870.19	21237
870.32	21378
870.45	21389
870.58	21382
870.71	21507
870.84	21519
870.97	21462
871.1	21408
871.23	21572
871.36	21523
871.489	21530
871.619	21382
871.749	21591
871.879	21614
872.008	21648
872.138	21545
872.267	21778
872.397	21515
872.526	21439
872.656	21450
872.785	21545
872.915	21507
873.044	21618
873.173	21663
873.303	21629
873.432	21644
873.561	21717
873.69	21667
873.819	21633
873.948	21720
874.077	21660
874.206	21530
874.335	21652
874.464	21679
874.593	21861
874.722	21819
874.851	21899
874.979	21926
875.108	21945
875.237	21743
875.365	21819
875.494	21686
875.623	21918
875.751	21701
875.88	21797
876.008	21918
876.136	22048
876.265	22211
876.393	22371
876.521	22265
876.65	22341
876.778	22196
876.906	22112
877.034	22162
877.162	22261
877.29	22090
877.418	22181
877.546	22185
877.674	22196
877.802	22207
877.93	22177
878.058	22215
878.185	21998
878.313	22192
878.441	22135
878.568	22044
878.696	22215
878.824	22124
878.951	22147
879.079	22310
879.206	22519
879.333	22303
879.461	22173
879.588	22303
879.715	22341
879.842	22436
879.97	22158
880.097	22013
880.224	22002
880.351	22150
880.478	21991
880.605	21983
880.732	21937
880.859	22238
880.986	22017
881.112	21960
881.239	21766
881.366	21641
881.493	21606
881.619	21671
881.746	21743
881.872	21500
881.999	21587
882.125	21523
882.252	21606
882.378	21542
882.505	21603
882.631	21378
882.757	21222
882.883	21298
883.01	21287
883.136	21310
883.262	21291
883.388	21096
883.514	21321
883.64	21313
883.766	21252
883.892	21055
884.018	21039
884.143	21226
884.269	21306
884.395	20994
884.52	20921
884.646	20998
884.772	20861
884.897	20746
885.023	20960
885.148	21066
885.274	21085
885.399	20952
885.524	20842
885.65	21017
885.775	20910
885.9	20895
886.025	21058
886.15	20994
886.275	20765
886.4	20864
886.525	20914
886.65	20815
886.775	20838
886.9	21081
887.025	21188
887.149	20914
887.274	20716
887.399	20648
887.523	20670
887.648	20724
887.773	20526
887.897	20724
888.021	20807
888.146	20568
888.27	20762
888.395	20861
888.519	20830
888.643	20644
888.767	20727
888.891	20579
889.015	20495
889.139	20469
889.263	20488
889.387	20526
889.511	20648
889.635	20617
889.759	20465
889.883	20351
890.006	20492
890.13	20564
890.254	20495
890.377	20438
890.501	20244
890.624	20122
890.748	20309
890.871	20176
890.995	20043
891.118	19986
891.241	20058
891.364	19989
891.488	20119
891.611	20115
891.734	20005
891.857	19978
891.98	20081
892.103	20084
892.226	20107
892.349	20012
892.471	19894
892.594	20039
892.717	19963
892.839	19894
892.962	19917
893.085	20035
893.207	20043
893.33	19902
893.452	19936
893.575	20084
893.697	19989
893.819	20065
893.941	20100
894.064	20081
894.186	20031
894.308	19742
894.43	20062
894.552	20043
894.674	20077
894.796	19887
894.918	20039
895.04	19944
895.161	20084
895.283	19940
895.405	19811
895.526	20005
895.648	20043
895.769	19982
895.891	19940
896.012	20096
896.134	20046
896.255	19970
896.376	20084
896.498	20001
896.619	19955
896.74	19871
896.861	20024
896.982	20324
897.103	20415
897.224	20237
897.345	20180
897.466	20126
897.587	20138
897.708	20298
897.828	20183
897.949	20153
898.07	20077
898.19	20168
898.311	20237
898.431	20050
898.552	20138
898.672	20343
898.792	20248
898.913	20187
899.033	20157
899.153	19989
899.273	19947
899.393	19879
899.513	19959
899.633	19776
899.753	19928
899.873	19932
899.993	19993
900.113	20008
900.232	19913
900.352	19887
900.472	19871
900.591	19613
900.711	19753
900.83	19597
900.95	19727
901.069	19681
901.189	19655
901.308	19407
901.427	19312
901.546	19381
901.665	19320
901.784	19327
901.904	19187
902.023	19031
902.141	18863
902.26	18719
902.379	18985
902.498	18776
902.617	18722
902.735	18920
902.854	18795
902.973	18749
903.091	18388
903.21	18479
903.328	18506
903.446	18471
903.565	18323
903.683	18315
903.801	18174
903.919	18277
904.038	18258
904.156	18167
904.274	18079
904.392	18068
904.51	18022
904.627	18038
904.745	18136
904.863	18167
904.981	17927
905.098	17741
905.216	17729
905.334	17779
905.451	17691
905.569	17596
905.686	17771
905.803	17668
905.921	17539
906.038	17627
906.155	17547
906.272	17356
906.389	17368
906.506	17242
906.623	17345
906.74	17204
906.857	17147
906.974	17189
907.091	17337
907.208	17239
907.324	17376
907.441	17094
907.557	17041
907.674	16949
907.79	16915
907.907	16949
908.023	17048
908.139	17079
908.256	16930
908.372	16911
908.488	16820
908.604	16717
908.72	16668
908.836	16702
908.952	16611
909.068	16740
909.184	16736
909.3	16752
909.415	16748
909.531	16656
909.647	16527
909.762	16459
909.878	16333
909.993	16451
910.108	16322
910.224	16417
910.339	16386
910.454	16318
910.57	16310
910.685	16211
910.8	16405
910.915	16367
911.03	16135
911.145	16013
911.259	16010
911.374	15987
911.489	15972
911.604	15918
911.718	15781
911.833	15743
911.947	15652
912.062	15599
912.176	15724
912.291	15793
912.405	15694
912.519	15915
912.633	15835
912.748	15778
912.862	15724
912.976	15561
913.09	15477
913.204	15572
913.318	15614
913.431	15591
913.545	15652
913.659	15584
913.772	15530
913.886	15393
914	15401
914.113	15401
914.226	15504
914.34	15401
914.453	15294
914.566	15329
914.68	15317
914.793	15203
914.906	15089
915.019	14902
915.132	14994
915.245	14975
915.358	15009
915.47	14998
915.583	15051
915.696	15043
915.809	15043
915.921	15093
916.034	14887
916.146	14944
916.259	14811
916.371	15020
916.483	14921
916.595	14834
916.708	14796
916.82	14800
916.932	14746
917.044	14785
917.156	14765
917.268	14697
917.38	14716
917.491	14598
917.603	14670
917.715	14682
917.826	14765
917.938	14454
918.049	14598
918.161	14590
918.272	14617
918.384	14674
918.495	14564
918.606	14514
918.717	14351
918.828	14427
918.939	14473
919.05	14229
919.161	14355
919.272	14221
919.383	14172
919.494	14415
919.604	14590
919.715	14404
919.826	14240
919.936	14313
920.047	14461
920.157	14381
920.267	14564
920.378	14389
920.488	14343
920.598	14488
920.708	14606
920.818	14454
920.928	14552
921.038	14735
921.148	14621
921.258	14244
921.368	14229
921.477	14084
921.587	14130
921.697	13947
921.806	14100
921.916	13997
922.025	13761
922.134	13776
922.244	13772
922.353	13700
922.462	13693
922.571	13556
922.68	13445
922.789	13331
922.898	13438
923.007	13384
923.116	13518
923.224	13491
923.333	13339
923.442	13297
923.55	13225
923.659	13228
923.767	13278
923.876	13213
923.984	13270
924.092	13061
924.201	13232
924.309	13213
924.417	13118
924.525	13141
924.633	13198
924.741	13830
924.849	12814
924.956	13000
925.064	12897
925.172	12749
925.279	12768
925.387	12848
925.494	12745
925.602	12939
925.709	12951
925.816	12734
925.924	12741
926.031	12890
926.138	12844
926.245	12734
926.352	12734
926.459	12859
926.566	12848
926.673	12642
926.779	12597
926.886	12509
926.993	12475
927.099	12410
927.206	12357
927.312	12319
927.419	12452
927.525	12448
927.631	12407
927.737	12228
927.843	12175
927.95	12095
928.056	12178
928.162	12190
928.267	12266
928.373	12928
928.479	12361
928.585	12041
928.69	12228
928.796	12136
928.901	12003
929.007	11996
929.112	12034
929.218	11977
929.323	11946
929.428	11939
929.533	12091
929.638	11912
929.743	11927
929.848	11908
929.953	11870
930.058	11840
930.163	11672
930.267	11623
930.372	11805
930.477	11589
930.581	11901
930.685	11630
930.79	11532
930.894	11589
930.998	11505
931.103	11646
931.207	11376
931.311	11147
931.415	11178
931.519	10908
931.623	10900
