Data from test_V78500241_1634.txt Node
Date: Fri Mar 25 15:21:14 CST 2022
User: usil
Spectrometer: V785-0024
Trigger mode: 0
Integration Time (sec): 4.000000E-1
Scans to average: 1
Nonlinearity correction enabled: false
Boxcar width: 0
Storing dark spectrum: false
XAxis mode: Wavelengths
Number of Pixels in Spectrum: 1024
>>>>>Begin Spectral Data<<<<<
801.071	27846
801.214	27812
801.356	27599
801.499	27637
801.641	27549
801.783	27370
801.926	27397
802.068	27583
802.211	27336
802.353	27294
802.496	27112
802.638	27176
802.78	27085
802.923	26967
803.065	26933
803.208	26998
803.35	27036
803.492	27260
803.635	27252
803.777	27233
803.919	27348
804.061	27526
804.204	27435
804.346	27386
804.488	27180
804.63	27363
804.773	27154
804.915	27268
805.057	27416
805.199	27161
805.341	27473
805.483	27545
805.626	27545
805.768	27279
805.91	27386
806.052	27447
806.194	27504
806.336	27561
806.478	27504
806.62	27408
806.762	27667
806.904	27679
807.046	27873
807.188	27842
807.33	27968
807.472	27854
807.614	27778
807.756	27964
807.898	27755
808.04	27587
808.182	27747
808.324	27641
808.465	27698
808.607	27869
808.749	28090
808.891	28147
809.033	28120
809.174	28242
809.316	27972
809.458	27945
809.6	28025
809.741	28196
809.883	28135
810.025	28390
810.166	28432
810.308	28360
810.45	28348
810.591	28196
810.733	28044
810.875	28086
811.016	27945
811.158	27941
811.299	28063
811.441	28120
811.582	28169
811.724	27975
811.865	28029
812.007	28029
812.148	27979
812.29	28036
812.431	28246
812.573	28325
812.714	28474
812.855	28481
812.997	28596
813.138	28740
813.279	28691
813.421	28637
813.562	28538
813.703	28322
813.845	28109
813.986	27994
814.127	27781
814.268	27762
814.41	27724
814.551	27701
814.692	27857
814.833	27709
814.974	27641
815.115	27751
815.256	27561
815.397	27519
815.539	27629
815.68	27488
815.821	27416
815.962	27492
816.103	27507
816.244	27427
816.385	27492
816.526	27306
816.666	27184
816.807	27024
816.948	27005
817.089	26963
817.23	27070
817.371	27058
817.512	27112
817.653	27066
817.793	27058
817.934	27062
818.075	26986
818.216	26967
818.356	26944
818.497	26819
818.638	26667
818.778	26693
818.919	26587
819.06	26781
819.2	26960
819.341	26994
819.481	27013
819.622	27218
819.762	27348
819.903	27321
820.043	27154
820.184	27146
820.324	27154
820.465	27055
820.605	27085
820.746	27108
820.886	26872
821.026	26998
821.167	27043
821.307	27157
821.447	27005
821.588	26937
821.728	26746
821.868	26537
822.008	26602
822.149	26602
822.289	26453
822.429	26282
822.569	26134
822.709	26187
822.849	26069
822.99	26077
823.13	26008
823.27	25932
823.41	25788
823.55	25674
823.69	25856
823.83	25784
823.97	25674
824.11	25483
824.25	25639
824.389	25552
824.529	25780
824.669	25685
824.809	25860
824.949	25655
825.089	25769
825.228	25647
825.368	25415
825.508	25468
825.648	25285
825.787	25693
825.927	25590
826.067	25453
826.206	25502
826.346	25521
826.485	25567
826.625	25590
826.765	25567
826.904	25487
827.044	25209
827.183	25228
827.323	25206
827.462	25327
827.601	25221
827.741	25187
827.88	25240
828.02	25160
828.159	25187
828.298	25247
828.437	25320
828.577	25179
828.716	25365
828.855	25107
828.994	24977
829.134	24913
829.273	24924
829.412	24768
829.551	24970
829.69	24958
829.829	24833
829.968	25072
830.107	25179
830.246	24863
830.385	24798
830.524	24738
830.663	24791
830.802	24654
830.941	24498
831.08	24585
831.219	24673
831.357	24597
831.496	24745
831.635	24555
831.774	24448
831.913	24410
832.051	24228
832.19	24311
832.329	24410
832.467	24247
832.606	24216
832.744	24155
832.883	24197
833.022	24178
833.16	24163
833.299	24407
833.437	24232
833.576	24239
833.714	24239
833.852	24304
833.991	24315
834.129	24441
834.267	24232
834.406	24296
834.544	24273
834.682	24323
834.821	24262
834.959	24525
835.097	24296
835.235	24304
835.373	24251
835.511	24270
835.65	24159
835.788	24209
835.926	24068
836.064	23897
836.202	23996
836.34	24152
836.478	24152
836.615	24129
836.753	24159
836.891	24091
837.029	24098
837.167	24038
837.305	23999
837.443	23950
837.58	23980
837.718	24068
837.856	23874
837.993	23870
838.131	24015
838.269	23851
838.406	23851
838.544	23756
838.681	23623
838.819	23474
838.956	23486
839.094	23368
839.231	23604
839.369	23623
839.506	23840
839.643	23680
839.781	23486
839.918	23372
840.055	23467
840.193	23318
840.33	23356
840.467	23383
840.604	23307
840.742	23395
840.879	23212
841.016	23223
841.153	23147
841.29	23406
841.427	23227
841.564	23349
841.701	23299
841.838	23204
841.975	23212
842.112	23223
842.249	23159
842.385	23075
842.522	23436
842.659	23220
842.796	23086
842.933	23029
843.069	23075
843.206	23037
843.343	23204
843.479	22949
843.616	23102
843.752	22968
843.889	22965
844.025	23010
844.162	22904
844.298	22957
844.435	22942
844.571	22824
844.708	22854
844.844	22984
844.98	22999
845.117	22915
845.253	22755
845.389	22702
845.525	22786
845.661	22733
845.798	22573
845.934	22615
846.07	22641
846.206	22561
846.342	22649
846.478	22489
846.614	22398
846.75	22417
846.886	22234
847.022	22348
847.158	22523
847.294	22249
847.429	22424
847.565	22287
847.701	22573
847.837	22128
847.972	22086
848.108	22169
848.244	22101
848.379	21895
848.515	21899
848.65	21850
848.786	21983
848.921	21994
849.057	22006
849.192	21968
849.328	22002
849.463	21956
849.598	21812
849.734	21713
849.869	21751
850.004	21751
850.14	21766
850.275	21755
850.41	21637
850.545	21629
850.68	21789
850.815	21709
850.95	21618
851.085	21930
851.22	21774
851.355	21743
851.49	21759
851.625	21648
851.76	21724
851.895	21648
852.03	21652
852.165	21625
852.299	21743
852.434	21850
852.569	21827
852.703	21671
852.838	21770
852.973	21778
853.107	21739
853.242	21728
853.376	21564
853.511	21325
853.645	21401
853.78	21679
853.914	21500
854.048	21397
854.183	21507
854.317	21587
854.451	21694
854.585	21568
854.72	21542
854.854	21481
854.988	21393
855.122	21488
855.256	21458
855.39	21606
855.524	21633
855.658	21545
855.792	21519
855.926	21526
856.06	21572
856.194	21633
856.327	21481
856.461	21412
856.595	21420
856.729	21572
856.862	21576
856.996	21473
857.13	21652
857.263	21797
857.397	21641
857.53	21523
857.664	21614
857.797	21530
857.931	21606
858.064	21435
858.197	21660
858.331	21431
858.464	21393
858.597	21348
858.731	21408
858.864	21386
858.997	21580
859.13	21408
859.263	21496
859.396	21591
859.529	21534
859.662	21496
859.795	21374
859.928	21477
860.061	21511
860.194	21568
860.327	21549
860.46	21504
860.592	21568
860.725	21652
860.858	21568
860.99	21492
861.123	21412
861.256	21473
861.388	21473
861.521	22128
861.653	21332
861.786	21275
861.918	21393
862.05	21378
862.183	21393
862.315	21439
862.447	21386
862.58	21283
862.712	21184
862.844	21192
862.976	21294
863.108	21176
863.24	21656
863.372	21096
863.504	21230
863.636	21218
863.768	21211
863.9	21192
864.032	21051
864.164	21199
864.296	21180
864.428	21222
864.559	21184
864.691	21245
864.823	21203
864.954	21195
865.086	21233
865.217	21142
865.349	20971
865.48	21157
865.612	21142
865.743	21313
865.875	21070
866.006	21154
866.137	21028
866.269	21154
866.4	21135
866.531	21192
866.662	20998
866.793	21077
866.924	20956
867.055	21127
867.186	20963
867.317	21005
867.448	21055
867.579	21001
867.71	20941
867.841	20967
867.972	21024
868.103	21180
868.233	21005
868.364	21036
868.495	21081
868.625	21340
868.756	21405
868.886	21138
869.017	21268
869.147	21272
869.278	21367
869.408	21264
869.539	21275
869.669	21344
869.799	21348
869.929	21397
870.06	21302
870.19	21481
870.32	21507
870.45	21595
870.58	21641
870.71	21698
870.84	21755
870.97	21656
871.1	21751
871.23	21675
871.36	21873
871.489	21835
871.619	21739
871.749	21747
871.879	21865
872.008	21918
872.138	21945
872.267	21861
872.397	21781
872.526	21717
872.656	21728
872.785	21739
872.915	21895
873.044	21964
873.173	21797
873.303	21953
873.432	21903
873.561	22002
873.69	21835
873.819	21934
873.948	21899
874.077	21865
874.206	21774
874.335	21709
874.464	21937
874.593	22261
874.722	22097
874.851	22109
874.979	22207
875.108	22177
875.237	22120
875.365	21991
875.494	22036
875.623	22246
875.751	22044
875.88	22173
876.008	22223
876.136	22341
876.265	22557
876.393	22717
876.521	22523
876.65	22550
876.778	22637
876.906	22413
877.034	22405
877.162	22390
877.29	22459
877.418	22512
877.546	22394
877.674	22462
877.802	22470
877.93	22337
878.058	22375
878.185	22287
878.313	22443
878.441	22440
878.568	22223
878.696	22291
878.824	22379
878.951	22485
879.079	22531
879.206	22850
879.333	22527
879.461	22512
879.588	22508
879.715	22481
879.842	22672
879.97	22432
880.097	22219
880.224	22284
880.351	22337
880.478	22291
880.605	22188
880.732	22207
880.859	22546
880.986	22253
881.112	22360
881.239	22246
881.366	22002
881.493	21876
881.619	21926
881.746	21922
881.872	21774
881.999	21960
882.125	21743
882.252	21865
882.378	21800
882.505	21835
882.631	21625
882.757	21606
882.883	21568
883.01	21507
883.136	21553
883.262	21401
883.388	21351
883.514	21435
883.64	21595
883.766	21351
883.892	21310
884.018	21321
884.143	21431
884.269	21542
884.395	21207
884.52	21180
884.646	21367
884.772	21161
884.897	20998
885.023	21104
885.148	21264
885.274	21389
885.399	21351
885.524	21157
885.65	21237
885.775	21104
885.9	21131
886.025	21154
886.15	21245
886.275	21207
886.4	21142
886.525	21119
886.65	21195
886.775	21070
886.9	21264
887.025	21306
887.149	21096
887.274	21005
887.399	21036
887.523	21005
887.648	20891
887.773	20857
887.897	20956
888.021	20933
888.146	20944
888.27	20986
888.395	21074
888.519	20902
888.643	20971
888.767	20941
888.891	20792
889.015	20727
889.139	20769
889.263	20769
889.387	20781
889.511	20971
889.635	20872
889.759	20819
889.883	20693
890.006	20785
890.13	20792
890.254	20590
890.377	20659
890.501	20537
890.624	20484
890.748	20476
890.871	20355
890.995	20305
891.118	20233
891.241	20423
891.364	20351
891.488	20404
891.611	20309
891.734	20267
891.857	20286
891.98	20324
892.103	20301
892.226	20248
892.349	20336
892.471	20142
892.594	20237
892.717	20282
892.839	20210
892.962	20252
893.085	20343
893.207	20191
893.33	20043
893.452	20221
893.575	20294
893.697	20153
893.819	20358
893.941	20286
894.064	20377
894.186	20202
894.308	20046
894.43	20218
894.552	20393
894.674	20237
894.796	20107
894.918	20248
895.04	20214
895.161	20286
895.283	20313
895.405	20103
895.526	20286
895.648	20164
895.769	20225
895.891	20309
896.012	20286
896.134	20142
896.255	20176
896.376	20199
896.498	20195
896.619	20324
896.74	20168
896.861	20362
896.982	20575
897.103	20590
897.224	20495
897.345	20473
897.466	20404
897.587	20461
897.708	20446
897.828	20328
897.949	20461
898.07	20202
898.19	20328
898.311	20545
898.431	20301
898.552	20469
898.672	20556
898.792	20511
898.913	20362
899.033	20377
899.153	20244
899.273	20107
899.393	20233
899.513	20305
899.633	20157
899.753	20225
899.873	20050
899.993	20225
900.113	20092
900.232	20107
900.352	20050
900.472	20081
900.591	19890
900.711	20024
900.83	19871
900.95	19951
901.069	19986
901.189	19799
901.308	19597
901.427	19590
901.546	19518
901.665	19571
901.784	19700
901.904	19430
902.023	19308
902.141	19156
902.26	19038
902.379	19141
902.498	19179
902.617	19118
902.735	19099
902.854	18905
902.973	18966
903.091	18711
903.21	18738
903.328	18787
903.446	18612
903.565	18502
903.683	18460
903.801	18445
903.919	18483
904.038	18486
904.156	18285
904.274	18289
904.392	18228
904.51	18296
904.627	18254
904.745	18334
904.863	18384
904.981	18114
905.098	17931
905.216	17980
905.334	18015
905.451	17805
905.569	17961
905.686	18038
905.803	17935
905.921	17699
906.038	17855
906.155	17767
906.272	17627
906.389	17630
906.506	17524
906.623	17528
906.74	17395
906.857	17326
906.974	17258
907.091	17558
907.208	17592
907.324	17528
907.441	17349
907.557	17322
907.674	17223
907.79	17075
907.907	17124
908.023	17200
908.139	17220
908.256	17212
908.372	16991
908.488	17041
908.604	16957
908.72	16980
908.836	16961
908.952	16961
909.068	17025
909.184	17022
909.3	16866
909.415	16908
909.531	16885
909.647	16622
909.762	16531
909.878	16645
909.993	16577
910.108	16599
910.224	16611
910.339	16523
910.454	16580
910.57	16447
910.685	16337
910.8	16611
910.915	16531
911.03	16481
911.145	16333
911.259	16204
911.374	16196
911.489	16105
911.604	15964
911.718	15926
911.833	15975
911.947	15793
912.062	15865
912.176	15876
912.291	15888
912.405	15953
912.519	16071
912.633	16185
912.748	15903
912.862	15937
912.976	15766
913.09	15656
913.204	15698
913.318	15751
913.431	15930
913.545	15846
913.659	15930
913.772	15701
913.886	15549
914	15591
914.113	15603
914.226	15667
914.34	15637
914.453	15359
914.566	15614
914.68	15416
914.793	15424
914.906	15245
915.019	15249
915.132	15100
915.245	15058
915.358	15131
915.47	15264
915.583	15176
915.696	15287
915.809	15260
915.921	15412
916.034	15100
916.146	15066
916.259	15077
916.371	15146
916.483	15131
916.595	15024
916.708	15013
916.82	15066
916.932	14967
917.044	14899
917.156	14891
917.268	14826
917.38	14834
917.491	14804
917.603	14735
917.715	14918
917.826	14826
917.938	14648
918.049	14735
918.161	14800
918.272	14864
918.384	14868
918.495	14823
918.606	14625
918.717	14518
918.828	14621
918.939	14693
919.05	14507
919.161	14549
919.272	14374
919.383	14427
919.494	14613
919.604	14579
919.715	14571
919.826	14511
919.936	14469
920.047	14621
920.157	14514
920.267	14655
920.378	14556
920.488	14476
920.598	14712
920.708	14807
920.818	14689
920.928	14640
921.038	14765
921.148	14807
921.258	14514
921.368	14366
921.477	14244
921.587	14259
921.697	14206
921.806	14259
921.916	14199
922.025	14005
922.134	13883
922.244	13955
922.353	13921
922.462	13765
922.571	13772
922.68	13632
922.789	13613
922.898	13620
923.007	13468
923.116	13571
923.224	13601
923.333	13487
923.442	13464
923.55	13324
923.659	13358
923.767	13449
923.876	13270
923.984	13403
924.092	13327
924.201	13365
924.309	13297
924.417	13255
924.525	13213
924.633	13274
924.741	14202
924.849	13107
924.956	13137
925.064	13031
925.172	12859
925.279	12954
925.387	12993
925.494	12973
925.602	13095
925.709	13050
925.816	12897
925.924	12909
926.031	12996
926.138	12825
926.245	12985
926.352	12795
926.459	12913
926.566	12973
926.673	12859
926.779	12825
926.886	12821
926.993	12582
927.099	12570
927.206	12513
927.312	12467
927.419	12528
927.525	12532
927.631	12589
927.737	12433
927.843	12384
927.95	12201
928.056	12323
928.162	12353
928.267	12395
928.373	13084
928.479	12456
928.585	12178
928.69	12285
928.796	12384
928.901	12254
929.007	12030
929.112	12323
929.218	12186
929.323	12064
929.428	12041
929.533	12209
929.638	12098
929.743	12030
929.848	12121
929.953	12030
930.058	11935
930.163	11809
930.267	11764
930.372	11946
930.477	11767
930.581	11965
930.685	11832
930.79	11642
930.894	11714
930.998	11642
931.103	11703
931.207	11436
931.311	11284
931.415	11155
931.519	11029
931.623	11033
