Data from test_V78500241_1528.txt Node
Date: Fri Mar 25 15:20:29 CST 2022
User: usil
Spectrometer: V785-0024
Trigger mode: 0
Integration Time (sec): 4.000000E-1
Scans to average: 1
Nonlinearity correction enabled: false
Boxcar width: 0
Storing dark spectrum: false
XAxis mode: Wavelengths
Number of Pixels in Spectrum: 1024
>>>>>Begin Spectral Data<<<<<
801.071	27880
801.214	27797
801.356	27595
801.499	27526
801.641	27344
801.783	27450
801.926	27363
802.068	27336
802.211	27393
802.353	27405
802.496	27230
802.638	27142
802.78	26899
802.923	27017
803.065	27028
803.208	27112
803.35	27028
803.492	27230
803.635	27252
803.777	27161
803.919	27386
804.061	27496
804.204	27420
804.346	27165
804.488	27188
804.63	27389
804.773	27176
804.915	27329
805.057	27298
805.199	27180
805.341	27412
805.483	27458
805.626	27450
805.768	27310
805.91	27374
806.052	27386
806.194	27378
806.336	27625
806.478	27534
806.62	27363
806.762	27538
806.904	27583
807.046	27865
807.188	27732
807.33	27876
807.472	27895
807.614	27835
807.756	27698
807.898	27671
808.04	27686
808.182	27648
808.324	27751
808.465	27724
808.607	27949
808.749	27968
808.891	28139
809.033	28200
809.174	28147
809.316	28078
809.458	27895
809.6	28032
809.741	28181
809.883	28207
810.025	28432
810.166	28493
810.308	28303
810.45	28295
810.591	28367
810.733	28006
810.875	28128
811.016	28124
811.158	27956
811.299	28048
811.441	28093
811.582	28124
811.724	28074
811.865	28032
812.007	27987
812.148	28013
812.29	28135
812.431	28242
812.573	28451
812.714	28459
812.855	28622
812.997	28618
813.138	28961
813.279	28550
813.421	28668
813.562	28580
813.703	28443
813.845	28287
813.986	27949
814.127	27930
814.268	27690
814.41	27785
814.551	27732
814.692	27717
814.833	27713
814.974	27629
815.115	27755
815.256	27530
815.397	27663
815.539	27644
815.68	27599
815.821	27534
815.962	27454
816.103	27500
816.244	27386
816.385	27401
816.526	27317
816.666	27173
816.807	26982
816.948	27047
817.089	27165
817.23	27192
817.371	26986
817.512	26971
817.653	27039
817.793	26982
817.934	27051
818.075	27051
818.216	27085
818.356	26940
818.497	26887
818.638	26754
818.778	26739
818.919	26857
819.06	26804
819.2	26842
819.341	26990
819.481	27020
819.622	27154
819.762	27462
819.903	27374
820.043	27214
820.184	26998
820.324	27226
820.465	27096
820.605	27188
820.746	27157
820.886	27001
821.026	27108
821.167	27096
821.307	27032
821.447	27108
821.588	27001
821.728	26872
821.868	26549
822.008	26495
822.149	26427
822.289	26453
822.429	26221
822.569	26126
822.709	26252
822.849	25944
822.99	25959
823.13	26035
823.27	25871
823.41	25712
823.55	25734
823.69	25677
823.83	25833
823.97	25913
824.11	25605
824.25	25460
824.389	25499
824.529	25734
824.669	25700
824.809	25826
824.949	25719
825.089	25761
825.228	25696
825.368	25529
825.508	25460
825.648	25502
825.787	25552
825.927	25597
826.067	25590
826.206	25521
826.346	25594
826.485	25510
826.625	25597
826.765	25537
826.904	25616
827.044	25221
827.183	25297
827.323	25107
827.462	25460
827.601	25228
827.741	25343
827.88	25206
828.02	25061
828.159	25259
828.298	25171
828.437	25289
828.577	25156
828.716	25316
828.855	25114
828.994	24886
829.134	24935
829.273	24954
829.412	24966
829.551	24981
829.69	24848
829.829	24932
829.968	24901
830.107	25004
830.246	24878
830.385	24726
830.524	24859
830.663	24692
830.802	24650
830.941	24426
831.08	24544
831.219	24620
831.357	24540
831.496	24741
831.635	24566
831.774	24483
831.913	24410
832.051	24308
832.19	24315
832.329	24357
832.467	24205
832.606	24121
832.744	24087
832.883	24228
833.022	24110
833.16	24129
833.299	24178
833.437	24148
833.576	24270
833.714	24254
833.852	24292
833.991	24330
834.129	24391
834.267	24292
834.406	24315
834.544	24285
834.682	24281
834.821	24163
834.959	24384
835.097	24194
835.235	24239
835.373	24167
835.511	24216
835.65	24155
835.788	24083
835.926	23965
836.064	23847
836.202	23946
836.34	24133
836.478	24292
836.615	24057
836.753	24091
836.891	24121
837.029	24011
837.167	23939
837.305	23950
837.443	23885
837.58	23939
837.718	23965
837.856	23935
837.993	23805
838.131	23767
838.269	23676
838.406	23748
838.544	23661
838.681	23615
838.819	23528
838.956	23383
839.094	23414
839.231	23436
839.369	23589
839.506	23752
839.643	23668
839.781	23269
839.918	23402
840.055	23387
840.193	23337
840.33	23265
840.467	23223
840.604	23280
840.742	23501
840.879	23193
841.016	23220
841.153	23258
841.29	23337
841.427	23246
841.564	23273
841.701	23356
841.838	23189
841.975	23200
842.112	23193
842.249	23075
842.385	23060
842.522	23414
842.659	23136
842.796	23048
842.933	23029
843.069	22999
843.206	22930
843.343	23060
843.479	22915
843.616	22968
843.752	23014
843.889	22854
844.025	22995
844.162	22835
844.298	22938
844.435	22702
844.571	22797
844.708	22847
844.844	23006
844.98	22953
845.117	22923
845.253	22774
845.389	22664
845.525	22790
845.661	22763
845.798	22481
845.934	22622
846.07	22538
846.206	22470
846.342	22561
846.478	22432
846.614	22413
846.75	22253
846.886	22291
847.022	22314
847.158	22413
847.294	22257
847.429	22466
847.565	22196
847.701	22413
847.837	22063
847.972	21926
848.108	22185
848.244	22226
848.379	21816
848.515	21869
848.65	21854
848.786	21873
848.921	21819
849.057	21987
849.192	21983
849.328	21854
849.463	21823
849.598	21918
849.734	21816
849.869	21751
850.004	21545
850.14	21720
850.275	21610
850.41	21530
850.545	21770
850.68	21622
850.815	21545
850.95	21610
851.085	21781
851.22	21717
851.355	21698
851.49	21759
851.625	21622
851.76	21625
851.895	21690
852.03	21500
852.165	21428
852.299	21736
852.434	21755
852.569	21652
852.703	21663
852.838	21701
852.973	21835
853.107	21743
853.242	21622
853.376	21583
853.511	21359
853.645	21367
853.78	21595
853.914	21370
854.048	21355
854.183	21511
854.317	21511
854.451	21603
854.585	21378
854.72	21496
854.854	21530
854.988	21359
855.122	21401
855.256	21317
855.39	21454
855.524	21538
855.658	21557
855.792	21454
855.926	21420
856.06	21507
856.194	21515
856.327	21389
856.461	21431
856.595	21439
856.729	21412
856.862	21637
856.996	21603
857.13	21534
857.263	21675
857.397	21564
857.53	21435
857.664	21473
857.797	21492
857.931	21622
858.064	21401
858.197	21622
858.331	21340
858.464	21405
858.597	21348
858.731	21557
858.864	21420
858.997	21408
859.13	21431
859.263	21447
859.396	21424
859.529	21492
859.662	21237
859.795	21500
859.928	21435
860.061	21644
860.194	21603
860.327	21568
860.46	21526
860.592	21549
860.725	21622
860.858	21576
860.99	21401
861.123	21450
861.256	21420
861.388	21408
861.521	22166
861.653	21329
861.786	21283
861.918	21298
862.05	21340
862.183	21241
862.315	21310
862.447	21431
862.58	21348
862.712	21237
862.844	21260
862.976	21180
863.108	21218
863.24	21564
863.372	21081
863.504	21207
863.636	21039
863.768	21112
863.9	21150
864.032	21055
864.164	21112
864.296	21142
864.428	21317
864.559	21237
864.691	21241
864.823	21237
864.954	21207
865.086	21096
865.217	21051
865.349	21009
865.48	21142
865.612	20967
865.743	21100
865.875	21119
866.006	21058
866.137	21036
866.269	20956
866.4	21142
866.531	21001
866.662	20986
866.793	20944
866.924	20838
867.055	20971
867.186	21020
867.317	20895
867.448	20769
867.579	21036
867.71	20902
867.841	20815
867.972	21001
868.103	20944
868.233	20902
868.364	20937
868.495	21066
868.625	21306
868.756	21192
868.886	21154
869.017	21199
869.147	21249
869.278	21313
869.408	21199
869.539	21199
869.669	21199
869.799	21272
869.929	21298
870.06	21313
870.19	21587
870.32	21397
870.45	21469
870.58	21705
870.71	21751
870.84	21675
870.97	21606
871.1	21500
871.23	21770
871.36	21819
871.489	21641
871.619	21831
871.749	21743
871.879	21827
872.008	21854
872.138	21751
872.267	21789
872.397	21660
872.526	21603
872.656	21633
872.785	21648
872.915	21854
873.044	21831
873.173	21846
873.303	21873
873.432	21907
873.561	22010
873.69	21854
873.819	21701
873.948	21819
874.077	21854
874.206	21781
874.335	21850
874.464	21857
874.593	22124
874.722	21953
874.851	22162
874.979	22116
875.108	22177
875.237	21991
875.365	21827
875.494	21907
875.623	22048
875.751	21953
875.88	22010
876.008	22196
876.136	22200
876.265	22481
876.393	22691
876.521	22519
876.65	22436
876.778	22535
876.906	22386
877.034	22398
877.162	22478
877.29	22249
877.418	22485
877.546	22516
877.674	22440
877.802	22428
877.93	22417
878.058	22276
878.185	22242
878.313	22424
878.441	22352
878.568	22211
878.696	22291
878.824	22413
878.951	22379
879.079	22409
879.206	22675
879.333	22641
879.461	22440
879.588	22447
879.715	22607
879.842	22736
879.97	22424
880.097	22280
880.224	22177
880.351	22268
880.478	22284
880.605	22181
880.732	22257
880.859	22394
880.986	22249
881.112	22280
881.239	21983
881.366	21975
881.493	21915
881.619	21789
881.746	21926
881.872	22025
881.999	21751
882.125	21736
882.252	21644
882.378	21812
882.505	21953
882.631	21625
882.757	21538
882.883	21576
883.01	21534
883.136	21420
883.262	21405
883.388	21386
883.514	21447
883.64	21511
883.766	21519
883.892	21268
884.018	21287
884.143	21336
884.269	21572
884.395	21211
884.52	21104
884.646	21104
884.772	21005
884.897	21047
885.023	21165
885.148	21233
885.274	21348
885.399	21252
885.524	21203
885.65	21176
885.775	21116
885.9	21085
886.025	21218
886.15	21321
886.275	21024
886.4	21127
886.525	21108
886.65	21138
886.775	21096
886.9	21165
887.025	21291
887.149	21119
887.274	20952
887.399	20960
887.523	20861
887.648	20845
887.773	20807
887.897	21001
888.021	20998
888.146	20785
888.27	20990
888.395	21047
888.519	20925
888.643	20864
888.767	20944
888.891	20765
889.015	20697
889.139	20781
889.263	20758
889.387	20842
889.511	20952
889.635	20804
889.759	20746
889.883	20625
890.006	20678
890.13	20743
890.254	20575
890.377	20606
890.501	20484
890.624	20556
890.748	20484
890.871	20347
890.995	20229
891.118	20180
891.241	20309
891.364	20290
891.488	20294
891.611	20271
891.734	20176
891.857	20332
891.98	20313
892.103	20305
892.226	20248
892.349	20206
892.471	20183
892.594	20153
892.717	20111
892.839	20183
892.962	20164
893.085	20317
893.207	20107
893.33	20065
893.452	20046
893.575	20282
893.697	20096
893.819	20278
893.941	20317
894.064	20290
894.186	20161
894.308	20050
894.43	20153
894.552	20400
894.674	20191
894.796	20081
894.918	20168
895.04	20065
895.161	20111
895.283	20187
895.405	20050
895.526	20050
895.648	20107
895.769	20229
895.891	20134
896.012	20309
896.134	20168
896.255	20164
896.376	20103
896.498	20278
896.619	20107
896.74	20161
896.861	20210
896.982	20473
897.103	20651
897.224	20480
897.345	20294
897.466	20286
897.587	20347
897.708	20511
897.828	20374
897.949	20336
898.07	20275
898.19	20324
898.311	20533
898.431	20351
898.552	20366
898.672	20438
898.792	20495
898.913	20423
899.033	20324
899.153	20248
899.273	20054
899.393	20088
899.513	20145
899.633	20130
899.753	20168
899.873	20084
899.993	20172
900.113	20027
900.232	20077
900.352	19993
900.472	19967
900.591	19852
900.711	19959
900.83	19925
900.95	20012
901.069	19986
901.189	19803
901.308	19742
901.427	19533
901.546	19312
901.665	19480
901.784	19518
901.904	19331
902.023	19221
902.141	19080
902.26	19008
902.379	19198
902.498	18981
902.617	18989
902.735	19072
902.854	18905
902.973	18859
903.091	18604
903.21	18688
903.328	18738
903.446	18608
903.565	18521
903.683	18627
903.801	18399
903.919	18410
904.038	18418
904.156	18235
904.274	18376
904.392	18270
904.51	18186
904.627	18167
904.745	18311
904.863	18369
904.981	18064
905.098	17958
905.216	17863
905.334	17935
905.451	17920
905.569	17760
905.686	17901
905.803	17935
905.921	17676
906.038	17760
906.155	17714
906.272	17596
906.389	17528
906.506	17429
906.623	17493
906.74	17478
906.857	17318
906.974	17364
907.091	17410
907.208	17604
907.324	17501
907.441	17296
907.557	17174
907.674	17178
907.79	17041
907.907	17102
908.023	17231
908.139	17204
908.256	17189
908.372	16980
908.488	17083
908.604	16915
908.72	16790
908.836	16923
908.952	16877
909.068	16892
909.184	16980
909.3	16866
909.415	16915
909.531	16946
909.647	16691
909.762	16618
909.878	16550
909.993	16580
910.108	16493
910.224	16611
910.339	16554
910.454	16424
910.57	16356
910.685	16379
910.8	16618
910.915	16493
911.03	16398
911.145	16268
911.259	16181
911.374	16265
911.489	16055
911.604	16116
911.718	15911
911.833	15934
911.947	15812
912.062	15751
912.176	15922
912.291	15960
912.405	15911
912.519	16105
912.633	16101
912.748	15979
912.862	15899
912.976	15698
913.09	15595
913.204	15671
913.318	15774
913.431	15812
913.545	15789
913.659	15907
913.772	15606
913.886	15557
914	15545
914.113	15591
914.226	15614
914.34	15629
914.453	15428
914.566	15568
914.68	15405
914.793	15348
914.906	15249
915.019	15218
915.132	15119
915.245	15058
915.358	15127
915.47	15241
915.583	15043
915.696	15195
915.809	15264
915.921	15233
916.034	15085
916.146	15089
916.259	15001
916.371	15066
916.483	15074
916.595	14910
916.708	14960
916.82	14952
916.932	14994
917.044	14842
917.156	14845
917.268	14834
917.38	14857
917.491	14781
917.603	14819
917.715	14857
917.826	14849
917.938	14716
918.049	14629
918.161	14727
918.272	14849
918.384	14853
918.495	14701
918.606	14598
918.717	14385
918.828	14579
918.939	14602
919.05	14419
919.161	14541
919.272	14450
919.383	14366
919.494	14541
919.604	14708
919.715	14552
919.826	14408
919.936	14412
920.047	14651
920.157	14518
920.267	14686
920.378	14476
920.488	14465
920.598	14701
920.708	14876
920.818	14731
920.928	14598
921.038	14739
921.148	14773
921.258	14499
921.368	14396
921.477	14267
921.587	14275
921.697	14100
921.806	14210
921.916	14001
922.025	13997
922.134	13940
922.244	13807
922.353	13841
922.462	13753
922.571	13769
922.68	13597
922.789	13518
922.898	13556
923.007	13468
923.116	13613
923.224	13525
923.333	13495
923.442	13468
923.55	13362
923.659	13441
923.767	13403
923.876	13308
923.984	13449
924.092	13304
924.201	13419
924.309	13301
924.417	13304
924.525	13232
924.633	13251
924.741	14024
924.849	13091
924.956	13145
925.064	12973
925.172	13034
925.279	12897
925.387	12954
925.494	13023
925.602	13061
925.709	12996
925.816	12768
925.924	12894
926.031	12878
926.138	12901
926.245	12981
926.352	12814
926.459	12973
926.566	12996
926.673	12730
926.779	12631
926.886	12741
926.993	12517
927.099	12547
927.206	12555
927.312	12502
927.419	12551
927.525	12498
927.631	12536
927.737	12429
927.843	12311
927.95	12220
928.056	12273
928.162	12258
928.267	12338
928.373	12993
928.479	12437
928.585	12159
928.69	12311
928.796	12395
928.901	12163
929.007	12053
929.112	12186
929.218	12159
929.323	11999
929.428	12007
929.533	12159
929.638	12034
929.743	12038
929.848	12060
929.953	12007
930.058	11893
930.163	11661
930.267	11771
930.372	11931
930.477	11680
930.581	12049
930.685	11767
930.79	11623
930.894	11554
930.998	11638
931.103	11760
931.207	11440
931.311	11345
931.415	11242
931.519	11083
931.623	10968
