Data from test_V78500241_576.txt Node
Date: Fri Mar 25 15:13:52 CST 2022
User: usil
Spectrometer: V785-0024
Trigger mode: 0
Integration Time (sec): 4.000000E-1
Scans to average: 1
Nonlinearity correction enabled: false
Boxcar width: 0
Storing dark spectrum: false
XAxis mode: Wavelengths
Number of Pixels in Spectrum: 1024
>>>>>Begin Spectral Data<<<<<
801.071	27416
801.214	27427
801.356	27279
801.499	27207
801.641	27169
801.783	27093
801.926	27119
802.068	26921
802.211	26876
802.353	26849
802.496	26720
802.638	26705
802.78	26663
802.923	26560
803.065	26583
803.208	26667
803.35	26632
803.492	26613
803.635	26796
803.777	26743
803.919	26705
804.061	27074
804.204	26861
804.346	26906
804.488	26807
804.63	26872
804.773	26762
804.915	26834
805.057	26895
805.199	26845
805.341	26895
805.483	26982
805.626	27009
805.768	26880
805.91	26982
806.052	26925
806.194	26853
806.336	27188
806.478	27047
806.62	26853
806.762	27070
806.904	27313
807.046	27500
807.188	27355
807.33	27389
807.472	27469
807.614	27245
807.756	27260
807.898	27188
808.04	27176
808.182	27043
808.324	27176
808.465	27272
808.607	27397
808.749	27481
808.891	27545
809.033	27682
809.174	27717
809.316	27568
809.458	27644
809.6	27526
809.741	27720
809.883	27648
810.025	27819
810.166	27854
810.308	27766
810.45	27720
810.591	27865
810.733	27724
810.875	27462
811.016	27405
811.158	27481
811.299	27488
811.441	27728
811.582	27808
811.724	27675
811.865	27496
812.007	27420
812.148	27583
812.29	27412
812.431	27816
812.573	27789
812.714	28021
812.855	28188
812.997	28325
813.138	28424
813.279	28192
813.421	28230
813.562	28116
813.703	27888
813.845	27804
813.986	27530
814.127	27359
814.268	27222
814.41	27203
814.551	27291
814.692	27344
814.833	27184
814.974	27077
815.115	27325
815.256	27093
815.397	27100
815.539	27146
815.68	27112
815.821	27028
815.962	26967
816.103	27055
816.244	26815
816.385	26823
816.526	26872
816.666	26629
816.807	26492
816.948	26743
817.089	26606
817.23	26651
817.371	26571
817.512	26632
817.653	26568
817.793	26511
817.934	26564
818.075	26575
818.216	26587
818.356	26400
818.497	26412
818.638	26275
818.778	26256
818.919	26393
819.06	26393
819.2	26590
819.341	26396
819.481	26530
819.622	26765
819.762	26845
819.903	26853
820.043	26769
820.184	26762
820.324	26621
820.465	26613
820.605	26769
820.746	26636
820.886	26522
821.026	26568
821.167	26682
821.307	26659
821.447	26648
821.588	26381
821.728	26408
821.868	26077
822.008	25963
822.149	25978
822.289	26027
822.429	25639
822.569	25639
822.709	25685
822.849	25434
822.99	25472
823.13	25518
823.27	25430
823.41	25327
823.55	25263
823.69	25358
823.83	25228
823.97	25236
824.11	25091
824.25	25084
824.389	25179
824.529	25194
824.669	25221
824.809	25297
824.949	25194
825.089	25320
825.228	25213
825.368	24992
825.508	24958
825.648	25091
825.787	25187
825.927	25133
826.067	25031
826.206	25038
826.346	25057
826.485	25004
826.625	24935
826.765	25225
826.904	25061
827.044	24825
827.183	24681
827.323	24646
827.462	24833
827.601	24681
827.741	24677
827.88	24745
828.02	24677
828.159	24776
828.298	24787
828.437	24852
828.577	24654
828.716	24821
828.855	24707
828.994	24505
829.134	24414
829.273	24407
829.412	24353
829.551	24361
829.69	24388
829.829	24467
829.968	24502
830.107	24540
830.246	24403
830.385	24479
830.524	24342
830.663	24213
830.802	24076
830.941	23988
831.08	23954
831.219	24209
831.357	24194
831.496	24209
831.635	23942
831.774	24041
831.913	23885
832.051	23866
832.19	23680
832.329	23942
832.467	23779
832.606	23691
832.744	23741
832.883	23855
833.022	23798
833.16	23646
833.299	23722
833.437	23843
833.576	23809
833.714	23828
833.852	23977
833.991	23866
834.129	23912
834.267	23901
834.406	23771
834.544	23863
834.682	23908
834.821	23707
834.959	23935
835.097	23615
835.235	23897
835.373	23866
835.511	23840
835.65	23657
835.788	23718
835.926	23592
836.064	23402
836.202	23452
836.34	23714
836.478	23684
836.615	23577
836.753	23615
836.891	23775
837.029	23668
837.167	23539
837.305	23516
837.443	23524
837.58	23448
837.718	23619
837.856	23425
837.993	23398
838.131	23505
838.269	23429
838.406	23356
838.544	23273
838.681	23124
838.819	23098
838.956	23067
839.094	22987
839.231	23113
839.369	23090
839.506	23349
839.643	23212
839.781	22866
839.918	22911
840.055	22930
840.193	22923
840.33	22915
840.467	22957
840.604	22930
840.742	23113
840.879	22820
841.016	22896
841.153	22717
841.29	22843
841.427	22904
841.564	22850
841.701	22835
841.838	22858
841.975	22740
842.112	22866
842.249	22573
842.385	22580
842.522	22869
842.659	22748
842.796	22607
842.933	22557
843.069	22550
843.206	22618
843.343	22729
843.479	22656
843.616	22615
843.752	22405
843.889	22512
844.025	22607
844.162	22318
844.298	22554
844.435	22512
844.571	22478
844.708	22424
844.844	22592
844.98	22459
845.117	22500
845.253	22367
845.389	22417
845.525	22405
845.661	22226
845.798	22067
845.934	22166
846.07	22188
846.206	22150
846.342	22173
846.478	22139
846.614	21956
846.75	21766
846.886	21808
847.022	21968
847.158	21949
847.294	21911
847.429	21949
847.565	21869
847.701	22090
847.837	21530
847.972	21637
848.108	21633
848.244	21709
848.379	21393
848.515	21610
848.65	21416
848.786	21481
848.921	21466
849.057	21671
849.192	21515
849.328	21462
849.463	21561
849.598	21405
849.734	21393
849.869	21386
850.004	21428
850.14	21260
850.275	21241
850.41	21310
850.545	21294
850.68	21169
850.815	21294
850.95	21169
851.085	21428
851.22	21344
851.355	21173
851.49	21302
851.625	21123
851.76	21252
851.895	21096
852.03	21222
852.165	21310
852.299	21260
852.434	21420
852.569	21268
852.703	21249
852.838	21313
852.973	21321
853.107	21294
853.242	21287
853.376	21203
853.511	20979
853.645	21013
853.78	21089
853.914	21180
854.048	21043
854.183	21112
854.317	21116
854.451	21237
854.585	21142
854.72	21085
854.854	21104
854.988	21039
855.122	21055
855.256	21009
855.39	20979
855.524	21058
855.658	21138
855.792	21161
855.926	21233
856.06	21245
856.194	21161
856.327	21032
856.461	20975
856.595	20986
856.729	21157
856.862	21195
856.996	20986
857.13	21214
857.263	21230
857.397	21272
857.53	21051
857.664	21135
857.797	21165
857.931	21195
858.064	21131
858.197	21207
858.331	20944
858.464	20956
858.597	20990
858.731	21146
858.864	21039
858.997	21032
859.13	21017
859.263	21009
859.396	21203
859.529	21005
859.662	21077
859.795	21180
859.928	21207
860.061	21176
860.194	21287
860.327	21043
860.46	21032
860.592	21249
860.725	21154
860.858	21116
860.99	21100
861.123	21001
861.256	20967
861.388	21108
861.521	22013
861.653	20967
861.786	20864
861.918	20883
862.05	21017
862.183	21017
862.315	21100
862.447	21055
862.58	21077
862.712	20815
862.844	20819
862.976	20998
863.108	20807
863.24	21329
863.372	20765
863.504	20762
863.636	20834
863.768	20834
863.9	20724
864.032	20693
864.164	20861
864.296	20727
864.428	20952
864.559	20773
864.691	20834
864.823	20739
864.954	20796
865.086	20807
865.217	20739
865.349	20648
865.48	20693
865.612	20731
865.743	20819
865.875	20598
866.006	20579
866.137	20727
866.269	20765
866.4	20659
866.531	20587
866.662	20590
866.793	20499
866.924	20640
867.055	20613
867.186	20640
867.317	20613
867.448	20511
867.579	20518
867.71	20632
867.841	20583
867.972	20625
868.103	20545
868.233	20629
868.364	20571
868.495	20731
868.625	20864
868.756	20929
868.886	20830
869.017	20826
869.147	21070
869.278	20986
869.408	20994
869.539	20830
869.669	20925
869.799	20857
869.929	20937
870.06	21108
870.19	21192
870.32	21150
870.45	21199
870.58	21340
870.71	21397
870.84	21294
870.97	21306
871.1	21188
871.23	21389
871.36	21561
871.489	21412
871.619	21606
871.749	21462
871.879	21462
872.008	21595
872.138	21496
872.267	21625
872.397	21424
872.526	21336
872.656	21348
872.785	21370
872.915	21473
873.044	21469
873.173	21507
873.303	21466
873.432	21462
873.561	21618
873.69	21606
873.819	21644
873.948	21641
874.077	21492
874.206	21553
874.335	21542
874.464	21599
874.593	21717
874.722	21622
874.851	21720
874.979	21804
875.108	21755
875.237	21698
875.365	21720
875.494	21625
875.623	21720
875.751	21690
875.88	21694
876.008	21895
876.136	21842
876.265	22154
876.393	22192
876.521	22261
876.65	22276
876.778	22078
876.906	21972
877.034	21941
877.162	22078
877.29	22017
877.418	22109
877.546	22173
877.674	22029
877.802	21960
877.93	22150
878.058	21987
878.185	21922
878.313	22032
878.441	21983
878.568	21949
878.696	22010
878.824	22143
878.951	22147
879.079	22295
879.206	22394
879.333	22276
879.461	22150
879.588	22109
879.715	22246
879.842	22265
879.97	22158
880.097	21994
880.224	21941
880.351	21827
880.478	21804
880.605	21918
880.732	21915
880.859	22124
880.986	21907
881.112	21812
881.239	21785
881.366	21667
881.493	21515
881.619	21606
881.746	21397
881.872	21469
881.999	21378
882.125	21344
882.252	21542
882.378	21469
882.505	21614
882.631	21355
882.757	21237
882.883	21188
883.01	21039
883.136	21161
883.262	21066
883.388	21062
883.514	21165
883.64	21176
883.766	21112
883.892	20906
884.018	21005
884.143	21127
884.269	21112
884.395	20933
884.52	20800
884.646	20804
884.772	20880
884.897	20781
885.023	20819
885.148	20838
885.274	21013
885.399	20899
885.524	20735
885.65	20750
885.775	20895
885.9	20716
886.025	20921
886.15	20941
886.275	20800
886.4	20804
886.525	20754
886.65	20708
886.775	20743
886.9	20891
887.025	21001
887.149	20746
887.274	20613
887.399	20693
887.523	20571
887.648	20594
887.773	20457
887.897	20678
888.021	20556
888.146	20480
888.27	20651
888.395	20583
888.519	20659
888.643	20735
888.767	20594
888.891	20533
889.015	20358
889.139	20446
889.263	20469
889.387	20457
889.511	20739
889.635	20465
889.759	20446
889.883	20499
890.006	20332
890.13	20446
890.254	20286
890.377	20218
890.501	20176
890.624	20092
890.748	20275
890.871	20096
890.995	19852
891.118	19890
891.241	19818
891.364	20046
891.488	20225
891.611	19909
891.734	19868
891.857	19940
891.98	19883
892.103	19963
892.226	19986
892.349	19871
892.471	19723
892.594	19887
892.717	19932
892.839	19822
892.962	19906
893.085	19936
893.207	19791
893.33	19837
893.452	19738
893.575	19845
893.697	19879
893.819	20024
893.941	19997
894.064	19955
894.186	19936
894.308	19833
894.43	20005
894.552	19989
894.674	19917
894.796	19894
894.918	19776
895.04	19849
895.161	20039
895.283	19818
895.405	19830
895.526	20001
895.648	19788
895.769	19947
895.891	19993
896.012	19959
896.134	19871
896.255	19913
896.376	19887
896.498	19887
896.619	19826
896.74	19780
896.861	19921
896.982	20252
897.103	20366
897.224	20100
897.345	20153
897.466	19947
897.587	20008
897.708	20172
897.828	20126
897.949	19947
898.07	19925
898.19	20020
898.311	20100
898.431	19982
898.552	20107
898.672	20214
898.792	20145
898.913	20084
899.033	19944
899.153	19906
899.273	19761
899.393	19856
899.513	19826
899.633	19788
899.753	19864
899.873	19852
899.993	19765
900.113	19974
900.232	19845
900.352	19765
900.472	19632
900.591	19594
900.711	19658
900.83	19460
900.95	19666
901.069	19738
901.189	19582
901.308	19335
901.427	19297
901.546	19171
901.665	19293
901.784	19266
901.904	19118
902.023	18928
902.141	18897
902.26	18798
902.379	18859
902.498	18817
902.617	18692
902.735	18730
902.854	18673
902.973	18620
903.091	18391
903.21	18486
903.328	18475
903.446	18350
903.565	18038
903.683	18163
903.801	18152
903.919	18117
904.038	18133
904.156	18019
904.274	18068
904.392	17935
904.51	17946
904.627	17885
904.745	18019
904.863	17977
904.981	17824
905.098	17676
905.216	17604
905.334	17741
905.451	17676
905.569	17657
905.686	17657
905.803	17604
905.921	17501
906.038	17562
906.155	17570
906.272	17356
906.389	17368
906.506	17220
906.623	17200
906.74	17299
906.857	17022
906.974	17143
907.091	17162
907.208	17349
907.324	17223
907.441	17098
907.557	16972
907.674	17048
907.79	16942
907.907	16957
908.023	16908
908.139	16904
908.256	16908
908.372	16831
908.488	16782
908.604	16580
908.72	16698
908.836	16729
908.952	16694
909.068	16744
909.184	16774
909.3	16618
909.415	16698
909.531	16573
909.647	16322
909.762	16329
909.878	16268
909.993	16371
910.108	16325
910.224	16371
910.339	16265
910.454	16192
910.57	16135
910.685	16112
910.8	16379
910.915	16230
911.03	16215
911.145	16093
911.259	15956
911.374	15949
911.489	15816
911.604	15838
911.718	15766
911.833	15709
911.947	15641
912.062	15462
912.176	15720
912.291	15705
912.405	15694
912.519	15804
912.633	15778
912.748	15606
912.862	15629
912.976	15500
913.09	15325
913.204	15519
913.318	15424
913.431	15591
913.545	15507
913.659	15580
913.772	15500
913.886	15294
914	15298
914.113	15321
914.226	15405
914.34	15412
914.453	15249
914.566	15332
914.68	15233
914.793	15195
914.906	14998
915.019	14906
915.132	14921
915.245	14918
915.358	14914
915.47	14910
915.583	14971
915.696	14933
915.809	15028
915.921	15077
916.034	14785
916.146	14891
916.259	14845
916.371	14944
916.483	14880
916.595	14762
916.708	14724
916.82	14861
916.932	14712
917.044	14651
917.156	14777
917.268	14545
917.38	14670
917.491	14465
917.603	14636
917.715	14632
917.826	14655
917.938	14549
918.049	14549
918.161	14537
918.272	14629
918.384	14610
918.495	14499
918.606	14393
918.717	14298
918.828	14393
918.939	14389
919.05	14290
919.161	14324
919.272	14027
919.383	14233
919.494	14252
919.604	14526
919.715	14358
919.826	14157
919.936	14301
920.047	14408
920.157	14343
920.267	14434
920.378	14252
920.488	14317
920.598	14484
920.708	14587
920.818	14446
920.928	14431
921.038	14613
921.148	14579
921.258	14229
921.368	14138
921.477	14100
921.587	14050
921.697	13845
921.806	14027
921.916	13864
922.025	13731
922.134	13700
922.244	13620
922.353	13750
922.462	13499
922.571	13594
922.68	13388
922.789	13308
922.898	13365
923.007	13266
923.116	13343
923.224	13320
923.333	13346
923.442	13175
923.55	13228
923.659	13202
923.767	13240
923.876	13091
923.984	13091
924.092	13080
924.201	13107
924.309	13152
924.417	13053
924.525	13084
924.633	13114
924.741	13944
924.849	12745
924.956	12962
925.064	12802
925.172	12749
925.279	12833
925.387	12772
925.494	12817
925.602	12958
925.709	12768
925.816	12563
925.924	12749
926.031	12867
926.138	12711
926.245	12760
926.352	12703
926.459	12681
926.566	12783
926.673	12612
926.779	12460
926.886	12498
926.993	12395
927.099	12327
927.206	12304
927.312	12277
927.419	12350
927.525	12369
927.631	12365
927.737	12220
927.843	12213
927.95	12083
928.056	12148
928.162	12232
928.267	12194
928.373	12837
928.479	12205
928.585	12034
928.69	12194
928.796	12148
928.901	11969
929.007	11870
929.112	11996
929.218	11973
929.323	11897
929.428	11859
929.533	11996
929.638	11885
929.743	11878
929.848	11916
929.953	11809
930.058	11779
930.163	11604
930.267	11585
930.372	11691
930.477	11581
930.581	11771
930.685	11668
930.79	11433
930.894	11474
930.998	11501
931.103	11638
931.207	11223
931.311	11155
931.415	11094
931.519	10831
931.623	10873
