Data from test_V78500241_1021.txt Node
Date: Fri Mar 25 15:16:58 CST 2022
User: usil
Spectrometer: V785-0024
Trigger mode: 0
Integration Time (sec): 4.000000E-1
Scans to average: 1
Nonlinearity correction enabled: false
Boxcar width: 0
Storing dark spectrum: false
XAxis mode: Wavelengths
Number of Pixels in Spectrum: 1024
>>>>>Begin Spectral Data<<<<<
801.071	28436
801.214	28367
801.356	27991
801.499	28048
801.641	27873
801.783	27960
801.926	28051
802.068	27911
802.211	27808
802.353	27785
802.496	27675
802.638	27564
802.78	27618
802.923	27542
803.065	27507
803.208	27473
803.35	27679
803.492	27572
803.635	27861
803.777	27770
803.919	27895
804.061	28078
804.204	27823
804.346	27907
804.488	27823
804.63	27781
804.773	27766
804.915	27884
805.057	28002
805.199	27827
805.341	28040
805.483	28021
805.626	27960
805.768	27945
805.91	28013
806.052	28002
806.194	27941
806.336	28249
806.478	27926
806.62	27987
806.762	28177
806.904	28261
807.046	28637
807.188	28367
807.33	28447
807.472	28360
807.614	28413
807.756	28382
807.898	28284
808.04	28280
808.182	28219
808.324	28341
808.465	28398
808.607	28512
808.749	28660
808.891	28744
809.033	28816
809.174	28687
809.316	28812
809.458	28641
809.6	28554
809.741	28771
809.883	28778
810.025	28847
810.166	29044
810.308	28881
810.45	28809
810.591	28824
810.733	28793
810.875	28683
811.016	28660
811.158	28607
811.299	28763
811.441	28839
811.582	28858
811.724	28691
811.865	28744
812.007	28679
812.148	28679
812.29	28835
812.431	28816
812.573	28984
812.714	29014
812.855	29254
812.997	29364
813.138	29375
813.279	29452
813.421	29159
813.562	29261
813.703	29003
813.845	28946
813.986	28656
814.127	28573
814.268	28341
814.41	28386
814.551	28398
814.692	28401
814.833	28223
814.974	28398
815.115	28497
815.256	28223
815.397	28360
815.539	28344
815.68	28341
815.821	28143
815.962	28272
816.103	28188
816.244	28158
816.385	28101
816.526	27975
816.666	27888
816.807	27633
816.948	27732
817.089	27869
817.23	27732
817.371	27755
817.512	27701
817.653	27660
817.793	27637
817.934	27838
818.075	27770
818.216	27618
818.356	27648
818.497	27682
818.638	27515
818.778	27431
818.919	27637
819.06	27496
819.2	27580
819.341	27644
819.481	27644
819.622	27854
819.762	28029
819.903	27964
820.043	27873
820.184	27816
820.324	27800
820.465	28029
820.605	27842
820.746	27789
820.886	27698
821.026	27789
821.167	27774
821.307	27876
821.447	27835
821.588	27633
821.728	27412
821.868	27431
822.008	27283
822.149	27245
822.289	27157
822.429	27020
822.569	26906
822.709	26857
822.849	26636
822.99	26575
823.13	26727
823.27	26796
823.41	26659
823.55	26476
823.69	26522
823.83	26625
823.97	26541
824.11	26370
824.25	26271
824.389	26412
824.529	26575
824.669	26404
824.809	26457
824.949	26537
825.089	26339
825.228	26461
825.368	26145
825.508	26320
825.648	26157
825.787	26320
825.927	26358
826.067	26168
826.206	26294
826.346	26328
826.485	26290
826.625	26180
826.765	26317
826.904	26347
827.044	25940
827.183	26130
827.323	25993
827.462	25997
827.601	26005
827.741	25974
827.88	25906
828.02	25890
828.159	25925
828.298	26005
828.437	25936
828.577	26001
828.716	25986
828.855	25947
828.994	25674
829.134	25700
829.273	25723
829.412	25712
829.551	25586
829.69	25731
829.829	25700
829.968	25887
830.107	25601
830.246	25685
830.385	25731
830.524	25582
830.663	25453
830.802	25362
830.941	25301
831.08	25278
831.219	25464
831.357	25419
831.496	25460
831.635	25259
831.774	25266
831.913	25164
832.051	25103
832.19	25145
832.329	25194
832.467	24909
832.606	25069
832.744	24932
832.883	24977
833.022	24954
833.16	24878
833.299	25168
833.437	25110
833.576	25114
833.714	24916
833.852	25065
833.991	25057
834.129	25278
834.267	25069
834.406	25019
834.544	24981
834.682	25027
834.821	25076
834.959	25069
835.097	24962
835.235	25076
835.373	24973
835.511	24962
835.65	25015
835.788	24920
835.926	24840
836.064	24700
836.202	24688
836.34	24916
836.478	25061
836.615	25008
836.753	24852
836.891	24947
837.029	24878
837.167	24753
837.305	24821
837.443	24867
837.58	24669
837.718	24677
837.856	24734
837.993	24669
838.131	24654
838.269	24700
838.406	24684
838.544	24486
838.681	24437
838.819	24388
838.956	24159
839.094	24121
839.231	24239
839.369	24384
839.506	24544
839.643	24433
839.781	24281
839.918	24038
840.055	24152
840.193	24049
840.33	24083
840.467	24098
840.604	24121
840.742	24346
840.879	24030
841.016	24022
841.153	23965
841.29	24235
841.427	24110
841.564	24144
841.701	24148
841.838	23908
841.975	24003
842.112	23946
842.249	23935
842.385	23878
842.522	24011
842.659	23942
842.796	23843
842.933	23863
843.069	23733
843.206	23809
843.343	23855
843.479	23863
843.616	23798
843.752	23745
843.889	23676
844.025	23760
844.162	23627
844.298	23611
844.435	23638
844.571	23562
844.708	23691
844.844	23767
844.98	23726
845.117	23805
845.253	23528
845.389	23459
845.525	23467
845.661	23379
845.798	23250
845.934	23482
846.07	23258
846.206	23311
846.342	23505
846.478	23353
846.614	23159
846.75	23071
846.886	22938
847.022	23098
847.158	23048
847.294	23105
847.429	23060
847.565	23025
847.701	23159
847.837	22820
847.972	22763
848.108	22877
848.244	22942
848.379	22740
848.515	22820
848.65	22565
848.786	22577
848.921	22637
849.057	22637
849.192	22790
849.328	22755
849.463	22584
849.598	22470
849.734	22577
849.869	22493
850.004	22481
850.14	22462
850.275	22466
850.41	22299
850.545	22569
850.68	22485
850.815	22546
850.95	22405
851.085	22432
851.22	22485
851.355	22512
851.49	22508
851.625	22333
851.76	22314
851.895	22310
852.03	22459
852.165	22337
852.299	22436
852.434	22550
852.569	22508
852.703	22447
852.838	22531
852.973	22440
853.107	22459
853.242	22253
853.376	22246
853.511	22188
853.645	22204
853.78	22291
853.914	22272
854.048	22200
854.183	22219
854.317	22253
854.451	22348
854.585	22249
854.72	22211
854.854	22234
854.988	22124
855.122	22192
855.256	22177
855.39	22219
855.524	22356
855.658	22329
855.792	22409
855.926	22276
856.06	22246
856.194	22246
856.327	22333
856.461	22219
856.595	22101
856.729	22207
856.862	22268
856.996	22211
857.13	22306
857.263	22150
857.397	22462
857.53	22219
857.664	22276
857.797	22287
857.931	22371
858.064	22333
858.197	22276
858.331	22196
858.464	22268
858.597	22185
858.731	22242
858.864	22268
858.997	22196
859.13	22204
859.263	22253
859.396	22394
859.529	22162
859.662	22257
859.795	22158
859.928	22143
860.061	22451
860.194	22432
860.327	22196
860.46	22265
860.592	22314
860.725	22462
860.858	22329
860.99	22211
861.123	22188
861.256	22093
861.388	22188
861.521	22831
861.653	22101
861.786	22032
861.918	22010
862.05	22040
862.183	22230
862.315	22135
862.447	22287
862.58	22238
862.712	21930
862.844	21960
862.976	22101
863.108	21991
863.24	22310
863.372	21827
863.504	21994
863.636	21937
863.768	21983
863.9	21937
864.032	21861
864.164	21934
864.296	21937
864.428	22051
864.559	21945
864.691	21964
864.823	22006
864.954	21907
865.086	21880
865.217	21884
865.349	21732
865.48	21781
865.612	21956
865.743	21937
865.875	21911
866.006	21747
866.137	21793
866.269	21812
866.4	21892
866.531	21717
866.662	21671
866.793	21778
866.924	21743
867.055	21770
867.186	21812
867.317	21705
867.448	21701
867.579	21622
867.71	21709
867.841	21641
867.972	21800
868.103	21705
868.233	21755
868.364	21732
868.495	21854
868.625	21903
868.756	21991
868.886	21937
869.017	22025
869.147	22131
869.278	22067
869.408	22013
869.539	22097
869.669	21983
869.799	21987
869.929	22093
870.06	22044
870.19	22261
870.32	22265
870.45	22489
870.58	22375
870.71	22504
870.84	22432
870.97	22409
871.1	22200
871.23	22546
871.36	22535
871.489	22493
871.619	22447
871.749	22478
871.879	22554
872.008	22645
872.138	22641
872.267	22592
872.397	22352
872.526	22356
872.656	22424
872.785	22306
872.915	22573
873.044	22736
873.173	22596
873.303	22721
873.432	22561
873.561	22702
873.69	22603
873.819	22546
873.948	22694
874.077	22649
874.206	22542
874.335	22740
874.464	22778
874.593	22866
874.722	22889
874.851	22801
874.979	22930
875.108	22862
875.237	22869
875.365	22691
875.494	22805
875.623	22824
875.751	22736
875.88	22919
876.008	23003
876.136	22942
876.265	23174
876.393	23318
876.521	23273
876.65	23143
876.778	23204
876.906	23060
877.034	23143
877.162	23113
877.29	23079
877.418	23193
877.546	23086
877.674	23174
877.802	23071
877.93	23162
878.058	23071
878.185	23022
878.313	23151
878.441	23109
878.568	22995
878.696	23079
878.824	23189
878.951	23216
879.079	23345
879.206	23547
879.333	23265
879.461	23318
879.588	23284
879.715	23280
879.842	23436
879.97	23159
880.097	22995
880.224	22877
880.351	23041
880.478	22968
880.605	22911
880.732	22915
880.859	23143
880.986	22900
881.112	22892
881.239	22679
881.366	22580
881.493	22596
881.619	22557
881.746	22516
881.872	22481
881.999	22508
882.125	22352
882.252	22592
882.378	22531
882.505	22637
882.631	22428
882.757	22249
882.883	22280
883.01	22276
883.136	22207
883.262	22139
883.388	22074
883.514	22265
883.64	22158
883.766	22109
883.892	21918
884.018	22105
884.143	22090
884.269	22116
884.395	21949
884.52	21823
884.646	21819
884.772	21854
884.897	21785
885.023	21880
885.148	21857
885.274	22002
885.399	21869
885.524	21857
885.65	21918
885.775	21895
885.9	21819
886.025	21998
886.15	21945
886.275	21880
886.4	21816
886.525	21850
886.65	21816
886.775	21808
886.9	21994
887.025	22070
887.149	21823
887.274	21713
887.399	21686
887.523	21625
887.648	21553
887.773	21572
887.897	21766
888.021	21595
888.146	21583
888.27	21694
888.395	21747
888.519	21732
888.643	21614
888.767	21694
888.891	21656
889.015	21412
889.139	21431
889.263	21515
889.387	21412
889.511	21644
889.635	21637
889.759	21344
889.883	21207
890.006	21382
890.13	21447
890.254	21237
890.377	21329
890.501	21241
890.624	21203
890.748	21188
890.871	21074
890.995	20979
891.118	20925
891.241	21077
891.364	21001
891.488	21020
891.611	20933
891.734	20906
891.857	21020
891.98	21085
892.103	20982
892.226	20929
892.349	20876
892.471	20720
892.594	20830
892.717	20785
892.839	20769
892.962	20807
893.085	20895
893.207	20899
893.33	20731
893.452	20689
893.575	20845
893.697	20781
893.819	21009
893.941	21047
894.064	21001
894.186	20815
894.308	20777
894.43	20853
894.552	20998
894.674	20872
894.796	20781
894.918	20861
895.04	20735
895.161	20861
895.283	20853
895.405	20902
895.526	20842
895.648	20750
895.769	20735
895.891	20716
896.012	20769
896.134	20853
896.255	20804
896.376	20659
896.498	20716
896.619	20891
896.74	20750
896.861	20845
896.982	21116
897.103	21245
897.224	20979
897.345	21039
897.466	21024
897.587	21036
897.708	21096
897.828	21009
897.949	20899
898.07	20880
898.19	20933
898.311	21184
898.431	20944
898.552	21036
898.672	20994
898.792	21020
898.913	20990
899.033	20880
899.153	20914
899.273	20708
899.393	20758
899.513	20746
899.633	20743
899.753	20705
899.873	20689
899.993	20762
900.113	20644
900.232	20670
900.352	20568
900.472	20434
900.591	20568
900.711	20564
900.83	20423
900.95	20552
901.069	20579
901.189	20328
901.308	20195
901.427	20012
901.546	20126
901.665	20153
901.784	20024
901.904	19986
902.023	19925
902.141	19616
902.26	19639
902.379	19753
902.498	19632
902.617	19544
902.735	19582
902.854	19601
902.973	19537
903.091	19343
903.21	19164
903.328	19285
903.446	19084
903.565	19126
903.683	19076
903.801	18962
903.919	18928
904.038	19080
904.156	18947
904.274	18947
904.392	18810
904.51	18859
904.627	18776
904.745	18806
904.863	18814
904.981	18677
905.098	18475
905.216	18544
905.334	18490
905.451	18506
905.569	18342
905.686	18544
905.803	18559
905.921	18304
906.038	18289
906.155	18319
906.272	18136
906.389	18197
906.506	18068
906.623	18114
906.74	18125
906.857	17954
906.974	17927
907.091	18053
907.208	18057
907.324	18068
907.441	17973
907.557	17786
907.674	17710
907.79	17710
907.907	17657
908.023	17672
908.139	17695
908.256	17737
908.372	17649
908.488	17539
908.604	17562
908.72	17566
908.836	17410
908.952	17410
909.068	17410
909.184	17562
909.3	17471
909.415	17493
909.531	17444
909.647	17155
909.762	17303
909.878	17143
909.993	17223
910.108	16999
910.224	17147
910.339	17102
910.454	17094
910.57	17060
910.685	16866
910.8	17147
910.915	17170
911.03	16976
911.145	16839
911.259	16691
911.374	16683
911.489	16660
911.604	16611
911.718	16428
911.833	16573
911.947	16398
912.062	16257
912.176	16394
912.291	16546
912.405	16402
912.519	16607
912.633	16603
912.748	16493
912.862	16447
912.976	16276
913.09	16207
913.204	16249
913.318	16192
913.431	16333
913.545	16405
913.659	16344
913.772	16242
913.886	16078
914	16116
914.113	16082
914.226	16192
914.34	16112
914.453	15911
914.566	16013
914.68	15979
914.793	15899
914.906	15759
915.019	15762
915.132	15679
915.245	15698
915.358	15648
915.47	15576
915.583	15633
915.696	15698
915.809	15819
915.921	15759
916.034	15660
916.146	15542
916.259	15606
916.371	15656
916.483	15523
916.595	15443
916.708	15454
916.82	15545
916.932	15420
917.044	15443
917.156	15447
917.268	15218
917.38	15401
917.491	15199
917.603	15317
917.715	15291
917.826	15435
917.938	15222
918.049	14918
918.161	15188
918.272	15405
918.384	15264
918.495	15070
918.606	15043
918.717	15036
918.828	14986
918.939	15074
919.05	14960
919.161	15028
919.272	14834
919.383	15020
919.494	15009
919.604	15260
919.715	14948
919.826	14929
919.936	14918
920.047	15043
920.157	15062
920.267	15184
920.378	14941
920.488	14960
920.598	15241
920.708	15241
920.818	15055
920.928	15097
921.038	15119
921.148	15279
921.258	14971
921.368	14864
921.477	14724
921.587	14800
921.697	14629
921.806	14705
921.916	14632
922.025	14358
922.134	14221
922.244	14278
922.353	14366
922.462	14267
922.571	14107
922.68	14012
922.789	13940
922.898	13936
923.007	13970
923.116	13986
923.224	13921
923.333	13947
923.442	13845
923.55	13799
923.659	13921
923.767	13902
923.876	13738
923.984	13826
924.092	13712
924.201	13780
924.309	13704
924.417	13677
924.525	13609
924.633	13704
924.741	14667
924.849	13422
924.956	13571
925.064	13369
925.172	13301
925.279	13396
925.387	13381
925.494	13362
925.602	13468
925.709	13483
925.816	13213
925.924	13403
926.031	13460
926.138	13339
926.245	13377
926.352	13225
926.459	13308
926.566	13251
926.673	13217
926.779	13053
926.886	13053
926.993	12981
927.099	12901
927.206	12947
927.312	12958
927.419	12939
927.525	12905
927.631	12875
927.737	12814
927.843	12665
927.95	12654
928.056	12715
928.162	12772
928.267	12837
928.373	13221
928.479	12856
928.585	12612
928.69	12734
928.796	12669
928.901	12616
929.007	12452
929.112	12608
929.218	12593
929.323	12498
929.428	12506
929.533	12669
929.638	12380
929.743	12414
929.848	12460
929.953	12448
930.058	12277
930.163	12175
930.267	12190
930.372	12327
930.477	12079
930.581	12384
930.685	12247
930.79	11958
930.894	12049
930.998	12060
931.103	12117
931.207	11779
931.311	11775
931.415	11604
931.519	11414
931.623	11444
