Data from test_V78500241_2608.txt Node
Date: Fri Mar 25 15:28:01 CST 2022
User: usil
Spectrometer: V785-0024
Trigger mode: 0
Integration Time (sec): 4.000000E-1
Scans to average: 1
Nonlinearity correction enabled: false
Boxcar width: 0
Storing dark spectrum: false
XAxis mode: Wavelengths
Number of Pixels in Spectrum: 1024
>>>>>Begin Spectral Data<<<<<
801.071	27093
801.214	27055
801.356	26910
801.499	26914
801.641	26872
801.783	26739
801.926	26823
802.068	26838
802.211	26701
802.353	26609
802.496	26355
802.638	26328
802.78	26237
802.923	26358
803.065	26149
803.208	26092
803.35	26252
803.492	26613
803.635	26408
803.777	26419
803.919	26549
804.061	26689
804.204	26606
804.346	26271
804.488	26282
804.63	26590
804.773	26438
804.915	26393
805.057	26560
805.199	26541
805.341	26560
805.483	26617
805.626	26530
805.768	26590
805.91	26587
806.052	26655
806.194	26541
806.336	26636
806.478	26682
806.62	26537
806.762	26758
806.904	26788
807.046	27039
807.188	27020
807.33	26998
807.472	27017
807.614	26990
807.756	26845
807.898	26823
808.04	26769
808.182	26716
808.324	26689
808.465	26948
808.607	27104
808.749	27119
808.891	27313
809.033	27329
809.174	27192
809.316	27310
809.458	27272
809.6	27165
809.741	27329
809.883	27287
810.025	27496
810.166	27519
810.308	27591
810.45	27424
810.591	27435
810.733	27176
810.875	27188
811.016	27058
811.158	26982
811.299	27351
811.441	27363
811.582	27370
811.724	27294
811.865	27131
812.007	26880
812.148	27135
812.29	27237
812.431	27344
812.573	27504
812.714	27488
812.855	27686
812.997	27873
813.138	27831
813.279	27876
813.421	27663
813.562	27603
813.703	27447
813.845	27237
813.986	27131
814.127	26971
814.268	26796
814.41	26956
814.551	26720
814.692	26944
814.833	26750
814.974	26788
815.115	26811
815.256	26602
815.397	26792
815.539	26697
815.68	26492
815.821	26598
815.962	26594
816.103	26693
816.244	26431
816.385	26431
816.526	26294
816.666	26259
816.807	26088
816.948	26096
817.089	26149
817.23	26073
817.371	26149
817.512	26092
817.653	26122
817.793	26069
817.934	26088
818.075	26069
818.216	26134
818.356	26073
818.497	26069
818.638	25803
818.778	25776
818.919	25765
819.06	25970
819.2	25902
819.341	26062
819.481	26161
819.622	26282
819.762	26370
819.903	26427
820.043	26221
820.184	26305
820.324	26084
820.465	26218
820.605	26240
820.746	26202
820.886	26001
821.026	26149
821.167	26096
821.307	26259
821.447	26115
821.588	26092
821.728	25833
821.868	25704
822.008	25605
822.149	25533
822.289	25643
822.429	25350
822.569	25179
822.709	25133
822.849	25160
822.99	25156
823.13	25023
823.27	25038
823.41	24992
823.55	24772
823.69	25000
823.83	24802
823.97	24806
824.11	24658
824.25	24738
824.389	24627
824.529	24707
824.669	24642
824.809	24730
824.949	24837
825.089	24840
825.228	24798
825.368	24372
825.508	24521
825.648	24589
825.787	24589
825.927	24589
826.067	24441
826.206	24479
826.346	24601
826.485	24677
826.625	24551
826.765	24677
826.904	24665
827.044	24353
827.183	24209
827.323	24296
827.462	24395
827.601	24315
827.741	24296
827.88	24376
828.02	24091
828.159	24220
828.298	24194
828.437	24384
828.577	24098
828.716	24407
828.855	24129
828.994	23973
829.134	24098
829.273	24018
829.412	23973
829.551	23923
829.69	23942
829.829	24072
829.968	24079
830.107	24095
830.246	24064
830.385	23950
830.524	23802
830.663	23726
830.802	23722
830.941	23554
831.08	23600
831.219	23710
831.357	23691
831.496	23817
831.635	23585
831.774	23524
831.913	23429
832.051	23284
832.19	23322
832.329	23429
832.467	23315
832.606	23330
832.744	23193
832.883	23242
833.022	23284
833.16	23261
833.299	23269
833.437	23288
833.576	23307
833.714	23311
833.852	23402
833.991	23258
834.129	23334
834.267	23505
834.406	23433
834.544	23493
834.682	23467
834.821	23311
834.959	23459
835.097	23345
835.235	23360
835.373	23360
835.511	23330
835.65	23193
835.788	23113
835.926	23086
836.064	22949
836.202	23022
836.34	23239
836.478	23379
836.615	23124
836.753	23193
836.891	23284
837.029	23326
837.167	23109
837.305	23041
837.443	23041
837.58	23018
837.718	23029
837.856	23155
837.993	22999
838.131	23037
838.269	22866
838.406	22911
838.544	22812
838.681	22801
838.819	22645
838.956	22611
839.094	22569
839.231	22637
839.369	22615
839.506	22839
839.643	22782
839.781	22516
839.918	22569
840.055	22599
840.193	22588
840.33	22500
840.467	22497
840.604	22622
840.742	22862
840.879	22371
841.016	22546
841.153	22329
841.29	22523
841.427	22481
841.564	22577
841.701	22531
841.838	22481
841.975	22306
842.112	22466
842.249	22352
842.385	22265
842.522	22497
842.659	22360
842.796	22287
842.933	22253
843.069	22188
843.206	22310
843.343	22276
843.479	22177
843.616	22143
843.752	21899
843.889	22078
844.025	22120
844.162	21968
844.298	21987
844.435	22021
844.571	21873
844.708	21956
844.844	22105
844.98	22101
845.117	22143
845.253	22029
845.389	21911
845.525	21827
845.661	21793
845.798	21656
845.934	21778
846.07	21739
846.206	21880
846.342	21785
846.478	21778
846.614	21591
846.75	21408
846.886	21534
847.022	21557
847.158	21378
847.294	21515
847.429	21591
847.565	21378
847.701	21736
847.837	21291
847.972	21169
848.108	21310
848.244	21477
848.379	21112
848.515	21173
848.65	21119
848.786	21089
848.921	21055
849.057	21119
849.192	21135
849.328	21062
849.463	21043
849.598	21081
849.734	20960
849.869	20990
850.004	20727
850.14	20842
850.275	20781
850.41	20659
850.545	20746
850.68	20819
850.815	20868
850.95	20933
851.085	21009
851.22	20967
851.355	20887
851.49	20998
851.625	20769
851.76	20857
851.895	20883
852.03	20807
852.165	20853
852.299	20891
852.434	21032
852.569	20849
852.703	20941
852.838	20781
852.973	21043
853.107	20918
853.242	20697
853.376	20743
853.511	20632
853.645	20564
853.78	20697
853.914	20754
854.048	20781
854.183	20686
854.317	20731
854.451	20857
854.585	20731
854.72	20621
854.854	20689
854.988	20617
855.122	20609
855.256	20484
855.39	20678
855.524	20667
855.658	20804
855.792	20659
855.926	20678
856.06	20640
856.194	20739
856.327	20609
856.461	20552
856.595	20434
856.729	20659
856.862	20773
856.996	20708
857.13	20720
857.263	20712
857.397	20807
857.53	20670
857.664	20777
857.797	20682
857.931	20762
858.064	20796
858.197	20762
858.331	20636
858.464	20556
858.597	20533
858.731	20731
858.864	20598
858.997	20526
859.13	20579
859.263	20727
859.396	20754
859.529	20640
859.662	20575
859.795	20598
859.928	20796
860.061	20823
860.194	20921
860.327	20792
860.46	20754
860.592	20743
860.725	20887
860.858	20788
860.99	20670
861.123	20632
861.256	20579
861.388	20758
861.521	21374
861.653	20530
861.786	20454
861.918	20552
862.05	20568
862.183	20602
862.315	20659
862.447	20590
862.58	20454
862.712	20301
862.844	20438
862.976	20518
863.108	20431
863.24	20838
863.372	20351
863.504	20431
863.636	20457
863.768	20393
863.9	20332
864.032	20267
864.164	20404
864.296	20438
864.428	20434
864.559	20434
864.691	20488
864.823	20495
864.954	20256
865.086	20389
865.217	20320
865.349	20221
865.48	20358
865.612	20305
865.743	20366
865.875	20248
866.006	20233
866.137	20256
866.269	20256
866.4	20301
866.531	20157
866.662	20214
866.793	20225
866.924	20130
867.055	20332
867.186	20252
867.317	20122
867.448	20092
867.579	20202
867.71	20126
867.841	20237
867.972	20240
868.103	20221
868.233	20275
868.364	20233
868.495	20328
868.625	20389
868.756	20469
868.886	20389
869.017	20336
869.147	20560
869.278	20674
869.408	20423
869.539	20476
869.669	20644
869.799	20648
869.929	20678
870.06	20609
870.19	20857
870.32	20758
870.45	20800
870.58	20765
870.71	20982
870.84	20994
870.97	20864
871.1	20861
871.23	20971
871.36	21116
871.489	21013
871.619	21051
871.749	21058
871.879	21112
872.008	21176
872.138	21093
872.267	21096
872.397	21028
872.526	20845
872.656	20925
872.785	20792
872.915	21047
873.044	21127
873.173	21081
873.303	21161
873.432	21138
873.561	21249
873.69	21161
873.819	21146
873.948	21135
874.077	21142
874.206	21024
874.335	21058
874.464	21093
874.593	21287
874.722	21340
874.851	21218
874.979	21401
875.108	21351
875.237	21325
875.365	21207
875.494	21249
875.623	21378
875.751	21412
875.88	21321
876.008	21519
876.136	21481
876.265	21648
876.393	21835
876.521	21743
876.65	21876
876.778	21804
876.906	21663
877.034	21679
877.162	21759
877.29	21660
877.418	21728
877.546	21660
877.674	21618
877.802	21660
877.93	21663
878.058	21690
878.185	21469
878.313	21606
878.441	21751
878.568	21610
878.696	21549
878.824	21679
878.951	21724
879.079	21831
879.206	21994
879.333	21812
879.461	21785
879.588	21766
879.715	21838
879.842	21968
879.97	21728
880.097	21500
880.224	21462
880.351	21488
880.478	21515
880.605	21477
880.732	21534
880.859	21766
880.986	21591
881.112	21542
881.239	21397
881.366	21294
881.493	21199
881.619	21096
881.746	21138
881.872	21009
881.999	20963
882.125	21112
882.252	21077
882.378	21077
882.505	21066
882.631	20986
882.757	20830
882.883	20895
883.01	20838
883.136	20693
883.262	20735
883.388	20739
883.514	20785
883.64	20819
883.766	20689
883.892	20625
884.018	20571
884.143	20823
884.269	20773
884.395	20575
884.52	20423
884.646	20499
884.772	20408
884.897	20370
885.023	20377
885.148	20606
885.274	20636
885.399	20571
885.524	20408
885.65	20431
885.775	20533
885.9	20442
886.025	20617
886.15	20473
886.275	20389
886.4	20412
886.525	20404
886.65	20366
886.775	20240
886.9	20579
887.025	20773
887.149	20385
887.274	20142
887.399	20187
887.523	20347
887.648	20294
887.773	20039
887.897	20355
888.021	20187
888.146	20195
888.27	20244
888.395	20336
888.519	20218
888.643	20218
888.767	20263
888.891	20107
889.015	20035
889.139	20035
889.263	20046
889.387	20256
889.511	20259
889.635	20199
889.759	19989
889.883	20077
890.006	20100
890.13	20237
890.254	19921
890.377	19993
890.501	19761
890.624	19761
890.748	19734
890.871	19693
890.995	19575
891.118	19624
891.241	19746
891.364	19544
891.488	19662
891.611	19674
891.734	19563
891.857	19708
891.98	19609
892.103	19712
892.226	19624
892.349	19521
892.471	19472
892.594	19548
892.717	19559
892.839	19590
892.962	19616
893.085	19537
893.207	19594
893.33	19502
893.452	19396
893.575	19635
893.697	19594
893.819	19674
893.941	19784
894.064	19742
894.186	19499
894.308	19487
894.43	19655
894.552	19666
894.674	19677
894.796	19510
894.918	19540
895.04	19495
895.161	19556
895.283	19487
895.405	19415
895.526	19544
895.648	19430
895.769	19613
895.891	19552
896.012	19731
896.134	19476
896.255	19609
896.376	19483
896.498	19639
896.619	19548
896.74	19552
896.861	19586
896.982	19845
897.103	19978
897.224	19803
897.345	19753
897.466	19746
897.587	19651
897.708	19830
897.828	19860
897.949	19597
898.07	19613
898.19	19826
898.311	19731
898.431	19727
898.552	19769
898.672	19875
898.792	19883
898.913	19753
899.033	19655
899.153	19502
899.273	19441
899.393	19597
899.513	19616
899.633	19548
899.753	19480
899.873	19441
899.993	19597
900.113	19537
900.232	19480
900.352	19434
900.472	19339
900.591	19190
900.711	19362
900.83	19179
900.95	19453
901.069	19457
901.189	19137
901.308	19012
901.427	18932
901.546	18856
901.665	18909
901.784	18913
901.904	18787
902.023	18722
902.141	18471
902.26	18498
902.379	18467
902.498	18372
902.617	18365
902.735	18429
902.854	18281
902.973	18380
903.091	18083
903.21	18110
903.328	18102
903.446	18038
903.565	17912
903.683	17885
903.801	17828
903.919	17863
904.038	17893
904.156	17623
904.274	17741
904.392	17615
904.51	17695
904.627	17672
904.745	17741
904.863	17710
904.981	17558
905.098	17372
905.216	17330
905.334	17360
905.451	17387
905.569	17277
905.686	17376
905.803	17410
905.921	17102
906.038	17231
906.155	17140
906.272	17098
906.389	17102
906.506	16862
906.623	16885
906.74	16854
906.857	16717
906.974	16778
907.091	16953
907.208	17003
907.324	16869
907.441	16725
907.557	16698
907.674	16478
907.79	16588
907.907	16577
908.023	16573
908.139	16656
908.256	16478
908.372	16554
908.488	16451
908.604	16363
908.72	16314
908.836	16295
908.952	16284
909.068	16390
909.184	16474
909.3	16348
909.415	16417
909.531	16417
909.647	16120
909.762	16029
909.878	16036
909.993	16063
910.108	15972
910.224	16051
910.339	16017
910.454	15880
910.57	15850
910.685	15766
910.8	16071
910.915	15983
911.03	15953
911.145	15667
911.259	15762
911.374	15660
911.489	15671
911.604	15538
911.718	15386
911.833	15389
911.947	15428
912.062	15256
912.176	15469
912.291	15462
912.405	15439
912.519	15644
912.633	15789
912.748	15466
912.862	15397
912.976	15237
913.09	15085
913.204	15211
913.318	15161
913.431	15382
913.545	15340
913.659	15348
913.772	15272
913.886	15123
914	15013
914.113	15180
914.226	15138
914.34	15135
914.453	14952
914.566	15028
914.68	14861
914.793	14990
914.906	14739
915.019	14678
915.132	14655
915.245	14667
915.358	14735
915.47	14682
915.583	14697
915.696	14754
915.809	14788
915.921	14781
916.034	14606
916.146	14549
916.259	14526
916.371	14594
916.483	14571
916.595	14446
916.708	14518
916.82	14499
916.932	14427
917.044	14473
917.156	14438
917.268	14469
917.38	14358
917.491	14309
917.603	14427
917.715	14454
917.826	14309
917.938	14202
918.049	14309
918.161	14263
918.272	14431
918.384	14332
918.495	14313
918.606	14103
918.717	14123
918.828	14183
918.939	14058
919.05	14016
919.161	14138
919.272	13826
919.383	13951
919.494	14153
919.604	14267
919.715	14103
919.826	13963
919.936	14046
920.047	14088
920.157	14020
920.267	14263
920.378	14157
920.488	14084
920.598	14187
920.708	14324
920.818	14202
920.928	14176
921.038	14256
921.148	14393
921.258	13974
921.368	13947
921.477	13902
921.587	13765
921.697	13658
921.806	13852
921.916	13632
922.025	13552
922.134	13480
922.244	13480
922.353	13521
922.462	13346
922.571	13255
922.68	13069
922.789	13072
922.898	13183
923.007	13004
923.116	13152
923.224	13000
923.333	13034
923.442	13061
923.55	12916
923.659	12962
923.767	13046
923.876	12977
923.984	12981
924.092	12863
924.201	12783
924.309	12913
924.417	12878
924.525	12738
924.633	12810
924.741	13662
924.849	12585
924.956	12768
925.064	12620
925.172	12525
925.279	12597
925.387	12566
925.494	12601
925.602	12658
925.709	12604
925.816	12456
925.924	12479
926.031	12608
926.138	12433
926.245	12509
926.352	12441
926.459	12582
926.566	12566
926.673	12448
926.779	12270
926.886	12311
926.993	12201
927.099	12095
927.206	12079
927.312	11980
927.419	12186
927.525	12148
927.631	12117
927.737	12003
927.843	11916
927.95	11767
928.056	11958
928.162	11802
928.267	12030
928.373	12426
928.479	11992
928.585	11809
928.69	11908
928.796	11916
928.901	11901
929.007	11760
929.112	11889
929.218	11832
929.323	11707
929.428	11733
929.533	11707
929.638	11615
929.743	11684
929.848	11786
929.953	11592
930.058	11520
930.163	11326
930.267	11433
930.372	11505
930.477	11387
930.581	11570
930.685	11497
930.79	11303
930.894	11280
930.998	11261
931.103	11372
931.207	11037
931.311	10949
931.415	10805
931.519	10698
931.623	10660
