Data from test_V78500241_338.txt Node
Date: Fri Mar 25 15:12:12 CST 2022
User: usil
Spectrometer: V785-0024
Trigger mode: 0
Integration Time (sec): 4.000000E-1
Scans to average: 1
Nonlinearity correction enabled: false
Boxcar width: 0
Storing dark spectrum: false
XAxis mode: Wavelengths
Number of Pixels in Spectrum: 1024
>>>>>Begin Spectral Data<<<<<
801.071	27058
801.214	26994
801.356	26720
801.499	26686
801.641	26590
801.783	26552
801.926	26678
802.068	26678
802.211	26465
802.353	26355
802.496	26317
802.638	26229
802.78	26214
802.923	26035
803.065	25982
803.208	26157
803.35	26278
803.492	26298
803.635	26381
803.777	26206
803.919	26377
804.061	26522
804.204	26305
804.346	26244
804.488	26199
804.63	26221
804.773	26221
804.915	26221
805.057	26237
805.199	26233
805.341	26492
805.483	26400
805.626	26278
805.768	26229
805.91	26461
806.052	26480
806.194	26259
806.336	26469
806.478	26366
806.62	26317
806.762	26545
806.904	26724
807.046	26807
807.188	26785
807.33	26819
807.472	26743
807.614	26777
807.756	26826
807.898	26625
808.04	26545
808.182	26705
808.324	26655
808.465	26632
808.607	26811
808.749	26967
808.891	27028
809.033	27135
809.174	27024
809.316	26990
809.458	26998
809.6	27070
809.741	26948
809.883	27131
810.025	27313
810.166	27329
810.308	27199
810.45	27161
810.591	27272
810.733	27142
810.875	26891
811.016	26811
811.158	26834
811.299	27089
811.441	27055
811.582	27043
811.724	26929
811.865	26872
812.007	26998
812.148	26967
812.29	27036
812.431	26975
812.573	27279
812.714	27180
812.855	27504
812.997	27568
813.138	27728
813.279	27637
813.421	27462
813.562	27477
813.703	27332
813.845	27157
813.986	26788
814.127	26727
814.268	26727
814.41	26796
814.551	26545
814.692	26678
814.833	26575
814.974	26545
815.115	26670
815.256	26278
815.397	26453
815.539	26545
815.68	26484
815.821	26415
815.962	26476
816.103	26431
816.244	26286
816.385	26282
816.526	26069
816.666	26096
816.807	25917
816.948	25917
817.089	26073
817.23	25913
817.371	25818
817.512	25982
817.653	25986
817.793	25947
817.934	25921
818.075	25845
818.216	25970
818.356	25784
818.497	25856
818.638	25632
818.778	25487
818.919	25472
819.06	25670
819.2	25799
819.341	25833
819.481	25898
819.622	25887
819.762	26210
819.903	26115
820.043	25970
820.184	26024
820.324	26092
820.465	26077
820.605	25982
820.746	25974
820.886	25788
821.026	25932
821.167	25932
821.307	25970
821.447	25894
821.588	25776
821.728	25715
821.868	25613
822.008	25384
822.149	25384
822.289	25449
822.429	25175
822.569	24996
822.709	24886
822.849	24943
822.99	24897
823.13	24795
823.27	24795
823.41	24677
823.55	24582
823.69	24715
823.83	24544
823.97	24578
824.11	24388
824.25	24509
824.389	24456
824.529	24460
824.669	24505
824.809	24601
824.949	24536
825.089	24601
825.228	24475
825.368	24403
825.508	24285
825.648	24365
825.787	24300
825.927	24323
826.067	24369
826.206	24304
826.346	24270
826.485	24254
826.625	24315
826.765	24395
826.904	24323
827.044	24254
827.183	24243
827.323	24076
827.462	24064
827.601	23999
827.741	23935
827.88	24205
828.02	23958
828.159	24026
828.298	24133
828.437	24041
828.577	24026
828.716	24155
828.855	24041
828.994	23657
829.134	23874
829.273	23737
829.412	23805
829.551	23752
829.69	23748
829.829	23851
829.968	23843
830.107	23866
830.246	23901
830.385	23710
830.524	23703
830.663	23562
830.802	23406
830.941	23497
831.08	23337
831.219	23436
831.357	23581
831.496	23589
831.635	23463
831.774	23356
831.913	23181
832.051	23239
832.19	23269
832.329	23288
832.467	23200
832.606	23064
832.744	23121
832.883	23197
833.022	23037
833.16	23067
833.299	23159
833.437	23231
833.576	23200
833.714	23105
833.852	23273
833.991	23204
834.129	23242
834.267	23311
834.406	23185
834.544	23181
834.682	23067
834.821	23216
834.959	23223
835.097	23003
835.235	23178
835.373	23239
835.511	23094
835.65	22995
835.788	23193
835.926	22911
836.064	22847
836.202	22904
836.34	23006
836.478	23071
836.615	23003
836.753	23056
836.891	23140
837.029	23029
837.167	22976
837.305	23014
837.443	22957
837.58	22873
837.718	23014
837.856	23003
837.993	22748
838.131	22968
838.269	22824
838.406	22843
838.544	22862
838.681	22527
838.819	22500
838.956	22329
839.094	22371
839.231	22360
839.369	22596
839.506	22793
839.643	22615
839.781	22527
839.918	22363
840.055	22295
840.193	22337
840.33	22257
840.467	22303
840.604	22402
840.742	22459
840.879	22238
841.016	22154
841.153	22124
841.29	22409
841.427	22287
841.564	22207
841.701	22322
841.838	22314
841.975	22055
842.112	22177
842.249	22101
842.385	22059
842.522	22371
842.659	22200
842.796	22090
842.933	22082
843.069	22055
843.206	21911
843.343	22063
843.479	21994
843.616	21956
843.752	21873
843.889	21911
844.025	21964
844.162	21766
844.298	21937
844.435	21778
844.571	21861
844.708	21983
844.844	22074
844.98	22013
845.117	21934
845.253	21850
845.389	21759
845.525	21717
845.661	21580
845.798	21526
845.934	21603
846.07	21477
846.206	21644
846.342	21656
846.478	21450
846.614	21302
846.75	21199
846.886	21340
847.022	21370
847.158	21275
847.294	21272
847.429	21367
847.565	21336
847.701	21507
847.837	20986
847.972	20910
848.108	21252
848.244	21104
848.379	20960
848.515	20861
848.65	21039
848.786	20876
848.921	20807
849.057	21055
849.192	20960
849.328	20941
849.463	20849
849.598	20769
849.734	20815
849.869	20773
850.004	20705
850.14	20617
850.275	20754
850.41	20594
850.545	20648
850.68	20644
850.815	20686
850.95	20724
851.085	20750
851.22	20716
851.355	20674
851.49	20701
851.625	20693
851.76	20667
851.895	20552
852.03	20609
852.165	20575
852.299	20750
852.434	20693
852.569	20606
852.703	20598
852.838	20765
852.973	20800
853.107	20914
853.242	20648
853.376	20461
853.511	20438
853.645	20511
853.78	20533
853.914	20549
854.048	20495
854.183	20442
854.317	20552
854.451	20701
854.585	20602
854.72	20438
854.854	20762
854.988	20461
855.122	20454
855.256	20237
855.39	20476
855.524	20636
855.658	20533
855.792	20476
855.926	20442
856.06	20621
856.194	20579
856.327	20488
856.461	20298
856.595	20473
856.729	20469
856.862	20629
856.996	20537
857.13	20640
857.263	20674
857.397	20587
857.53	20457
857.664	20503
857.797	20465
857.931	20594
858.064	20522
858.197	20621
858.331	20473
858.464	20469
858.597	20393
858.731	20374
858.864	20317
858.997	20484
859.13	20469
859.263	20507
859.396	20594
859.529	20427
859.662	20358
859.795	20457
859.928	20568
860.061	20499
860.194	20743
860.327	20522
860.46	20473
860.592	20575
860.725	20533
860.858	20579
860.99	20590
861.123	20476
861.256	20461
861.388	20571
861.521	21020
861.653	20423
861.786	20358
861.918	20301
862.05	20362
862.183	20389
862.315	20450
862.447	20446
862.58	20454
862.712	20256
862.844	20115
862.976	20244
863.108	20195
863.24	20667
863.372	20187
863.504	20252
863.636	20142
863.768	20180
863.9	20225
864.032	20256
864.164	20202
864.296	20240
864.428	20317
864.559	20214
864.691	20366
864.823	20347
864.954	20237
865.086	20259
865.217	20111
865.349	20016
865.48	20016
865.612	20043
865.743	20252
865.875	20126
866.006	20027
866.137	20016
866.269	20012
866.4	20115
866.531	20031
866.662	20027
866.793	20084
866.924	20020
867.055	20282
867.186	20142
867.317	19955
867.448	20050
867.579	20180
867.71	19944
867.841	20039
867.972	20103
868.103	20119
868.233	20062
868.364	19978
868.495	20084
868.625	20252
868.756	20267
868.886	20187
869.017	20271
869.147	20385
869.278	20423
869.408	20362
869.539	20259
869.669	20355
869.799	20377
869.929	20423
870.06	20450
870.19	20629
870.32	20655
870.45	20682
870.58	20621
870.71	20880
870.84	20750
870.97	20549
871.1	20682
871.23	20811
871.36	20872
871.489	20849
871.619	20743
871.749	20815
871.879	20872
872.008	21013
872.138	20788
872.267	20921
872.397	20838
872.526	20663
872.656	20735
872.785	20674
872.915	20925
873.044	21032
873.173	20883
873.303	20986
873.432	20979
873.561	20956
873.69	20842
873.819	20861
873.948	21051
874.077	20906
874.206	20963
874.335	20914
874.464	21020
874.593	21066
874.722	21188
874.851	21199
874.979	21233
875.108	21264
875.237	21135
875.365	21074
875.494	21009
875.623	21173
875.751	21150
875.88	21298
876.008	21287
876.136	21401
876.265	21504
876.393	21759
876.521	21538
876.65	21603
876.778	21557
876.906	21526
877.034	21496
877.162	21511
877.29	21412
877.418	21504
877.546	21424
877.674	21496
877.802	21595
877.93	21488
878.058	21477
878.185	21374
878.313	21496
878.441	21466
878.568	21344
878.696	21439
878.824	21644
878.951	21595
879.079	21728
879.206	21705
879.333	21663
879.461	21538
879.588	21675
879.715	21648
879.842	21709
879.97	21545
880.097	21329
880.224	21367
880.351	21298
880.478	21439
880.605	21283
880.732	21294
880.859	21610
880.986	21264
881.112	21348
881.239	21287
881.366	21066
881.493	21009
881.619	20868
881.746	21028
881.872	20971
881.999	20880
882.125	20743
882.252	20880
882.378	20842
882.505	20967
882.631	20686
882.757	20606
882.883	20716
883.01	20617
883.136	20632
883.262	20465
883.388	20438
883.514	20503
883.64	20735
883.766	20590
883.892	20473
884.018	20355
884.143	20697
884.269	20636
884.395	20461
884.52	20271
884.646	20244
884.772	20244
884.897	20256
885.023	20233
885.148	20305
885.274	20412
885.399	20278
885.524	20275
885.65	20294
885.775	20347
885.9	20358
886.025	20320
886.15	20412
886.275	20122
886.4	20183
886.525	20278
886.65	20172
886.775	20252
886.9	20377
887.025	20530
887.149	20210
887.274	20187
887.399	20081
887.523	20058
887.648	20043
887.773	20069
887.897	20084
888.021	20138
888.146	20092
888.27	20096
888.395	20164
888.519	20084
888.643	20199
888.767	20092
888.891	19890
889.015	19890
889.139	19784
889.263	19909
889.387	19947
889.511	20043
889.635	19906
889.759	19814
889.883	19837
890.006	19795
890.13	19795
890.254	19864
890.377	19811
890.501	19628
890.624	19616
890.748	19719
890.871	19483
890.995	19430
891.118	19362
891.241	19487
891.364	19453
891.488	19464
891.611	19491
891.734	19457
891.857	19521
891.98	19400
892.103	19449
892.226	19468
892.349	19403
892.471	19236
892.594	19320
892.717	19301
892.839	19308
892.962	19434
893.085	19495
893.207	19343
893.33	19213
893.452	19411
893.575	19457
893.697	19327
893.819	19422
893.941	19529
894.064	19495
894.186	19289
894.308	19354
894.43	19346
894.552	19419
894.674	19373
894.796	19282
894.918	19339
895.04	19350
895.161	19297
895.283	19331
895.405	19373
895.526	19438
895.648	19304
895.769	19327
895.891	19457
896.012	19400
896.134	19365
896.255	19487
896.376	19407
896.498	19346
896.619	19365
896.74	19453
896.861	19438
896.982	19674
897.103	19822
897.224	19639
897.345	19533
897.466	19514
897.587	19537
897.708	19875
897.828	19655
897.949	19426
898.07	19457
898.19	19480
898.311	19651
898.431	19601
898.552	19620
898.672	19685
898.792	19597
898.913	19533
899.033	19506
899.153	19384
899.273	19327
899.393	19365
899.513	19430
899.633	19430
899.753	19350
899.873	19190
899.993	19415
900.113	19343
900.232	19403
900.352	19259
900.472	19202
900.591	19152
900.711	19080
900.83	19190
900.95	19228
901.069	19240
901.189	19103
901.308	18833
901.427	18730
901.546	18703
901.665	18848
901.784	18715
901.904	18604
902.023	18677
902.141	18270
902.26	18220
902.379	18285
902.498	18330
902.617	18289
902.735	18319
902.854	18216
902.973	18232
903.091	18019
903.21	17882
903.328	17946
903.446	17832
903.565	17813
903.683	17809
903.801	17596
903.919	17695
904.038	17661
904.156	17497
904.274	17551
904.392	17547
904.51	17493
904.627	17501
904.745	17634
904.863	17532
904.981	17356
905.098	17128
905.216	17204
905.334	17349
905.451	17242
905.569	17193
905.686	17280
905.803	17193
905.921	17022
906.038	17102
906.155	17014
906.272	16923
906.389	16957
906.506	16759
906.623	16683
906.74	16812
906.857	16713
906.974	16630
907.091	16847
907.208	16987
907.324	16763
907.441	16653
907.557	16573
907.674	16470
907.79	16489
907.907	16489
908.023	16641
908.139	16440
908.256	16421
908.372	16462
908.488	16390
908.604	16329
908.72	16204
908.836	16295
908.952	16265
909.068	16215
909.184	16295
909.3	16135
909.415	16291
909.531	16181
909.647	15953
909.762	15979
909.878	15915
909.993	16029
910.108	15895
910.224	15876
910.339	15903
910.454	15819
910.57	15816
910.685	15698
910.8	15987
910.915	15865
911.03	15770
911.145	15572
911.259	15488
911.374	15469
911.489	15500
911.604	15408
911.718	15272
911.833	15272
911.947	15176
912.062	15036
912.176	15268
912.291	15317
912.405	15142
912.519	15435
912.633	15450
912.748	15351
912.862	15245
912.976	15074
913.09	15017
913.204	15074
913.318	15100
913.431	15165
913.545	15211
913.659	15195
913.772	15077
913.886	14906
914	15001
914.113	14956
914.226	15020
914.34	14929
914.453	14872
914.566	14986
914.68	14815
914.793	14785
914.906	14598
915.019	14587
915.132	14484
915.245	14564
915.358	14499
915.47	14511
915.583	14674
915.696	14564
915.809	14773
915.921	14727
916.034	14545
916.146	14488
916.259	14381
916.371	14495
916.483	14606
916.595	14366
916.708	14469
916.82	14412
916.932	14374
917.044	14431
917.156	14351
917.268	14263
917.38	14256
917.491	14214
917.603	14199
917.715	14278
917.826	14332
917.938	14202
918.049	14050
918.161	14161
918.272	14252
918.384	14309
918.495	14111
918.606	13982
918.717	13963
918.828	14065
918.939	14027
919.05	13890
919.161	13940
919.272	13772
919.383	13818
919.494	14126
919.604	14123
919.715	14073
919.826	13921
919.936	13974
920.047	14081
920.157	13902
920.267	14221
920.378	13936
920.488	13963
920.598	14183
920.708	14374
920.818	14180
920.928	14088
921.038	14362
921.148	14237
921.258	13875
921.368	13791
921.477	13704
921.587	13750
921.697	13594
921.806	13719
921.916	13571
922.025	13472
922.134	13365
922.244	13415
922.353	13335
922.462	13236
922.571	13114
922.68	13027
922.789	12977
922.898	13023
923.007	13015
923.116	13118
923.224	13053
923.333	12951
923.442	12935
923.55	12863
923.659	12871
923.767	12924
923.876	12738
923.984	12871
924.092	12760
924.201	12802
924.309	12753
924.417	12734
924.525	12719
924.633	12734
924.741	13556
924.849	12483
924.956	12707
925.064	12540
925.172	12460
925.279	12448
925.387	12570
925.494	12521
925.602	12612
925.709	12547
925.816	12441
925.924	12410
926.031	12532
926.138	12399
926.245	12369
926.352	12311
926.459	12498
926.566	12544
926.673	12330
926.779	12338
926.886	12266
926.993	12076
927.099	12030
927.206	11977
927.312	11946
927.419	12019
927.525	12076
927.631	12064
927.737	11874
927.843	11843
927.95	11836
928.056	11904
928.162	11908
928.267	11912
928.373	12448
928.479	11999
928.585	11779
928.69	11885
928.796	11908
928.901	11824
929.007	11497
929.112	11828
929.218	11764
929.323	11615
929.428	11573
929.533	11748
929.638	11547
929.743	11463
929.848	11539
929.953	11554
930.058	11467
930.163	11433
930.267	11330
930.372	11440
930.477	11216
930.581	11532
930.685	11356
930.79	11239
930.894	11212
930.998	11174
931.103	11326
931.207	11010
931.311	10942
931.415	10801
931.519	10615
931.623	10584
