Data from test_V78500241_3533.txt Node
Date: Fri Mar 25 15:34:27 CST 2022
User: usil
Spectrometer: V785-0024
Trigger mode: 0
Integration Time (sec): 4.000000E-1
Scans to average: 1
Nonlinearity correction enabled: false
Boxcar width: 0
Storing dark spectrum: false
XAxis mode: Wavelengths
Number of Pixels in Spectrum: 1024
>>>>>Begin Spectral Data<<<<<
801.071	27363
801.214	27291
801.356	27150
801.499	27051
801.641	26921
801.783	26929
801.926	26887
802.068	26868
802.211	26788
802.353	26697
802.496	26750
802.638	26545
802.78	26450
802.923	26461
803.065	26499
803.208	26396
803.35	26625
803.492	26552
803.635	26674
803.777	26617
803.919	26693
804.061	27062
804.204	26754
804.346	26648
804.488	26602
804.63	26609
804.773	26526
804.915	26648
805.057	26864
805.199	26670
805.341	26720
805.483	27028
805.626	26815
805.768	26754
805.91	26823
806.052	26792
806.194	26929
806.336	27074
806.478	26826
806.62	26956
806.762	26880
806.904	27039
807.046	27340
807.188	27302
807.33	27138
807.472	27332
807.614	27123
807.756	27173
807.898	26998
808.04	26918
808.182	26975
808.324	27127
808.465	27028
808.607	27348
808.749	27302
808.891	27359
809.033	27481
809.174	27443
809.316	27325
809.458	27408
809.6	27408
809.741	27466
809.883	27485
810.025	27781
810.166	27739
810.308	27789
810.45	27682
810.591	27618
810.733	27450
810.875	27325
811.016	27351
811.158	27408
811.299	27519
811.441	27618
811.582	27530
811.724	27492
811.865	27340
812.007	27431
812.148	27389
812.29	27549
812.431	27481
812.573	27675
812.714	27899
812.855	28101
812.997	27953
813.138	28234
813.279	28086
813.421	27994
813.562	27876
813.703	27816
813.845	27606
813.986	27469
814.127	27302
814.268	26937
814.41	27142
814.551	27028
814.692	27169
814.833	26998
814.974	26982
815.115	27028
815.256	26876
815.397	26994
815.539	26933
815.68	26811
815.821	26758
815.962	26975
816.103	26876
816.244	26807
816.385	26746
816.526	26583
816.666	26389
816.807	26252
816.948	26495
817.089	26423
817.23	26537
817.371	26358
817.512	26332
817.653	26298
817.793	26248
817.934	26278
818.075	26275
818.216	26332
818.356	26317
818.497	26103
818.638	26157
818.778	26069
818.919	26084
819.06	26161
819.2	26320
819.341	26476
819.481	26282
819.622	26465
819.762	26720
819.903	26511
820.043	26446
820.184	26434
820.324	26453
820.465	26598
820.605	26453
820.746	26465
820.886	26351
821.026	26408
821.167	26514
821.307	26530
821.447	26252
821.588	26355
821.728	26115
821.868	25883
822.008	25811
822.149	25833
822.289	25719
822.429	25495
822.569	25635
822.709	25460
822.849	25373
822.99	25289
823.13	25270
823.27	25308
823.41	25095
823.55	25141
823.69	25270
823.83	25198
823.97	25072
824.11	24935
824.25	24939
824.389	24844
824.529	25053
824.669	25050
824.809	25179
824.949	25114
825.089	24977
825.228	24966
825.368	24783
825.508	24840
825.648	24802
825.787	24905
825.927	24856
826.067	24738
826.206	24760
826.346	24882
826.485	24882
826.625	24863
826.765	24897
826.904	24871
827.044	24616
827.183	24540
827.323	24475
827.462	24593
827.601	24639
827.741	24620
827.88	24563
828.02	24509
828.159	24513
828.298	24612
828.437	24608
828.577	24483
828.716	24585
828.855	24395
828.994	24186
829.134	24372
829.273	24311
829.412	24152
829.551	24205
829.69	24273
829.829	24334
829.968	24330
830.107	24327
830.246	24327
830.385	24091
830.524	24224
830.663	24007
830.802	23961
830.941	23931
831.08	23832
831.219	23961
831.357	23961
831.496	24011
831.635	23946
831.774	23893
831.913	23798
832.051	23710
832.19	23684
832.329	23649
832.467	23623
832.606	23509
832.744	23425
832.883	23611
833.022	23604
833.16	23551
833.299	23672
833.437	23490
833.576	23592
833.714	23649
833.852	23668
833.991	23741
834.129	23745
834.267	23653
834.406	23710
834.544	23642
834.682	23501
834.821	23592
834.959	23752
835.097	23649
835.235	23668
835.373	23642
835.511	23649
835.65	23547
835.788	23608
835.926	23326
836.064	23212
836.202	23292
836.34	23512
836.478	23634
836.615	23455
836.753	23474
836.891	23577
837.029	23608
837.167	23410
837.305	23307
837.443	23318
837.58	23372
837.718	23356
837.856	23395
837.993	23223
838.131	23425
838.269	23216
838.406	23242
838.544	23261
838.681	22930
838.819	22949
838.956	22771
839.094	22854
839.231	22885
839.369	22965
839.506	23372
839.643	23033
839.781	22824
839.918	22778
840.055	22641
840.193	22736
840.33	22679
840.467	22748
840.604	22923
840.742	22991
840.879	22698
841.016	22599
841.153	22702
841.29	22740
841.427	22740
841.564	22675
841.701	22653
841.838	22668
841.975	22538
842.112	22603
842.249	22459
842.385	22615
842.522	22782
842.659	22645
842.796	22607
842.933	22500
843.069	22504
843.206	22470
843.343	22542
843.479	22421
843.616	22493
843.752	22398
843.889	22234
844.025	22348
844.162	22344
844.298	22459
844.435	22242
844.571	22090
844.708	22295
844.844	22504
844.98	22462
845.117	22299
845.253	22162
845.389	22097
845.525	22188
845.661	22139
845.798	22002
845.934	22158
846.07	21972
846.206	22086
846.342	22139
846.478	21979
846.614	21865
846.75	21671
846.886	21785
847.022	21812
847.158	21728
847.294	21766
847.429	21804
847.565	21785
847.701	21968
847.837	21523
847.972	21416
848.108	21553
848.244	21435
848.379	21519
848.515	21199
848.65	21245
848.786	21386
848.921	21317
849.057	21370
849.192	21469
849.328	21332
849.463	21321
849.598	21256
849.734	21218
849.869	21157
850.004	21108
850.14	21161
850.275	21123
850.41	20994
850.545	21028
850.68	21032
850.815	21184
850.95	21077
851.085	21161
851.22	21112
851.355	21081
851.49	21176
851.625	21017
851.76	21039
851.895	20845
852.03	20967
852.165	21089
852.299	21074
852.434	21039
852.569	21055
852.703	21142
852.838	21135
852.973	21184
853.107	21180
853.242	21043
853.376	20880
853.511	20842
853.645	20944
853.78	20982
853.914	21062
854.048	20990
854.183	20918
854.317	21013
854.451	21127
854.585	20944
854.72	20895
854.854	20864
854.988	20906
855.122	20876
855.256	20842
855.39	20948
855.524	21043
855.658	20910
855.792	20868
855.926	21066
856.06	21096
856.194	21001
856.327	20811
856.461	20967
856.595	20815
856.729	20887
856.862	20956
856.996	20944
857.13	20986
857.263	21131
857.397	21039
857.53	20948
857.664	20906
857.797	21017
857.931	21032
858.064	21036
858.197	21028
858.331	20982
858.464	20918
858.597	20861
858.731	20792
858.864	20883
858.997	20758
859.13	20994
859.263	20929
859.396	20925
859.529	20952
859.662	20788
859.795	20781
859.928	20975
860.061	21039
860.194	21173
860.327	20914
860.46	20902
860.592	21058
860.725	21074
860.858	21055
860.99	20952
861.123	20883
861.256	20785
861.388	20883
861.521	21720
861.653	20804
861.786	20773
861.918	20800
862.05	20842
862.183	20914
862.315	20921
862.447	20960
862.58	20781
862.712	20682
862.844	20594
862.976	20670
863.108	20743
863.24	21001
863.372	20625
863.504	20667
863.636	20625
863.768	20617
863.9	20606
864.032	20533
864.164	20598
864.296	20644
864.428	20853
864.559	20697
864.691	20697
864.823	20735
864.954	20651
865.086	20667
865.217	20564
865.349	20450
865.48	20514
865.612	20560
865.743	20648
865.875	20469
866.006	20594
866.137	20625
866.269	20522
866.4	20549
866.531	20526
866.662	20476
866.793	20450
866.924	20484
867.055	20454
867.186	20503
867.317	20469
867.448	20469
867.579	20457
867.71	20412
867.841	20465
867.972	20434
868.103	20469
868.233	20469
868.364	20461
868.495	20602
868.625	20746
868.756	20815
868.886	20625
869.017	20629
869.147	20720
869.278	20781
869.408	20758
869.539	20739
869.669	20659
869.799	20758
869.929	20838
870.06	20925
870.19	21077
870.32	21039
870.45	21013
870.58	21131
870.71	21222
870.84	21203
870.97	21173
871.1	21104
871.23	21310
871.36	21272
871.489	21252
871.619	21348
871.749	21275
871.879	21283
872.008	21477
872.138	21382
872.267	21325
872.397	21123
872.526	21154
872.656	21123
872.785	21135
872.915	21317
873.044	21435
873.173	21325
873.303	21329
873.432	21428
873.561	21481
873.69	21325
873.819	21488
873.948	21428
874.077	21408
874.206	21306
874.335	21340
874.464	21599
874.593	21690
874.722	21496
874.851	21599
874.979	21572
875.108	21553
875.237	21591
875.365	21587
875.494	21629
875.623	21641
875.751	21576
875.88	21515
876.008	21622
876.136	21781
876.265	21888
876.393	22025
876.521	22158
876.65	22048
876.778	22021
876.906	21945
877.034	22032
877.162	21918
877.29	21819
877.418	21960
877.546	22002
877.674	21991
877.802	21945
877.93	21930
878.058	21960
878.185	21770
878.313	21918
878.441	21949
878.568	21762
878.696	21918
878.824	21930
878.951	21903
879.079	22215
879.206	22150
879.333	22211
879.461	21953
879.588	22063
879.715	22154
879.842	22177
879.97	21960
880.097	21793
880.224	21778
880.351	21838
880.478	21686
880.605	21823
880.732	21720
880.859	22090
880.986	21823
881.112	21827
881.239	21686
881.366	21572
881.493	21416
881.619	21321
881.746	21405
881.872	21389
881.999	21435
882.125	21291
882.252	21401
882.378	21359
882.505	21485
882.631	21211
882.757	21047
882.883	21176
883.01	21096
883.136	21112
883.262	20864
883.388	20876
883.514	21055
883.64	21146
883.766	21001
883.892	20895
884.018	20902
884.143	21020
884.269	21055
884.395	20800
884.52	20708
884.646	20788
884.772	20716
884.897	20609
885.023	20693
885.148	20712
885.274	20712
885.399	20697
885.524	20834
885.65	20667
885.775	20712
885.9	20762
886.025	20864
886.15	20804
886.275	20697
886.4	20705
886.525	20670
886.65	20583
886.775	20697
886.9	20800
887.025	20830
887.149	20602
887.274	20682
887.399	20541
887.523	20461
887.648	20473
887.773	20370
887.897	20533
888.021	20530
888.146	20461
888.27	20560
888.395	20526
888.519	20454
888.643	20484
888.767	20537
888.891	20511
889.015	20259
889.139	20328
889.263	20282
889.387	20389
889.511	20434
889.635	20454
889.759	20275
889.883	20115
890.006	20332
890.13	20507
890.254	20225
890.377	20221
890.501	20008
890.624	20069
890.748	20103
890.871	19928
890.995	19841
891.118	19837
891.241	20050
891.364	19833
891.488	19959
891.611	19837
891.734	19837
891.857	19894
891.98	19811
892.103	19856
892.226	19750
892.349	19795
892.471	19666
892.594	19765
892.717	19841
892.839	19655
892.962	19689
893.085	19803
893.207	19830
893.33	19704
893.452	19628
893.575	19791
893.697	19772
893.819	19947
893.941	19868
894.064	19909
894.186	19799
894.308	19841
894.43	19902
894.552	19879
894.674	19822
894.796	19643
894.918	19666
895.04	19704
895.161	19795
895.283	19913
895.405	19734
895.526	19750
895.648	19849
895.769	19772
895.891	19906
896.012	19795
896.134	19883
896.255	19578
896.376	19666
896.498	19822
896.619	19818
896.74	19734
896.861	19906
896.982	20039
897.103	20180
897.224	20027
897.345	20005
897.466	19982
897.587	19944
897.708	20134
897.828	20050
897.949	19909
898.07	19883
898.19	19928
898.311	19921
898.431	19830
898.552	20035
898.672	20046
898.792	20202
898.913	19917
899.033	19913
899.153	19814
899.273	19723
899.393	19852
899.513	19799
899.633	19712
899.753	19769
899.873	19624
899.993	19772
900.113	19742
900.232	19655
900.352	19746
900.472	19529
900.591	19533
900.711	19559
900.83	19548
900.95	19658
901.069	19556
901.189	19411
901.308	19221
901.427	19095
901.546	19137
901.665	19069
901.784	19194
901.904	19050
902.023	18848
902.141	18806
902.26	18589
902.379	18684
902.498	18749
902.617	18677
902.735	18635
902.854	18593
902.973	18540
903.091	18262
903.21	18346
903.328	18311
903.446	18220
903.565	18121
903.683	18091
903.801	18053
903.919	18098
904.038	17965
904.156	17885
904.274	17935
904.392	17969
904.51	17878
904.627	17855
904.745	17878
904.863	17908
904.981	17642
905.098	17478
905.216	17581
905.334	17611
905.451	17661
905.569	17577
905.686	17524
905.803	17429
905.921	17303
906.038	17532
906.155	17345
906.272	17239
906.389	17269
906.506	17128
906.623	17105
906.74	17098
906.857	17006
906.974	16961
907.091	17094
907.208	17220
907.324	17071
907.441	17056
907.557	16953
907.674	16877
907.79	16824
907.907	16755
908.023	16843
908.139	16866
908.256	16736
908.372	16691
908.488	16736
908.604	16649
908.72	16588
908.836	16580
908.952	16432
909.068	16588
909.184	16630
909.3	16493
909.415	16474
909.531	16440
909.647	16306
909.762	16257
909.878	16234
909.993	16238
910.108	16234
910.224	16101
910.339	16265
910.454	16166
910.57	16071
910.685	15865
910.8	16249
910.915	16226
911.03	16029
911.145	15892
911.259	15850
911.374	15861
911.489	15819
911.604	15717
911.718	15603
911.833	15557
911.947	15492
912.062	15389
912.176	15732
912.291	15591
912.405	15644
912.519	15781
912.633	15884
912.748	15614
912.862	15526
912.976	15466
913.09	15249
913.204	15359
913.318	15485
913.431	15450
913.545	15488
913.659	15466
913.772	15450
913.886	15344
914	15268
914.113	15298
914.226	15306
914.34	15370
914.453	15047
914.566	15233
914.68	15169
914.793	14971
914.906	14876
915.019	14830
915.132	14769
915.245	14811
915.358	14876
915.47	14849
915.583	14910
915.696	14941
915.809	14929
915.921	14948
916.034	14807
916.146	14697
916.259	14735
916.371	14792
916.483	14769
916.595	14610
916.708	14651
916.82	14617
916.932	14659
917.044	14670
917.156	14682
917.268	14484
917.38	14545
917.491	14541
917.603	14476
917.715	14552
917.826	14560
917.938	14438
918.049	14404
918.161	14423
918.272	14571
918.384	14606
918.495	14415
918.606	14320
918.717	14248
918.828	14233
918.939	14374
919.05	14145
919.161	14332
919.272	14020
919.383	14172
919.494	14366
919.604	14438
919.715	14305
919.826	14115
919.936	14218
920.047	14313
920.157	14218
920.267	14507
920.378	14183
920.488	14153
920.598	14324
920.708	14537
920.818	14461
920.928	14313
921.038	14560
921.148	14465
921.258	14183
921.368	14115
921.477	13997
921.587	13936
921.697	13811
921.806	14073
921.916	13814
922.025	13719
922.134	13613
922.244	13514
922.353	13529
922.462	13552
922.571	13358
922.68	13331
922.789	13343
922.898	13304
923.007	13255
923.116	13232
923.224	13175
923.333	13179
923.442	13141
923.55	13103
923.659	13149
923.767	13179
923.876	12962
923.984	13152
924.092	12958
924.201	13057
924.309	13046
924.417	12977
924.525	12878
924.633	12913
924.741	13700
924.849	12783
924.956	12894
925.064	12768
925.172	12620
925.279	12669
925.387	12715
925.494	12646
925.602	12787
925.709	12722
925.816	12601
925.924	12597
926.031	12703
926.138	12635
926.245	12707
926.352	12547
926.459	12700
926.566	12734
926.673	12566
926.779	12498
926.886	12483
926.993	12289
927.099	12232
927.206	12235
927.312	12152
927.419	12346
927.525	12277
927.631	12258
927.737	12205
927.843	12190
927.95	11996
928.056	12064
928.162	12095
928.267	12064
928.373	12620
928.479	12106
928.585	12019
928.69	12098
928.796	12087
928.901	12030
929.007	11859
929.112	11988
929.218	11923
929.323	11878
929.428	11821
929.533	11965
929.638	11794
929.743	11798
929.848	11836
929.953	11771
930.058	11661
930.163	11547
930.267	11471
930.372	11688
930.477	11490
930.581	11741
930.685	11505
930.79	11455
930.894	11490
930.998	11444
931.103	11562
931.207	11147
931.311	11079
931.415	11067
931.519	10809
931.623	10820
