Data from test_V78500241_1559.txt Node
Date: Fri Mar 25 15:20:42 CST 2022
User: usil
Spectrometer: V785-0024
Trigger mode: 0
Integration Time (sec): 4.000000E-1
Scans to average: 1
Nonlinearity correction enabled: false
Boxcar width: 0
Storing dark spectrum: false
XAxis mode: Wavelengths
Number of Pixels in Spectrum: 1024
>>>>>Begin Spectral Data<<<<<
801.071	27778
801.214	27766
801.356	27606
801.499	27583
801.641	27382
801.783	27348
801.926	27477
802.068	27340
802.211	27447
802.353	27321
802.496	27036
802.638	27211
802.78	26929
802.923	26971
803.065	26963
803.208	27005
803.35	27074
803.492	27275
803.635	27325
803.777	27207
803.919	27237
804.061	27519
804.204	27359
804.346	27214
804.488	27192
804.63	27283
804.773	27233
804.915	27317
805.057	27477
805.199	27085
805.341	27294
805.483	27431
805.626	27355
805.768	27317
805.91	27367
806.052	27515
806.194	27230
806.336	27568
806.478	27431
806.62	27283
806.762	27538
806.904	27713
807.046	27922
807.188	27827
807.33	27850
807.472	27914
807.614	27743
807.756	27857
807.898	27580
808.04	27671
808.182	27804
808.324	27682
808.465	27751
808.607	27930
808.749	28040
808.891	28036
809.033	28268
809.174	28147
809.316	28070
809.458	28169
809.6	27960
809.741	28276
809.883	28158
810.025	28333
810.166	28455
810.308	28306
810.45	28196
810.591	28253
810.733	27998
810.875	27983
811.016	27869
811.158	27975
811.299	27994
811.441	28230
811.582	28040
811.724	28059
811.865	27994
812.007	27945
812.148	27945
812.29	28101
812.431	28166
812.573	28337
812.714	28611
812.855	28607
812.997	28679
813.138	28835
813.279	28820
813.421	28527
813.562	28592
813.703	28421
813.845	28128
813.986	28063
814.127	27926
814.268	27789
814.41	27846
814.551	27656
814.692	27816
814.833	27736
814.974	27625
815.115	27572
815.256	27694
815.397	27599
815.539	27530
815.68	27549
815.821	27405
815.962	27564
816.103	27435
816.244	27408
816.385	27188
816.526	27283
816.666	27138
816.807	27096
816.948	27066
817.089	27001
817.23	27188
817.371	27028
817.512	26967
817.653	27135
817.793	27001
817.934	27024
818.075	26933
818.216	27013
818.356	27020
818.497	26933
818.638	26648
818.778	26849
818.919	26746
819.06	26773
819.2	26967
819.341	26998
819.481	27028
819.622	27150
819.762	27264
819.903	27344
820.043	27058
820.184	27218
820.324	27085
820.465	27310
820.605	27093
820.746	27074
820.886	26963
821.026	27051
821.167	26982
821.307	27043
821.447	27055
821.588	26899
821.728	26777
821.868	26655
822.008	26579
822.149	26438
822.289	26492
822.429	26233
822.569	26202
822.709	26096
822.849	25997
822.99	26100
823.13	25940
823.27	25917
823.41	25841
823.55	25772
823.69	25856
823.83	25879
823.97	25909
824.11	25670
824.25	25605
824.389	25734
824.529	25791
824.669	25677
824.809	25769
824.949	25776
825.089	25681
825.228	25620
825.368	25495
825.508	25613
825.648	25525
825.787	25552
825.927	25647
826.067	25518
826.206	25537
826.346	25487
826.485	25563
826.625	25438
826.765	25533
826.904	25567
827.044	25270
827.183	25331
827.323	25206
827.462	25289
827.601	25255
827.741	25228
827.88	25244
828.02	25187
828.159	25084
828.298	25160
828.437	25362
828.577	25114
828.716	25324
828.855	25198
828.994	24924
829.134	25050
829.273	25031
829.412	24932
829.551	24886
829.69	24992
829.829	24871
829.968	24947
830.107	24772
830.246	24886
830.385	24787
830.524	24848
830.663	24772
830.802	24688
830.941	24570
831.08	24445
831.219	24441
831.357	24623
831.496	24715
831.635	24498
831.774	24601
831.913	24353
832.051	24357
832.19	24403
832.329	24513
832.467	24186
832.606	24159
832.744	23973
832.883	24201
833.022	24098
833.16	24292
833.299	24232
833.437	24239
833.576	24376
833.714	24201
833.852	24281
833.991	24289
834.129	24327
834.267	24410
834.406	24300
834.544	24239
834.682	24285
834.821	24129
834.959	24445
835.097	24224
835.235	24209
835.373	24308
835.511	24136
835.65	24262
835.788	24121
835.926	24053
836.064	23836
836.202	23817
836.34	24018
836.478	24197
836.615	24159
836.753	24011
836.891	24068
837.029	24144
837.167	23916
837.305	23863
837.443	23889
837.58	24045
837.718	23965
837.856	23950
837.993	23916
838.131	23901
838.269	23737
838.406	23737
838.544	23775
838.681	23611
838.819	23539
838.956	23570
839.094	23436
839.231	23425
839.369	23600
839.506	23798
839.643	23634
839.781	23395
839.918	23368
840.055	23398
840.193	23398
840.33	23345
840.467	23239
840.604	23402
840.742	23608
840.879	23239
841.016	23174
841.153	23277
841.29	23440
841.427	23322
841.564	23261
841.701	23296
841.838	23193
841.975	23334
842.112	23166
842.249	23018
842.385	23067
842.522	23170
842.659	23102
842.796	23124
842.933	22980
843.069	22995
843.206	23022
843.343	23003
843.479	23143
843.616	23071
843.752	22793
843.889	22854
844.025	22911
844.162	22816
844.298	22908
844.435	22831
844.571	22790
844.708	22900
844.844	22949
844.98	22968
845.117	22953
845.253	22767
845.389	22630
845.525	22786
845.661	22611
845.798	22577
845.934	22512
846.07	22531
846.206	22557
846.342	22630
846.478	22504
846.614	22360
846.75	22238
846.886	22386
847.022	22352
847.158	22375
847.294	22363
847.429	22371
847.565	22234
847.701	22489
847.837	22192
847.972	22082
848.108	22082
848.244	22185
848.379	21880
848.515	21888
848.65	21770
848.786	21926
848.921	21975
849.057	21949
849.192	21998
849.328	21979
849.463	21816
849.598	21720
849.734	21869
849.869	21743
850.004	21557
850.14	21717
850.275	21656
850.41	21705
850.545	21454
850.68	21663
850.815	21561
850.95	21557
851.085	21911
851.22	21743
851.355	21694
851.49	21671
851.625	21561
851.76	21698
851.895	21504
852.03	21515
852.165	21682
852.299	21686
852.434	21743
852.569	21686
852.703	21663
852.838	21622
852.973	21785
853.107	21774
853.242	21481
853.376	21397
853.511	21370
853.645	21485
853.78	21583
853.914	21504
854.048	21431
854.183	21351
854.317	21469
854.451	21420
854.585	21481
854.72	21511
854.854	21606
854.988	21450
855.122	21492
855.256	21317
855.39	21412
855.524	21545
855.658	21606
855.792	21389
855.926	21530
856.06	21481
856.194	21538
856.327	21466
856.461	21511
856.595	21477
856.729	21443
856.862	21519
856.996	21572
857.13	21526
857.263	21576
857.397	21686
857.53	21496
857.664	21492
857.797	21492
857.931	21549
858.064	21538
858.197	21523
858.331	21401
858.464	21374
858.597	21256
858.731	21462
858.864	21454
858.997	21389
859.13	21545
859.263	21473
859.396	21564
859.529	21496
859.662	21473
859.795	21466
859.928	21511
860.061	21622
860.194	21633
860.327	21656
860.46	21439
860.592	21420
860.725	21743
860.858	21564
860.99	21435
861.123	21359
861.256	21268
861.388	21401
861.521	22169
861.653	21291
861.786	21245
861.918	21298
862.05	21389
862.183	21336
862.315	21485
862.447	21420
862.58	21447
862.712	21237
862.844	21146
862.976	21321
863.108	21138
863.24	21580
863.372	21116
863.504	21272
863.636	21154
863.768	21192
863.9	21039
864.032	21237
864.164	21142
864.296	21169
864.428	21150
864.559	21272
864.691	21294
864.823	21256
864.954	21138
865.086	21173
865.217	21116
865.349	20990
865.48	21154
865.612	21032
865.743	21192
865.875	21154
866.006	21051
866.137	21150
866.269	21066
866.4	21032
866.531	21055
866.662	21024
866.793	20918
866.924	20937
867.055	21020
867.186	21051
867.317	20960
867.448	20960
867.579	20914
867.71	20967
867.841	20899
867.972	20914
868.103	21013
868.233	20921
868.364	20914
868.495	21028
868.625	21298
868.756	21283
868.886	21176
869.017	21230
869.147	21230
869.278	21294
869.408	21336
869.539	21363
869.669	21313
869.799	21135
869.929	21412
870.06	21222
870.19	21545
870.32	21545
870.45	21538
870.58	21618
870.71	21637
870.84	21694
870.97	21759
871.1	21652
871.23	21861
871.36	21873
871.489	21656
871.619	21854
871.749	21880
871.879	21915
872.008	22010
872.138	21797
872.267	21827
872.397	21781
872.526	21743
872.656	21603
872.785	21751
872.915	21838
873.044	21956
873.173	21865
873.303	21998
873.432	21690
873.561	21819
873.69	21846
873.819	21743
873.948	21949
874.077	21930
874.206	21709
874.335	21876
874.464	22051
874.593	22040
874.722	22029
874.851	22230
874.979	22150
875.108	22238
875.237	22097
875.365	21998
875.494	22017
875.623	22116
875.751	22105
875.88	22078
876.008	22135
876.136	22268
876.265	22550
876.393	22641
876.521	22428
876.65	22497
876.778	22523
876.906	22428
877.034	22447
877.162	22516
877.29	22474
877.418	22485
877.546	22398
877.674	22386
877.802	22508
877.93	22284
878.058	22440
878.185	22219
878.313	22333
878.441	22424
878.568	22154
878.696	22367
878.824	22424
878.951	22554
879.079	22565
879.206	22683
879.333	22542
879.461	22470
879.588	22405
879.715	22580
879.842	22672
879.97	22478
880.097	22162
880.224	22272
880.351	22177
880.478	22234
880.605	22139
880.732	22150
880.859	22531
880.986	22287
881.112	22230
881.239	22272
881.366	21953
881.493	21941
881.619	21804
881.746	21816
881.872	21884
881.999	21793
882.125	21831
882.252	21937
882.378	21728
882.505	21831
882.631	21656
882.757	21614
882.883	21572
883.01	21488
883.136	21431
883.262	21511
883.388	21249
883.514	21469
883.64	21553
883.766	21397
883.892	21233
884.018	21298
884.143	21488
884.269	21504
884.395	21195
884.52	21119
884.646	21135
884.772	21138
884.897	20998
885.023	21184
885.148	21275
885.274	21272
885.399	21237
885.524	21116
885.65	21233
885.775	21024
885.9	21157
886.025	21218
886.15	21173
886.275	21100
886.4	21116
886.525	21131
886.65	21028
886.775	20925
886.9	21222
887.025	21291
887.149	21074
887.274	20929
887.399	20902
887.523	20918
887.648	20880
887.773	20746
887.897	20887
888.021	20952
888.146	20918
888.27	20979
888.395	20948
888.519	20933
888.643	20937
888.767	21005
888.891	20804
889.015	20777
889.139	20819
889.263	20708
889.387	20819
889.511	20933
889.635	20887
889.759	20693
889.883	20762
890.006	20697
890.13	20883
890.254	20609
890.377	20712
890.501	20473
890.624	20514
890.748	20457
890.871	20560
890.995	20355
891.118	20252
891.241	20358
891.364	20275
891.488	20469
891.611	20313
891.734	20263
891.857	20377
891.98	20202
892.103	20317
892.226	20290
892.349	20263
892.471	20115
892.594	20237
892.717	20225
892.839	20195
892.962	20271
893.085	20351
893.207	20202
893.33	20065
893.452	20058
893.575	20142
893.697	20271
893.819	20332
893.941	20454
894.064	20355
894.186	20138
894.308	20088
894.43	20240
894.552	20317
894.674	20202
894.796	20005
894.918	20122
895.04	20191
895.161	20107
895.283	20263
895.405	20134
895.526	20096
895.648	20176
895.769	20122
895.891	20157
896.012	20313
896.134	20290
896.255	20191
896.376	20176
896.498	20168
896.619	20282
896.74	20176
896.861	20263
896.982	20396
897.103	20651
897.224	20469
897.345	20423
897.466	20355
897.587	20351
897.708	20495
897.828	20408
897.949	20275
898.07	20317
898.19	20271
898.311	20355
898.431	20450
898.552	20423
898.672	20457
898.792	20389
898.913	20469
899.033	20286
899.153	20134
899.273	19959
899.393	20206
899.513	20138
899.633	20210
899.753	20031
899.873	20073
899.993	20187
900.113	19978
900.232	20180
900.352	20054
900.472	19982
900.591	19967
900.711	19997
900.83	19864
900.95	19887
901.069	20020
901.189	19803
901.308	19643
901.427	19514
901.546	19559
901.665	19605
901.784	19502
901.904	19392
902.023	19346
902.141	19088
902.26	19209
902.379	18989
902.498	18970
902.617	19061
902.735	19137
902.854	18954
902.973	18871
903.091	18730
903.21	18696
903.328	18650
903.446	18574
903.565	18410
903.683	18403
903.801	18418
903.919	18426
904.038	18327
904.156	18209
904.274	18350
904.392	18205
904.51	18277
904.627	18182
904.745	18201
904.863	18338
904.981	18034
905.098	17912
905.216	17859
905.334	18030
905.451	17939
905.569	17874
905.686	17920
905.803	17950
905.921	17718
906.038	17863
906.155	17764
906.272	17695
906.389	17627
906.506	17558
906.623	17471
906.74	17619
906.857	17318
906.974	17326
907.091	17516
907.208	17615
907.324	17383
907.441	17406
907.557	17235
907.674	17193
907.79	17162
907.907	17117
908.023	17246
908.139	17143
908.256	17178
908.372	17181
908.488	17056
908.604	16991
908.72	16900
908.836	17041
908.952	16809
909.068	16873
909.184	17006
909.3	17064
909.415	16824
909.531	16892
909.647	16729
909.762	16615
909.878	16611
909.993	16554
910.108	16481
910.224	16668
910.339	16637
910.454	16455
910.57	16398
910.685	16310
910.8	16637
910.915	16500
911.03	16356
911.145	16234
911.259	16215
911.374	16230
911.489	16124
911.604	16135
911.718	15865
911.833	15899
911.947	15827
912.062	15766
912.176	15831
912.291	15831
912.405	15945
912.519	16128
912.633	16044
912.748	15975
912.862	15915
912.976	15762
913.09	15599
913.204	15701
913.318	15778
913.431	15854
913.545	15892
913.659	15857
913.772	15774
913.886	15534
914	15622
914.113	15641
914.226	15690
914.34	15515
914.453	15355
914.566	15686
914.68	15447
914.793	15393
914.906	15237
915.019	15169
915.132	15142
915.245	15203
915.358	15142
915.47	15214
915.583	15169
915.696	15192
915.809	15275
915.921	15313
916.034	15203
916.146	15100
916.259	15100
916.371	15192
916.483	15081
916.595	14952
916.708	14963
916.82	15028
916.932	14845
917.044	14857
917.156	14944
917.268	14853
917.38	14765
917.491	14746
917.603	14781
917.715	14845
917.826	14826
917.938	14769
918.049	14640
918.161	14735
918.272	14902
918.384	14849
918.495	14678
918.606	14594
918.717	14465
918.828	14564
918.939	14613
919.05	14575
919.161	14507
919.272	14328
919.383	14396
919.494	14495
919.604	14819
919.715	14583
919.826	14454
919.936	14450
920.047	14568
920.157	14568
920.267	14705
920.378	14530
920.488	14461
920.598	14610
920.708	14785
920.818	14571
920.928	14693
921.038	14708
921.148	14739
921.258	14423
921.368	14431
921.477	14286
921.587	14191
921.697	14164
921.806	14210
921.916	14180
922.025	14039
922.134	13913
922.244	13841
922.353	13925
922.462	13826
922.571	13791
922.68	13567
922.789	13548
922.898	13594
923.007	13491
923.116	13609
923.224	13567
923.333	13605
923.442	13460
923.55	13350
923.659	13362
923.767	13415
923.876	13362
923.984	13331
924.092	13278
924.201	13354
924.309	13316
924.417	13263
924.525	13266
924.633	13202
924.741	13909
924.849	13023
924.956	13084
925.064	12977
925.172	12966
925.279	12996
925.387	12935
925.494	12985
925.602	13053
925.709	12996
925.816	12924
925.924	12859
926.031	12981
926.138	13027
926.245	13042
926.352	12700
926.459	12993
926.566	12894
926.673	12875
926.779	12669
926.886	12665
926.993	12540
927.099	12536
927.206	12486
927.312	12486
927.419	12559
927.525	12517
927.631	12525
927.737	12448
927.843	12407
927.95	12281
928.056	12319
928.162	12391
928.267	12372
928.373	13000
928.479	12483
928.585	12201
928.69	12182
928.796	12311
928.901	12228
929.007	12045
929.112	12140
929.218	12133
929.323	12114
929.428	12060
929.533	12121
929.638	11935
929.743	12076
929.848	12003
929.953	12098
930.058	11859
930.163	11836
930.267	11779
930.372	11809
930.477	11802
930.581	11920
930.685	11824
930.79	11729
930.894	11688
930.998	11649
931.103	11748
931.207	11311
931.311	11277
931.415	11246
931.519	11018
931.623	11025
