Data from test_V78500241_1006.txt Node
Date: Fri Mar 25 15:16:51 CST 2022
User: usil
Spectrometer: V785-0024
Trigger mode: 0
Integration Time (sec): 4.000000E-1
Scans to average: 1
Nonlinearity correction enabled: false
Boxcar width: 0
Storing dark spectrum: false
XAxis mode: Wavelengths
Number of Pixels in Spectrum: 1024
>>>>>Begin Spectral Data<<<<<
801.071	28322
801.214	28131
801.356	28097
801.499	28109
801.641	27926
801.783	27895
801.926	27922
802.068	27865
802.211	27907
802.353	27793
802.496	27599
802.638	27595
802.78	27644
802.923	27561
803.065	27515
803.208	27625
803.35	27622
803.492	27823
803.635	27739
803.777	27690
803.919	27781
804.061	28067
804.204	27800
804.346	27762
804.488	27812
804.63	28002
804.773	27895
804.915	27831
805.057	27899
805.199	27846
805.341	27865
805.483	27953
805.626	27991
805.768	27888
805.91	28021
806.052	28032
806.194	27736
806.336	28067
806.478	28177
806.62	28139
806.762	28044
806.904	28352
807.046	28569
807.188	28493
807.33	28485
807.472	28462
807.614	28272
807.756	28481
807.898	28226
808.04	28219
808.182	28226
808.324	28226
808.465	28261
808.607	28508
808.749	28675
808.891	28672
809.033	28710
809.174	28748
809.316	28523
809.458	28679
809.6	28584
809.741	28885
809.883	28858
810.025	28888
810.166	28831
810.308	28984
810.45	28900
810.591	28987
810.733	28710
810.875	28733
811.016	28637
811.158	28516
811.299	28843
811.441	28729
811.582	28835
811.724	28748
811.865	28630
812.007	28630
812.148	28519
812.29	28797
812.431	28793
812.573	29010
812.714	29056
812.855	29071
812.997	29349
813.138	29512
813.279	29174
813.421	29143
813.562	29178
813.703	28885
813.845	28847
813.986	28656
814.127	28440
814.268	28428
814.41	28371
814.551	28409
814.692	28462
814.833	28421
814.974	28337
815.115	28390
815.256	28291
815.397	28261
815.539	28470
815.68	28230
815.821	28139
815.962	28200
816.103	28242
816.244	27994
816.385	27964
816.526	28036
816.666	27816
816.807	27682
816.948	27785
817.089	27876
817.23	27686
817.371	27610
817.512	27705
817.653	27667
817.793	27667
817.934	27663
818.075	27591
818.216	27800
818.356	27675
818.497	27439
818.638	27370
818.778	27420
818.919	27367
819.06	27511
819.2	27466
819.341	27610
819.481	27667
819.622	27926
819.762	27975
819.903	28013
820.043	28017
820.184	27728
820.324	27720
820.465	27850
820.605	27861
820.746	27880
820.886	27568
821.026	27869
821.167	27869
821.307	27831
821.447	27732
821.588	27564
821.728	27435
821.868	27351
822.008	27169
822.149	27230
822.289	27123
822.429	26880
822.569	26735
822.709	26788
822.849	26765
822.99	26708
823.13	26739
823.27	26663
823.41	26583
823.55	26423
823.69	26552
823.83	26533
823.97	26476
824.11	26355
824.25	26320
824.389	26400
824.529	26317
824.669	26396
824.809	26602
824.949	26434
825.089	26526
825.228	26419
825.368	26111
825.508	26229
825.648	26286
825.787	26339
825.927	26256
826.067	26221
826.206	26320
826.346	26298
826.485	26317
826.625	26286
826.765	26336
826.904	26294
827.044	25936
827.183	26020
827.323	25944
827.462	26005
827.601	25909
827.741	25959
827.88	26111
828.02	25784
828.159	25913
828.298	25917
828.437	26119
828.577	25909
828.716	25936
828.855	25887
828.994	25837
829.134	25632
829.273	25742
829.412	25563
829.551	25670
829.69	25609
829.829	25742
829.968	25795
830.107	25784
830.246	25559
830.385	25635
830.524	25616
830.663	25575
830.802	25301
830.941	25228
831.08	25259
831.219	25430
831.357	25381
831.496	25616
831.635	25274
831.774	25031
831.913	25274
832.051	25137
832.19	25046
832.329	25107
832.467	25050
832.606	24943
832.744	24894
832.883	25004
833.022	24882
833.16	24947
833.299	25156
833.437	25019
833.576	25042
833.714	25012
833.852	25129
833.991	25141
834.129	25019
834.267	25221
834.406	25008
834.544	25034
834.682	24996
834.821	24996
834.959	25240
835.097	24913
835.235	25103
835.373	25038
835.511	25004
835.65	24795
835.788	24916
835.926	24715
836.064	24787
836.202	24688
836.34	24901
836.478	24894
836.615	24810
836.753	24791
836.891	24996
837.029	24848
837.167	24882
837.305	24806
837.443	24753
837.58	24688
837.718	24764
837.856	24700
837.993	24696
838.131	24551
838.269	24559
838.406	24612
838.544	24593
838.681	24292
838.819	24289
838.956	24110
839.094	24205
839.231	24209
839.369	24289
839.506	24547
839.643	24494
839.781	24152
839.918	24117
840.055	24152
840.193	24144
840.33	24034
840.467	24110
840.604	24171
840.742	24399
840.879	24022
841.016	24045
841.153	24026
841.29	24190
841.427	23988
841.564	24098
841.701	24155
841.838	24011
841.975	23988
842.112	24117
842.249	23923
842.385	23760
842.522	23927
842.659	24026
842.796	23870
842.933	23882
843.069	23851
843.206	23866
843.343	23885
843.479	23832
843.616	23885
843.752	23703
843.889	23581
844.025	23668
844.162	23646
844.298	23741
844.435	23695
844.571	23547
844.708	23585
844.844	23722
844.98	23790
845.117	23737
845.253	23630
845.389	23528
845.525	23558
845.661	23471
845.798	23349
845.934	23383
846.07	23376
846.206	23501
846.342	23440
846.478	23379
846.614	23136
846.75	23067
846.886	23189
847.022	23060
847.158	23121
847.294	23056
847.429	23086
847.565	23067
847.701	23334
847.837	22824
847.972	22828
848.108	22980
848.244	22820
848.379	22755
848.515	22622
848.65	22698
848.786	22755
848.921	22694
849.057	22877
849.192	22850
849.328	22675
849.463	22702
849.598	22531
849.734	22436
849.869	22618
850.004	22382
850.14	22546
850.275	22428
850.41	22382
850.545	22363
850.68	22440
850.815	22489
850.95	22390
851.085	22634
851.22	22500
851.355	22409
851.49	22421
851.625	22379
851.76	22409
851.895	22310
852.03	22295
852.165	22421
852.299	22398
852.434	22485
852.569	22493
852.703	22474
852.838	22577
852.973	22565
853.107	22489
853.242	22375
853.376	22246
853.511	22242
853.645	22169
853.78	22371
853.914	22348
854.048	22181
854.183	22303
854.317	22200
854.451	22371
854.585	22215
854.72	22242
854.854	22325
854.988	22166
855.122	22204
855.256	22158
855.39	22253
855.524	22276
855.658	22223
855.792	22249
855.926	22306
856.06	22352
856.194	22398
856.327	22291
856.461	22131
856.595	22139
856.729	22276
856.862	22295
856.996	22257
857.13	22306
857.263	22280
857.397	22295
857.53	22204
857.664	22261
857.797	22360
857.931	22341
858.064	22249
858.197	22440
858.331	22257
858.464	22109
858.597	22196
858.731	22131
858.864	22226
858.997	22238
859.13	22257
859.263	22242
859.396	22280
859.529	22249
859.662	22246
859.795	22112
859.928	22287
860.061	22402
860.194	22287
860.327	22272
860.46	22230
860.592	22436
860.725	22466
860.858	22329
860.99	22322
861.123	22219
861.256	22188
861.388	22341
861.521	22984
861.653	22166
861.786	22021
861.918	22109
862.05	22143
862.183	22276
862.315	22143
862.447	22139
862.58	22242
862.712	21934
862.844	21865
862.976	21972
863.108	21850
863.24	22223
863.372	21850
863.504	22032
863.636	21865
863.768	22029
863.9	21956
864.032	21880
864.164	21880
864.296	21983
864.428	22013
864.559	22078
864.691	21998
864.823	21937
864.954	21892
865.086	21903
865.217	21778
865.349	21819
865.48	21865
865.612	21850
865.743	22048
865.875	21873
866.006	21785
866.137	21819
866.269	21819
866.4	21880
866.531	21694
866.662	21713
866.793	21846
866.924	21732
867.055	21766
867.186	21759
867.317	21709
867.448	21755
867.579	21717
867.71	21618
867.841	21690
867.972	21899
868.103	21876
868.233	21797
868.364	21797
868.495	21850
868.625	21934
868.756	22158
868.886	21827
869.017	21979
869.147	21998
869.278	22116
869.408	22040
869.539	22044
869.669	22051
869.799	22051
869.929	22112
870.06	22055
870.19	22249
870.32	22295
870.45	22318
870.58	22390
870.71	22432
870.84	22363
870.97	22424
871.1	22333
871.23	22577
871.36	22645
871.489	22447
871.619	22573
871.749	22497
871.879	22531
872.008	22664
872.138	22622
872.267	22672
872.397	22462
872.526	22379
872.656	22459
872.785	22424
872.915	22611
873.044	22599
873.173	22535
873.303	22626
873.432	22637
873.561	22740
873.69	22542
873.819	22485
873.948	22752
874.077	22729
874.206	22584
874.335	22493
874.464	22607
874.593	22816
874.722	22778
874.851	22961
874.979	22885
875.108	22824
875.237	22778
875.365	22828
875.494	22847
875.623	22866
875.751	22698
875.88	22828
876.008	22946
876.136	23048
876.265	23208
876.393	23284
876.521	23185
876.65	23189
876.778	23246
876.906	23094
877.034	23155
877.162	23140
877.29	23083
877.418	23113
877.546	23162
877.674	23159
877.802	23079
877.93	23090
878.058	23014
878.185	23064
878.313	23075
878.441	23185
878.568	23025
878.696	23056
878.824	23113
878.951	23391
879.079	23307
879.206	23417
879.333	23261
879.461	23079
879.588	23265
879.715	23303
879.842	23410
879.97	23143
880.097	23052
880.224	23048
880.351	22946
880.478	23025
880.605	22869
880.732	22782
880.859	23159
880.986	22892
881.112	22991
881.239	22873
881.366	22824
881.493	22649
881.619	22531
881.746	22459
881.872	22512
881.999	22481
882.125	22485
882.252	22615
882.378	22569
882.505	22557
882.631	22421
882.757	22211
882.883	22211
883.01	22207
883.136	22181
883.262	22059
883.388	22063
883.514	22078
883.64	22226
883.766	22112
883.892	21941
884.018	22013
884.143	22116
884.269	22192
884.395	21895
884.52	21739
884.646	21823
884.772	21854
884.897	21713
885.023	21899
885.148	21846
885.274	21991
885.399	21869
885.524	21797
885.65	21823
885.775	21884
885.9	21793
886.025	22006
886.15	21861
886.275	21755
886.4	21778
886.525	21846
886.65	21781
886.775	21964
886.9	21994
887.025	21960
887.149	21850
887.274	21599
887.399	21709
887.523	21610
887.648	21606
887.773	21564
887.897	21686
888.021	21660
888.146	21599
888.27	21701
888.395	21686
888.519	21694
888.643	21656
888.767	21736
888.891	21496
889.015	21332
889.139	21485
889.263	21363
889.387	21576
889.511	21656
889.635	21553
889.759	21439
889.883	21340
890.006	21374
890.13	21431
890.254	21378
890.377	21272
890.501	21199
890.624	21127
890.748	21123
890.871	21047
890.995	21070
891.118	20876
891.241	20994
891.364	20990
891.488	21062
891.611	20925
891.734	20887
891.857	21009
891.98	20982
892.103	21039
892.226	20982
892.349	20819
892.471	20689
892.594	20823
892.717	20861
892.839	20883
892.962	20785
893.085	20990
893.207	20880
893.33	20727
893.452	20807
893.575	20876
893.697	20804
893.819	20929
893.941	20918
894.064	20975
894.186	20716
894.308	20777
894.43	20994
894.552	21032
894.674	20975
894.796	20727
894.918	20804
895.04	20670
895.161	20819
895.283	20887
895.405	20773
895.526	20823
895.648	20788
895.769	20750
895.891	20891
896.012	20811
896.134	20880
896.255	20796
896.376	20781
896.498	20781
896.619	20880
896.74	20887
896.861	20864
896.982	21135
897.103	21237
897.224	21005
897.345	20929
897.466	20925
897.587	21020
897.708	21123
897.828	21051
897.949	21043
898.07	20845
898.19	20921
898.311	21028
898.431	20994
898.552	21032
898.672	20929
898.792	21024
898.913	20971
899.033	20941
899.153	20781
899.273	20762
899.393	20693
899.513	20868
899.633	20788
899.753	20644
899.873	20697
899.993	20788
900.113	20655
900.232	20746
900.352	20575
900.472	20492
900.591	20537
900.711	20552
900.83	20431
900.95	20609
901.069	20727
901.189	20389
901.308	20145
901.427	19997
901.546	20221
901.665	20043
901.784	20065
901.904	20039
902.023	19845
902.141	19712
902.26	19544
902.379	19632
902.498	19552
902.617	19578
902.735	19658
902.854	19613
902.973	19506
903.091	19293
903.21	19175
903.328	19278
903.446	19206
903.565	19027
903.683	18989
903.801	18844
903.919	19050
904.038	19080
904.156	18825
904.274	18875
904.392	18848
904.51	18764
904.627	18821
904.745	18795
904.863	18844
904.981	18669
905.098	18525
905.216	18616
905.334	18555
905.451	18456
905.569	18582
905.686	18486
905.803	18418
905.921	18357
906.038	18350
906.155	18311
906.272	18254
906.389	18228
906.506	18003
906.623	18072
906.74	18019
906.857	17863
906.974	17939
907.091	18072
907.208	18030
907.324	18083
907.441	17847
907.557	17824
907.674	17710
907.79	17623
907.907	17668
908.023	17729
908.139	17756
908.256	17737
908.372	17684
908.488	17562
908.604	17520
908.72	17368
908.836	17505
908.952	17433
909.068	17455
909.184	17585
909.3	17512
909.415	17505
909.531	17353
909.647	17075
909.762	17124
909.878	17337
909.993	17147
910.108	17094
910.224	17166
910.339	17102
910.454	17052
910.57	17086
910.685	16866
910.8	17102
910.915	17029
911.03	16946
911.145	16786
911.259	16797
911.374	16736
911.489	16653
911.604	16660
911.718	16508
911.833	16516
911.947	16367
912.062	16299
912.176	16405
912.291	16447
912.405	16455
912.519	16634
912.633	16531
912.748	16573
912.862	16462
912.976	16257
913.09	16200
913.204	16226
913.318	16268
913.431	16363
913.545	16409
913.659	16409
913.772	16192
913.886	16101
914	16067
914.113	16166
914.226	16166
914.34	16188
914.453	16006
914.566	16017
914.68	15926
914.793	16010
914.906	15606
915.019	15785
915.132	15599
915.245	15732
915.358	15751
915.47	15648
915.583	15743
915.696	15682
915.809	15785
915.921	15713
916.034	15557
916.146	15561
916.259	15641
916.371	15755
916.483	15568
916.595	15462
916.708	15526
916.82	15492
916.932	15466
917.044	15401
917.156	15294
917.268	15310
917.38	15313
917.491	15302
917.603	15302
917.715	15359
917.826	15401
917.938	15157
918.049	15077
918.161	15306
918.272	15317
918.384	15298
918.495	15214
918.606	15077
918.717	14963
918.828	15024
918.939	15119
919.05	14982
919.161	15089
919.272	14785
919.383	14933
919.494	15077
919.604	15233
919.715	14929
919.826	15043
919.936	14925
920.047	15074
920.157	15039
920.267	15127
920.378	15017
920.488	14864
920.598	15214
920.708	15211
920.818	15100
920.928	15165
921.038	15230
921.148	15233
921.258	14960
921.368	14830
921.477	14682
921.587	14674
921.697	14621
921.806	14720
921.916	14613
922.025	14427
922.134	14332
922.244	14313
922.353	14396
922.462	14294
922.571	14084
922.68	13997
922.789	13982
922.898	14012
923.007	13917
923.116	13986
923.224	13928
923.333	13970
923.442	13864
923.55	13841
923.659	13788
923.767	13902
923.876	13765
923.984	13772
924.092	13655
924.201	13772
924.309	13750
924.417	13780
924.525	13658
924.633	13658
924.741	14473
924.849	13354
924.956	13502
925.064	13457
925.172	13384
925.279	13434
925.387	13358
925.494	13327
925.602	13552
925.709	13472
925.816	13225
925.924	13297
926.031	13350
926.138	13324
926.245	13381
926.352	13282
926.459	13308
926.566	13343
926.673	13213
926.779	13217
926.886	13076
926.993	13057
927.099	12856
927.206	12859
927.312	12776
927.419	12939
927.525	12932
927.631	12901
927.737	12806
927.843	12783
927.95	12616
928.056	12662
928.162	12692
928.267	12901
928.373	13301
928.479	12798
928.585	12578
928.69	12620
928.796	12719
928.901	12620
929.007	12448
929.112	12620
929.218	12616
929.323	12407
929.428	12422
929.533	12635
929.638	12384
929.743	12403
929.848	12467
929.953	12414
930.058	12262
930.163	12117
930.267	12091
930.372	12277
930.477	12114
930.581	12315
930.685	12159
930.79	12068
930.894	12057
930.998	12030
931.103	12140
931.207	11733
931.311	11684
931.415	11638
931.519	11391
931.623	11421
