Data from test_V78500241_2223.txt Node
Date: Fri Mar 25 15:25:20 CST 2022
User: usil
Spectrometer: V785-0024
Trigger mode: 0
Integration Time (sec): 4.000000E-1
Scans to average: 1
Nonlinearity correction enabled: false
Boxcar width: 0
Storing dark spectrum: false
XAxis mode: Wavelengths
Number of Pixels in Spectrum: 1024
>>>>>Begin Spectral Data<<<<<
801.071	27785
801.214	27808
801.356	27561
801.499	27462
801.641	27264
801.783	27222
801.926	27355
802.068	27199
802.211	27344
802.353	27184
802.496	26948
802.638	26956
802.78	26910
802.923	26815
803.065	26781
803.208	26979
803.35	27104
803.492	27047
803.635	27104
803.777	27074
803.919	27188
804.061	27523
804.204	27233
804.346	27157
804.488	27055
804.63	27180
804.773	27001
804.915	27077
805.057	27306
805.199	27180
805.341	27157
805.483	27264
805.626	27214
805.768	27203
805.91	27321
806.052	27298
806.194	27165
806.336	27450
806.478	27294
806.62	27359
806.762	27580
806.904	27466
807.046	27812
807.188	27774
807.33	27774
807.472	27660
807.614	27580
807.756	27614
807.898	27545
808.04	27675
808.182	27454
808.324	27534
808.465	27564
808.607	27793
808.749	27854
808.891	27953
809.033	28112
809.174	27975
809.316	27781
809.458	27880
809.6	27789
809.741	27953
809.883	27930
810.025	28143
810.166	28211
810.308	28192
810.45	28093
810.591	28036
810.733	27968
810.875	27800
811.016	27663
811.158	27800
811.299	27987
811.441	28150
811.582	27922
811.724	27861
811.865	27838
812.007	27671
812.148	27774
812.29	27930
812.431	27987
812.573	28207
812.714	28379
812.855	28447
812.997	28497
813.138	28679
813.279	28538
813.421	28246
813.562	28299
813.703	28105
813.845	28124
813.986	27831
814.127	27644
814.268	27576
814.41	27564
814.551	27587
814.692	27720
814.833	27492
814.974	27694
815.115	27618
815.256	27424
815.397	27389
815.539	27355
815.68	27291
815.821	27298
815.962	27447
816.103	27447
816.244	27252
816.385	27252
816.526	27135
816.666	26952
816.807	26853
816.948	26883
817.089	26914
817.23	26811
817.371	26902
817.512	26834
817.653	26910
817.793	26853
817.934	26746
818.075	26849
818.216	26872
818.356	26781
818.497	26807
818.638	26408
818.778	26629
818.919	26522
819.06	26621
819.2	26819
819.341	26724
819.481	26773
819.622	26982
819.762	27112
819.903	26986
820.043	27047
820.184	26986
820.324	26933
820.465	27062
820.605	26914
820.746	26914
820.886	26830
821.026	26883
821.167	26724
821.307	26998
821.447	26838
821.588	26754
821.728	26693
821.868	26366
822.008	26377
822.149	26278
822.289	26317
822.429	26180
822.569	25894
822.709	25986
822.849	25951
822.99	25921
823.13	25814
823.27	25738
823.41	25643
823.55	25594
823.69	25738
823.83	25658
823.97	25590
824.11	25426
824.25	25354
824.389	25525
824.529	25624
824.669	25495
824.809	25544
824.949	25464
825.089	25525
825.228	25403
825.368	25206
825.508	25308
825.648	25384
825.787	25270
825.927	25529
826.067	25213
826.206	25213
826.346	25346
826.485	25422
826.625	25415
826.765	25430
826.904	25343
827.044	25152
827.183	25118
827.323	24970
827.462	25221
827.601	25080
827.741	25004
827.88	25114
828.02	25053
828.159	25000
828.298	24985
828.437	25027
828.577	24977
828.716	25099
828.855	24909
828.994	24814
829.134	24749
829.273	24707
829.412	24719
829.551	24646
829.69	24779
829.829	24863
829.968	24996
830.107	24703
830.246	24848
830.385	24757
830.524	24719
830.663	24593
830.802	24426
830.941	24414
831.08	24300
831.219	24376
831.357	24361
831.496	24635
831.635	24399
831.774	24232
831.913	24194
832.051	24072
832.19	24190
832.329	24220
832.467	24011
832.606	24079
832.744	24110
832.883	23977
833.022	24091
833.16	24022
833.299	24125
833.437	24068
833.576	24038
833.714	24129
833.852	24095
833.991	24072
834.129	24076
834.267	24053
834.406	24049
834.544	24003
834.682	24053
834.821	23984
834.959	24190
835.097	24072
835.235	24213
835.373	23958
835.511	23984
835.65	23843
835.788	23916
835.926	23790
836.064	23718
836.202	23737
836.34	24011
836.478	23939
836.615	23851
836.753	23840
836.891	23843
837.029	23843
837.167	23703
837.305	23767
837.443	23840
837.58	23805
837.718	23851
837.856	23764
837.993	23657
838.131	23794
838.269	23649
838.406	23558
838.544	23474
838.681	23452
838.819	23322
838.956	23208
839.094	23147
839.231	23151
839.369	23303
839.506	23592
839.643	23497
839.781	23208
839.918	23174
840.055	23242
840.193	23109
840.33	23242
840.467	23010
840.604	23075
840.742	23414
840.879	22923
841.016	23037
841.153	23060
841.29	23147
841.427	23113
841.564	23155
841.701	23022
841.838	23025
841.975	22949
842.112	23090
842.249	22938
842.385	22805
842.522	23121
842.659	22968
842.796	22953
842.933	22873
843.069	22782
843.206	22801
843.343	22953
843.479	22850
843.616	22828
843.752	22706
843.889	22675
844.025	22782
844.162	22687
844.298	22774
844.435	22679
844.571	22721
844.708	22702
844.844	22774
844.98	22698
845.117	22675
845.253	22535
845.389	22409
845.525	22481
845.661	22455
845.798	22295
845.934	22382
846.07	22188
846.206	22421
846.342	22428
846.478	22379
846.614	22188
846.75	22025
846.886	21975
847.022	22150
847.158	22067
847.294	22097
847.429	22124
847.565	22051
847.701	22382
847.837	21975
847.972	21819
848.108	21857
848.244	21816
848.379	21747
848.515	21717
848.65	21690
848.786	21808
848.921	21606
849.057	21720
849.192	21831
849.328	21682
849.463	21667
849.598	21660
849.734	21618
849.869	21572
850.004	21477
850.14	21545
850.275	21458
850.41	21393
850.545	21435
850.68	21450
850.815	21386
850.95	21447
851.085	21622
851.22	21667
851.355	21568
851.49	21443
851.625	21435
851.76	21408
851.895	21340
852.03	21336
852.165	21500
852.299	21378
852.434	21545
852.569	21549
852.703	21458
852.838	21561
852.973	21545
853.107	21458
853.242	21386
853.376	21218
853.511	21055
853.645	21188
853.78	21287
853.914	21332
854.048	21237
854.183	21173
854.317	21275
854.451	21534
854.585	21249
854.72	21268
854.854	21363
854.988	21294
855.122	21359
855.256	21203
855.39	21241
855.524	21332
855.658	21325
855.792	21332
855.926	21173
856.06	21378
856.194	21370
856.327	21332
856.461	21131
856.595	21203
856.729	21313
856.862	21397
856.996	21188
857.13	21306
857.263	21408
857.397	21374
857.53	21165
857.664	21169
857.797	21302
857.931	21294
858.064	21222
858.197	21382
858.331	21264
858.464	21188
858.597	21203
858.731	21241
858.864	21264
858.997	21264
859.13	21306
859.263	21397
859.396	21397
859.529	21245
859.662	21188
859.795	21138
859.928	21302
860.061	21477
860.194	21439
860.327	21359
860.46	21332
860.592	21382
860.725	21355
860.858	21363
860.99	21355
861.123	21176
861.256	21146
861.388	21370
861.521	22006
861.653	21146
861.786	21081
861.918	21241
862.05	21207
862.183	21260
862.315	21279
862.447	21306
862.58	21237
862.712	21058
862.844	20910
862.976	21009
863.108	21066
863.24	21367
863.372	20948
863.504	21051
863.636	20944
863.768	21009
863.9	20864
864.032	20826
864.164	20891
864.296	21017
864.428	21066
864.559	21127
864.691	21055
864.823	20906
864.954	20948
865.086	20883
865.217	20876
865.349	20872
865.48	20857
865.612	20910
865.743	21001
865.875	20853
866.006	20998
866.137	20868
866.269	20819
866.4	20762
866.531	20792
866.662	20727
866.793	20758
866.924	20678
867.055	20788
867.186	20857
867.317	20826
867.448	20712
867.579	20777
867.71	20880
867.841	20758
867.972	20830
868.103	20804
868.233	20891
868.364	20933
868.495	20941
868.625	21009
868.756	21081
868.886	20975
869.017	21055
869.147	21135
869.278	21085
869.408	21123
869.539	21119
869.669	21138
869.799	21066
869.929	21146
870.06	21154
870.19	21454
870.32	21260
870.45	21542
870.58	21454
870.71	21511
870.84	21447
870.97	21496
871.1	21386
871.23	21511
871.36	21671
871.489	21637
871.619	21557
871.749	21644
871.879	21587
872.008	21732
872.138	21637
872.267	21682
872.397	21466
872.526	21492
872.656	21545
872.785	21488
872.915	21660
873.044	21713
873.173	21675
873.303	21641
873.432	21778
873.561	21736
873.69	21694
873.819	21694
873.948	21720
874.077	21781
874.206	21618
874.335	21610
874.464	21759
874.593	21819
874.722	21838
874.851	21937
874.979	21934
875.108	21991
875.237	21964
875.365	21762
875.494	21865
875.623	22013
875.751	21759
875.88	21945
876.008	22013
876.136	21987
876.265	22226
876.393	22398
876.521	22466
876.65	22314
876.778	22166
876.906	22219
877.034	22234
877.162	22226
877.29	22166
877.418	22310
877.546	22291
877.674	22253
877.802	22287
877.93	22116
878.058	22169
878.185	22219
878.313	22143
878.441	22109
878.568	22082
878.696	22200
878.824	22246
878.951	22344
879.079	22409
879.206	22421
879.333	22459
879.461	22226
879.588	22322
879.715	22325
879.842	22599
879.97	22375
880.097	22032
880.224	22120
880.351	22109
880.478	22063
880.605	21964
880.732	22139
880.859	22325
880.986	22002
881.112	22192
881.239	21915
881.366	21850
881.493	21675
881.619	21587
881.746	21538
881.872	21641
881.999	21591
882.125	21511
882.252	21568
882.378	21591
882.505	21679
882.631	21393
882.757	21420
882.883	21542
883.01	21359
883.136	21386
883.262	21184
883.388	21119
883.514	21268
883.64	21336
883.766	21245
883.892	21017
884.018	21218
884.143	21310
884.269	21405
884.395	21169
884.52	21028
884.646	20956
884.772	20967
884.897	20872
885.023	20963
885.148	21077
885.274	21100
885.399	21135
885.524	21036
885.65	21043
885.775	20910
885.9	20918
886.025	21138
886.15	21112
886.275	20948
886.4	20906
886.525	20963
886.65	20861
886.775	20918
886.9	21013
887.025	21245
887.149	20944
887.274	20769
887.399	20712
887.523	20587
887.648	20712
887.773	20724
887.897	20750
888.021	20750
888.146	20693
888.27	20777
888.395	20807
888.519	20819
888.643	20788
888.767	20819
888.891	20587
889.015	20533
889.139	20678
889.263	20556
889.387	20617
889.511	20708
889.635	20625
889.759	20415
889.883	20518
890.006	20583
890.13	20552
890.254	20545
890.377	20461
890.501	20442
890.624	20259
890.748	20256
890.871	20096
890.995	20084
891.118	20096
891.241	20153
891.364	20111
891.488	20157
891.611	20172
891.734	20221
891.857	20180
891.98	20050
892.103	20153
892.226	20256
892.349	20107
892.471	19936
892.594	19986
892.717	20027
892.839	20046
892.962	20058
893.085	20115
893.207	19982
893.33	19883
893.452	20077
893.575	20065
893.697	20035
893.819	20043
893.941	20111
894.064	20119
894.186	20058
894.308	19955
894.43	20081
894.552	20206
894.674	20031
894.796	20012
894.918	19921
895.04	19947
895.161	19951
895.283	20016
895.405	19932
895.526	20001
895.648	19989
895.769	20065
895.891	20001
896.012	20084
896.134	20103
896.255	20046
896.376	20027
896.498	20005
896.619	19997
896.74	20008
896.861	20069
896.982	20385
897.103	20404
897.224	20298
897.345	20191
897.466	20252
897.587	20187
897.708	20351
897.828	20263
897.949	20145
898.07	20054
898.19	20145
898.311	20355
898.431	20130
898.552	20225
898.672	20294
898.792	20290
898.913	20210
899.033	20183
899.153	20050
899.273	19970
899.393	19986
899.513	19936
899.633	20054
899.753	20046
899.873	19841
899.993	20054
900.113	19852
900.232	19951
900.352	19822
900.472	19803
900.591	19761
900.711	19833
900.83	19742
900.95	19921
901.069	19814
901.189	19567
901.308	19400
901.427	19384
901.546	19308
901.665	19388
901.784	19373
901.904	19247
902.023	19129
902.141	19027
902.26	18897
902.379	18947
902.498	18867
902.617	18856
902.735	18856
902.854	18901
902.973	18829
903.091	18566
903.21	18525
903.328	18540
903.446	18369
903.565	18361
903.683	18365
903.801	18365
903.919	18251
904.038	18292
904.156	18133
904.274	18266
904.392	18159
904.51	18045
904.627	18121
904.745	18106
904.863	18095
904.981	17824
905.098	17745
905.216	17783
905.334	17859
905.451	17889
905.569	17764
905.686	17817
905.803	17687
905.921	17562
906.038	17687
906.155	17657
906.272	17482
906.389	17436
906.506	17292
906.623	17254
906.74	17284
906.857	17189
906.974	17151
907.091	17284
907.208	17463
907.324	17368
907.441	17166
907.557	17147
907.674	17029
907.79	16991
907.907	16968
908.023	16995
908.139	17067
908.256	16911
908.372	16991
908.488	16889
908.604	16790
908.72	16797
908.836	16721
908.952	16744
909.068	16763
909.184	16744
909.3	16702
909.415	16740
909.531	16752
909.647	16485
909.762	16504
909.878	16485
909.993	16489
910.108	16443
910.224	16325
910.339	16379
910.454	16348
910.57	16280
910.685	16192
910.8	16535
910.915	16455
911.03	16280
911.145	16074
911.259	16078
911.374	16090
911.489	15987
911.604	15945
911.718	15781
911.833	15724
911.947	15759
912.062	15652
912.176	15656
912.291	15835
912.405	15812
912.519	16051
912.633	16124
912.748	15800
912.862	15808
912.976	15549
913.09	15450
913.204	15561
913.318	15622
913.431	15686
913.545	15701
913.659	15713
913.772	15591
913.886	15469
914	15462
914.113	15519
914.226	15526
914.34	15428
914.453	15336
914.566	15386
914.68	15351
914.793	15237
914.906	15097
915.019	15009
915.132	14994
915.245	15005
915.358	15074
915.47	15074
915.583	15097
915.696	15062
915.809	15100
915.921	15169
916.034	14986
916.146	14872
916.259	14902
916.371	14963
916.483	14937
916.595	14830
916.708	14849
916.82	14910
916.932	14876
917.044	14815
917.156	14735
917.268	14762
917.38	14762
917.491	14575
917.603	14705
917.715	14724
917.826	14705
917.938	14568
918.049	14533
918.161	14613
918.272	14758
918.384	14739
918.495	14564
918.606	14438
918.717	14396
918.828	14530
918.939	14503
919.05	14507
919.161	14469
919.272	14218
919.383	14225
919.494	14473
919.604	14606
919.715	14423
919.826	14305
919.936	14332
920.047	14507
920.157	14366
920.267	14552
920.378	14484
920.488	14374
920.598	14556
920.708	14731
920.818	14537
920.928	14518
921.038	14716
921.148	14678
921.258	14358
921.368	14290
921.477	14142
921.587	14092
921.697	14001
921.806	14267
921.916	14008
922.025	13818
922.134	13849
922.244	13784
922.353	13799
922.462	13616
922.571	13620
922.68	13472
922.789	13384
922.898	13483
923.007	13415
923.116	13449
923.224	13388
923.333	13400
923.442	13274
923.55	13244
923.659	13335
923.767	13350
923.876	13206
923.984	13198
924.092	13156
924.201	13206
924.309	13160
924.417	13137
924.525	13194
924.633	13107
924.741	13887
924.849	12943
924.956	13008
925.064	12825
925.172	12795
925.279	12810
925.387	12943
925.494	12890
925.602	12958
925.709	12890
925.816	12787
925.924	12715
926.031	12894
926.138	12829
926.245	12894
926.352	12711
926.459	12768
926.566	12871
926.673	12741
926.779	12589
926.886	12563
926.993	12517
927.099	12437
927.206	12475
927.312	12342
927.419	12456
927.525	12426
927.631	12460
927.737	12342
927.843	12266
927.95	12201
928.056	12182
928.162	12270
928.267	12167
928.373	12909
928.479	12273
928.585	12129
928.69	12178
928.796	12232
928.901	12007
929.007	12007
929.112	12091
929.218	11946
929.323	11973
929.428	12045
929.533	12072
929.638	11847
929.743	11958
929.848	11950
929.953	11843
930.058	11794
930.163	11611
930.267	11703
930.372	11809
930.477	11585
930.581	11779
930.685	11718
930.79	11615
930.894	11520
930.998	11497
931.103	11718
931.207	11315
931.311	11242
931.415	11162
931.519	10889
931.623	10877
