Data from test_V78500241_2835.txt Node
Date: Fri Mar 25 15:29:36 CST 2022
User: usil
Spectrometer: V785-0024
Trigger mode: 0
Integration Time (sec): 4.000000E-1
Scans to average: 1
Nonlinearity correction enabled: false
Boxcar width: 0
Storing dark spectrum: false
XAxis mode: Wavelengths
Number of Pixels in Spectrum: 1024
>>>>>Begin Spectral Data<<<<<
801.071	27393
801.214	27321
801.356	27119
801.499	26902
801.641	26823
801.783	26705
801.926	26937
802.068	26883
802.211	26796
802.353	26648
802.496	26480
802.638	26511
802.78	26446
802.923	26298
803.065	26393
803.208	26271
803.35	26389
803.492	26670
803.635	26750
803.777	26457
803.919	26530
804.061	26929
804.204	26514
804.346	26499
804.488	26484
804.63	26648
804.773	26606
804.915	26621
805.057	26739
805.199	26602
805.341	26644
805.483	26762
805.626	26731
805.768	26579
805.91	26659
806.052	26632
806.194	26568
806.336	26967
806.478	26648
806.62	26796
806.762	26834
806.904	27001
807.046	27256
807.188	27176
807.33	27100
807.472	27279
807.614	27043
807.756	26998
807.898	27036
808.04	26864
808.182	26960
808.324	27024
808.465	27058
808.607	27176
808.749	27382
808.891	27370
809.033	27557
809.174	27435
809.316	27317
809.458	27268
809.6	27237
809.741	27458
809.883	27412
810.025	27583
810.166	27660
810.308	27549
810.45	27542
810.591	27561
810.733	27291
810.875	27283
811.016	27306
811.158	27237
811.299	27397
811.441	27587
811.582	27633
811.724	27507
811.865	27264
812.007	27294
812.148	27237
812.29	27408
812.431	27477
812.573	27622
812.714	27759
812.855	27823
812.997	27861
813.138	28124
813.279	27937
813.421	27713
813.562	27739
813.703	27641
813.845	27488
813.986	27230
814.127	27081
814.268	26998
814.41	26940
814.551	27096
814.692	27074
814.833	26853
814.974	26895
815.115	26986
815.256	27039
815.397	26963
815.539	26872
815.68	26701
815.821	26769
815.962	26758
816.103	26815
816.244	26648
816.385	26583
816.526	26507
816.666	26366
816.807	26126
816.948	26358
817.089	26389
817.23	26298
817.371	26237
817.512	26294
817.653	26240
817.793	26008
817.934	26332
818.075	26275
818.216	26138
818.356	26187
818.497	26088
818.638	25959
818.778	25879
818.919	26024
819.06	26005
819.2	26107
819.341	26100
819.481	26339
819.622	26336
819.762	26587
819.903	26549
820.043	26473
820.184	26294
820.324	26415
820.465	26419
820.605	26248
820.746	26495
820.886	26248
821.026	26347
821.167	26332
821.307	26339
821.447	26237
821.588	26134
821.728	26100
821.868	25887
822.008	25662
822.149	25613
822.289	25719
822.429	25396
822.569	25362
822.709	25392
822.849	25225
822.99	25251
823.13	25175
823.27	25228
823.41	25099
823.55	24951
823.69	24871
823.83	25148
823.97	24890
824.11	24833
824.25	24802
824.389	24943
824.529	24890
824.669	24867
824.809	24852
824.949	24802
825.089	24947
825.228	24817
825.368	24753
825.508	24688
825.648	24749
825.787	24677
825.927	24890
826.067	24696
826.206	24692
826.346	24734
826.485	24738
826.625	24772
826.765	24924
826.904	24798
827.044	24475
827.183	24574
827.323	24426
827.462	24525
827.601	24410
827.741	24300
827.88	24308
828.02	24300
828.159	24410
828.298	24319
828.437	24509
828.577	24429
828.716	24486
828.855	24445
828.994	24053
829.134	24140
829.273	24224
829.412	23954
829.551	23988
829.69	24110
829.829	24087
829.968	24155
830.107	24106
830.246	24083
830.385	24121
830.524	23927
830.663	23923
830.802	23836
830.941	23577
831.08	23707
831.219	23847
831.357	23714
831.496	23996
831.635	23684
831.774	23467
831.913	23600
832.051	23512
832.19	23493
832.329	23478
832.467	23387
832.606	23280
832.744	23337
832.883	23261
833.022	23398
833.16	23395
833.299	23311
833.437	23311
833.576	23421
833.714	23592
833.852	23524
833.991	23486
834.129	23539
834.267	23558
834.406	23505
834.544	23528
834.682	23326
834.821	23558
834.959	23585
835.097	23345
835.235	23398
835.373	23341
835.511	23376
835.65	23277
835.788	23193
835.926	23124
836.064	23044
836.202	23162
836.34	23296
836.478	23376
836.615	23258
836.753	23296
836.891	23193
837.029	23280
837.167	23197
837.305	23140
837.443	23250
837.58	22991
837.718	23113
837.856	23033
837.993	23109
838.131	23113
838.269	23025
838.406	23037
838.544	22942
838.681	22744
838.819	22721
838.956	22573
839.094	22592
839.231	22683
839.369	22763
839.506	22942
839.643	22805
839.781	22599
839.918	22478
840.055	22630
840.193	22474
840.33	22550
840.467	22550
840.604	22675
840.742	22881
840.879	22474
841.016	22386
841.153	22382
841.29	22694
841.427	22409
841.564	22546
841.701	22573
841.838	22573
841.975	22417
842.112	22489
842.249	22405
842.385	22405
842.522	22588
842.659	22329
842.796	22287
842.933	22303
843.069	22276
843.206	22192
843.343	22314
843.479	22276
843.616	22219
843.752	22067
843.889	22040
844.025	22154
844.162	22059
844.298	22177
844.435	22025
844.571	21956
844.708	22173
844.844	22211
844.98	22192
845.117	22086
845.253	22010
845.389	21876
845.525	21979
845.661	21857
845.798	21819
845.934	21869
846.07	21736
846.206	21739
846.342	21819
846.478	21800
846.614	21599
846.75	21549
846.886	21576
847.022	21542
847.158	21622
847.294	21583
847.429	21568
847.565	21481
847.701	21850
847.837	21169
847.972	21245
848.108	21386
848.244	21336
848.379	21150
848.515	21051
848.65	21142
848.786	21116
848.921	21089
849.057	21169
849.192	21150
849.328	21173
849.463	21112
849.598	20990
849.734	21108
849.869	20952
850.004	20845
850.14	20899
850.275	20807
850.41	20845
850.545	20853
850.68	20895
850.815	20929
850.95	20918
851.085	21001
851.22	20925
851.355	20891
851.49	20952
851.625	20872
851.76	20800
851.895	20743
852.03	20762
852.165	20895
852.299	20944
852.434	20906
852.569	20861
852.703	20941
852.838	20956
852.973	20906
853.107	21001
853.242	20899
853.376	20632
853.511	20602
853.645	20716
853.78	20777
853.914	20629
854.048	20629
854.183	20667
854.317	20689
854.451	20842
854.585	20781
854.72	20712
854.854	20769
854.988	20613
855.122	20720
855.256	20598
855.39	20602
855.524	20689
855.658	20754
855.792	20788
855.926	20769
856.06	20708
856.194	20739
856.327	20735
856.461	20640
856.595	20701
856.729	20617
856.862	20933
856.996	20762
857.13	20731
857.263	20743
857.397	20773
857.53	20636
857.664	20716
857.797	20727
857.931	20781
858.064	20731
858.197	20838
858.331	20769
858.464	20792
858.597	20655
858.731	20701
858.864	20663
858.997	20598
859.13	20674
859.263	20739
859.396	20864
859.529	20724
859.662	20556
859.795	20648
859.928	20648
860.061	20842
860.194	20994
860.327	20613
860.46	20754
860.592	20777
860.725	20883
860.858	20785
860.99	20697
861.123	20663
861.256	20674
861.388	20655
861.521	21287
861.653	20549
861.786	20518
861.918	20583
862.05	20492
862.183	20632
862.315	20613
862.447	20739
862.58	20629
862.712	20404
862.844	20408
862.976	20484
863.108	20522
863.24	20937
863.372	20313
863.504	20431
863.636	20419
863.768	20503
863.9	20343
864.032	20271
864.164	20370
864.296	20408
864.428	20560
864.559	20549
864.691	20537
864.823	20438
864.954	20355
865.086	20328
865.217	20298
865.349	20218
865.48	20332
865.612	20278
865.743	20431
865.875	20355
866.006	20339
866.137	20313
866.269	20313
866.4	20183
866.531	20259
866.662	20218
866.793	20206
866.924	20336
867.055	20294
867.186	20199
867.317	20259
867.448	20233
867.579	20286
867.71	20237
867.841	20142
867.972	20248
868.103	20309
868.233	20183
868.364	20271
868.495	20332
868.625	20518
868.756	20571
868.886	20507
869.017	20514
869.147	20667
869.278	20613
869.408	20644
869.539	20355
869.669	20522
869.799	20522
869.929	20507
870.06	20640
870.19	20811
870.32	20705
870.45	20754
870.58	20883
870.71	20979
870.84	21005
870.97	20811
871.1	20807
871.23	21138
871.36	21081
871.489	21089
871.619	21017
871.749	20975
871.879	21093
872.008	21142
872.138	20944
872.267	21161
872.397	20986
872.526	20925
872.656	20880
872.785	20929
872.915	21135
873.044	21226
873.173	21188
873.303	21138
873.432	21226
873.561	21283
873.69	21184
873.819	21112
873.948	21192
874.077	21195
874.206	21108
874.335	21207
874.464	21264
874.593	21294
874.722	21214
874.851	21386
874.979	21237
875.108	21428
875.237	21306
875.365	21264
875.494	21294
875.623	21405
875.751	21291
875.88	21397
876.008	21443
876.136	21599
876.265	21717
876.393	21808
876.521	21789
876.65	21819
876.778	21785
876.906	21701
877.034	21728
877.162	21698
877.29	21625
877.418	21751
877.546	21705
877.674	21800
877.802	21663
877.93	21819
878.058	21743
878.185	21534
878.313	21549
878.441	21728
878.568	21641
878.696	21679
878.824	21656
878.951	21781
879.079	21831
879.206	21960
879.333	21816
879.461	21762
879.588	21838
879.715	21793
879.842	22070
879.97	21770
880.097	21656
880.224	21618
880.351	21603
880.478	21648
880.605	21553
880.732	21462
880.859	21804
880.986	21538
881.112	21698
881.239	21450
881.366	21313
881.493	21230
881.619	21047
881.746	21157
881.872	21043
881.999	21070
882.125	21116
882.252	21237
882.378	21036
882.505	21275
882.631	20933
882.757	20800
882.883	20834
883.01	20804
883.136	20792
883.262	20739
883.388	20667
883.514	20823
883.64	20937
883.766	20788
883.892	20762
884.018	20686
884.143	20785
884.269	20861
884.395	20499
884.52	20480
884.646	20450
884.772	20370
884.897	20362
885.023	20450
885.148	20602
885.274	20598
885.399	20575
885.524	20488
885.65	20412
885.775	20644
885.9	20408
886.025	20560
886.15	20415
886.275	20442
886.4	20256
886.525	20438
886.65	20423
886.775	20298
886.9	20556
887.025	20716
887.149	20434
887.274	20252
887.399	20065
887.523	20214
887.648	20233
887.773	20031
887.897	20355
888.021	20377
888.146	20191
888.27	20290
888.395	20317
888.519	20271
888.643	20180
888.767	20366
888.891	20172
889.015	20092
889.139	20084
889.263	19982
889.387	20050
889.511	20278
889.635	20122
889.759	20008
889.883	20092
890.006	20050
890.13	20202
890.254	20088
890.377	20046
890.501	19734
890.624	19769
890.748	19852
890.871	19704
890.995	19632
891.118	19552
891.241	19616
891.364	19696
891.488	19715
891.611	19727
891.734	19677
891.857	19700
891.98	19639
892.103	19639
892.226	19689
892.349	19647
892.471	19415
892.594	19658
892.717	19506
892.839	19510
892.962	19480
893.085	19533
893.207	19578
893.33	19468
893.452	19415
893.575	19635
893.697	19472
893.819	19727
893.941	19693
894.064	19613
894.186	19628
894.308	19460
894.43	19674
894.552	19628
894.674	19712
894.796	19434
894.918	19651
895.04	19685
895.161	19655
895.283	19567
895.405	19521
895.526	19483
895.648	19510
895.769	19548
895.891	19575
896.012	19719
896.134	19635
896.255	19635
896.376	19407
896.498	19529
896.619	19616
896.74	19639
896.861	19761
896.982	19818
897.103	19986
897.224	19856
897.345	19784
897.466	19681
897.587	19902
897.708	19932
897.828	19860
897.949	19826
898.07	19616
898.19	19822
898.311	19913
898.431	19731
898.552	19772
898.672	19883
898.792	19803
898.913	19845
899.033	19772
899.153	19544
899.273	19502
899.393	19613
899.513	19601
899.633	19575
899.753	19651
899.873	19510
899.993	19635
900.113	19635
900.232	19556
900.352	19468
900.472	19346
900.591	19324
900.711	19407
900.83	19335
900.95	19301
901.069	19502
901.189	19293
901.308	19095
901.427	18939
901.546	19008
901.665	18996
901.784	18920
901.904	18817
902.023	18692
902.141	18513
902.26	18521
902.379	18566
902.498	18467
902.617	18414
902.735	18486
902.854	18456
902.973	18308
903.091	18060
903.21	18213
903.328	18186
903.446	18121
903.565	17961
903.683	17996
903.801	17866
903.919	17851
904.038	17824
904.156	17756
904.274	17870
904.392	17627
904.51	17760
904.627	17699
904.745	17710
904.863	17695
904.981	17433
905.098	17299
905.216	17395
905.334	17387
905.451	17467
905.569	17269
905.686	17463
905.803	17421
905.921	17151
906.038	17277
906.155	17258
906.272	17041
906.389	17155
906.506	16980
906.623	17018
906.74	16923
906.857	16881
906.974	16790
907.091	16923
907.208	17037
907.324	16984
907.441	16740
907.557	16565
907.674	16519
907.79	16577
907.907	16561
908.023	16656
908.139	16744
908.256	16558
908.372	16615
908.488	16512
908.604	16367
908.72	16348
908.836	16371
908.952	16382
909.068	16318
909.184	16428
909.3	16329
909.415	16371
909.531	16291
909.647	16071
909.762	16112
909.878	16010
909.993	16055
910.108	16029
910.224	16074
910.339	16006
910.454	15956
910.57	16029
910.685	15804
910.8	15987
910.915	16074
911.03	15895
911.145	15644
911.259	15720
911.374	15652
911.489	15606
911.604	15557
911.718	15462
911.833	15500
911.947	15412
912.062	15211
912.176	15477
912.291	15496
912.405	15382
912.519	15603
912.633	15633
912.748	15454
912.862	15431
912.976	15237
913.09	15116
913.204	15207
913.318	15310
913.431	15283
913.545	15344
913.659	15256
913.772	15157
913.886	14998
914	15100
914.113	15169
914.226	15123
914.34	15108
914.453	14971
914.566	15100
914.68	14960
914.793	14887
914.906	14693
915.019	14686
915.132	14568
915.245	14716
915.358	14625
915.47	14659
915.583	14724
915.696	14693
915.809	14758
915.921	14758
916.034	14564
916.146	14571
916.259	14594
916.371	14583
916.483	14594
916.595	14568
916.708	14552
916.82	14530
916.932	14434
917.044	14412
917.156	14434
917.268	14351
917.38	14423
917.491	14347
917.603	14385
917.715	14351
917.826	14473
917.938	14233
918.049	14157
918.161	14286
918.272	14408
918.384	14389
918.495	14229
918.606	14161
918.717	14065
918.828	14073
918.939	14176
919.05	14027
919.161	14153
919.272	13879
919.383	13951
919.494	14069
919.604	14324
919.715	14012
919.826	13925
919.936	14031
920.047	14123
920.157	14130
920.267	14298
920.378	14111
920.488	13989
920.598	14320
920.708	14396
920.818	14202
920.928	14221
921.038	14343
921.148	14389
921.258	14031
921.368	13993
921.477	13791
921.587	13791
921.697	13696
921.806	13784
921.916	13704
922.025	13537
922.134	13445
922.244	13472
922.353	13540
922.462	13331
922.571	13213
922.68	13194
922.789	13122
922.898	13137
923.007	13061
923.116	13126
923.224	13129
923.333	13084
923.442	12943
923.55	12989
923.659	13053
923.767	13027
923.876	12886
923.984	12935
924.092	12905
924.201	12947
924.309	12848
924.417	12856
924.525	12844
924.633	12829
924.741	13750
924.849	12700
924.956	12722
925.064	12582
925.172	12494
925.279	12559
925.387	12536
925.494	12578
925.602	12692
925.709	12635
925.816	12471
925.924	12452
926.031	12631
926.138	12544
926.245	12551
926.352	12448
926.459	12627
926.566	12566
926.673	12407
926.779	12342
926.886	12388
926.993	12251
927.099	12155
927.206	12034
927.312	12163
927.419	12205
927.525	12155
927.631	12121
927.737	11992
927.843	11935
927.95	11954
928.056	11927
928.162	11946
928.267	12083
928.373	12658
928.479	11996
928.585	11832
928.69	11973
928.796	11916
928.901	11790
929.007	11710
929.112	11771
929.218	11779
929.323	11710
929.428	11718
929.533	11805
929.638	11642
929.743	11695
929.848	11783
929.953	11680
930.058	11551
930.163	11372
930.267	11474
930.372	11516
930.477	11383
930.581	11592
930.685	11414
930.79	11269
930.894	11299
930.998	11254
931.103	11444
931.207	11086
931.311	10968
931.415	10919
931.519	10736
931.623	10721
