Data from test_V78500241_3084.txt Node
Date: Fri Mar 25 15:31:20 CST 2022
User: usil
Spectrometer: V785-0024
Trigger mode: 0
Integration Time (sec): 4.000000E-1
Scans to average: 1
Nonlinearity correction enabled: false
Boxcar width: 0
Storing dark spectrum: false
XAxis mode: Wavelengths
Number of Pixels in Spectrum: 1024
>>>>>Begin Spectral Data<<<<<
801.071	27275
801.214	27218
801.356	27070
801.499	26994
801.641	26705
801.783	26830
801.926	27028
802.068	26872
802.211	26857
802.353	26727
802.496	26480
802.638	26579
802.78	26514
802.923	26393
803.065	26313
803.208	26358
803.35	26495
803.492	26632
803.635	26617
803.777	26495
803.919	26720
804.061	26933
804.204	26762
804.346	26670
804.488	26495
804.63	26648
804.773	26583
804.915	26568
805.057	26693
805.199	26545
805.341	26750
805.483	26804
805.626	26758
805.768	26720
805.91	26781
806.052	26788
806.194	26689
806.336	26819
806.478	26670
806.62	26727
806.762	26830
806.904	27028
807.046	27283
807.188	27138
807.33	27173
807.472	27165
807.614	26963
807.756	27051
807.898	27123
808.04	26952
808.182	27043
808.324	27039
808.465	27154
808.607	27214
808.749	27321
808.891	27313
809.033	27454
809.174	27329
809.316	27230
809.458	27332
809.6	27302
809.741	27386
809.883	27469
810.025	27667
810.166	27549
810.308	27610
810.45	27580
810.591	27530
810.733	27412
810.875	27317
811.016	27256
811.158	27230
811.299	27473
811.441	27606
811.582	27580
811.724	27367
811.865	27222
812.007	27294
812.148	27226
812.29	27431
812.431	27424
812.573	27736
812.714	27774
812.855	27667
812.997	27865
813.138	28150
813.279	27998
813.421	27755
813.562	27720
813.703	27538
813.845	27526
813.986	27199
814.127	27127
814.268	27074
814.41	27036
814.551	27096
814.692	26933
814.833	26960
814.974	27005
815.115	27009
815.256	26727
815.397	26921
815.539	26982
815.68	26731
815.821	26724
815.962	26826
816.103	26750
816.244	26579
816.385	26492
816.526	26640
816.666	26377
816.807	26275
816.948	26271
817.089	26290
817.23	26142
817.371	26244
817.512	26278
817.653	26176
817.793	26187
817.934	26225
818.075	26301
818.216	26355
818.356	26149
818.497	26107
818.638	25868
818.778	26005
818.919	25986
819.06	26081
819.2	26092
819.341	26191
819.481	26233
819.622	26328
819.762	26415
819.903	26606
820.043	26461
820.184	26336
820.324	26351
820.465	26587
820.605	26282
820.746	26252
820.886	26199
821.026	26183
821.167	26313
821.307	26499
821.447	26225
821.588	26164
821.728	26039
821.868	26001
822.008	25742
822.149	25662
822.289	25723
822.429	25495
822.569	25365
822.709	25354
822.849	25221
822.99	25133
823.13	25156
823.27	25179
823.41	25012
823.55	24886
823.69	25004
823.83	25050
823.97	24981
824.11	24859
824.25	24700
824.389	24738
824.529	24947
824.669	24920
824.809	25019
824.949	24920
825.089	24966
825.228	24810
825.368	24593
825.508	24669
825.648	24692
825.787	24749
825.927	24802
826.067	24635
826.206	24719
826.346	24753
826.485	24806
826.625	24825
826.765	24696
826.904	24810
827.044	24433
827.183	24532
827.323	24365
827.462	24597
827.601	24460
827.741	24475
827.88	24410
828.02	24357
828.159	24410
828.298	24521
828.437	24353
828.577	24380
828.716	24471
828.855	24251
828.994	24087
829.134	24102
829.273	24171
829.412	24076
829.551	23954
829.69	24053
829.829	24125
829.968	24232
830.107	24159
830.246	24224
830.385	23988
830.524	24022
830.663	24041
830.802	23961
830.941	23737
831.08	23657
831.219	23779
831.357	23885
831.496	23954
831.635	23764
831.774	23619
831.913	23604
832.051	23444
832.19	23630
832.329	23497
832.467	23402
832.606	23322
832.744	23360
832.883	23292
833.022	23330
833.16	23547
833.299	23395
833.437	23440
833.576	23558
833.714	23497
833.852	23448
833.991	23497
834.129	23596
834.267	23642
834.406	23497
834.544	23581
834.682	23478
834.821	23452
834.959	23604
835.097	23421
835.235	23486
835.373	23501
835.511	23360
835.65	23246
835.788	23303
835.926	23330
836.064	23174
836.202	23258
836.34	23406
836.478	23398
836.615	23326
836.753	23261
836.891	23277
837.029	23368
837.167	23349
837.305	23269
837.443	23204
837.58	23094
837.718	23258
837.856	23124
837.993	23083
838.131	23056
838.269	23178
838.406	23124
838.544	23056
838.681	22862
838.819	22866
838.956	22641
839.094	22634
839.231	22710
839.369	22869
839.506	23048
839.643	22946
839.781	22656
839.918	22721
840.055	22641
840.193	22538
840.33	22596
840.467	22500
840.604	22538
840.742	22831
840.879	22443
841.016	22516
841.153	22409
841.29	22554
841.427	22596
841.564	22607
841.701	22577
841.838	22478
841.975	22470
842.112	22466
842.249	22382
842.385	22527
842.522	22512
842.659	22443
842.796	22333
842.933	22284
843.069	22360
843.206	22337
843.343	22356
843.479	22360
843.616	22360
843.752	22067
843.889	22139
844.025	22280
844.162	22006
844.298	22280
844.435	22017
844.571	22128
844.708	21975
844.844	22303
844.98	22211
845.117	22128
845.253	22044
845.389	21960
845.525	22002
845.661	21953
845.798	21759
845.934	21861
846.07	21911
846.206	21816
846.342	21964
846.478	21888
846.614	21690
846.75	21481
846.886	21568
847.022	21755
847.158	21542
847.294	21667
847.429	21637
847.565	21576
847.701	21793
847.837	21325
847.972	21351
848.108	21477
848.244	21340
848.379	21279
848.515	21127
848.65	21165
848.786	21150
848.921	21161
849.057	21214
849.192	21214
849.328	21199
849.463	21199
849.598	21241
849.734	21077
849.869	20937
850.004	20861
850.14	20952
850.275	20910
850.41	20845
850.545	20750
850.68	20842
850.815	20914
850.95	20921
851.085	21074
851.22	21070
851.355	20941
851.49	21013
851.625	20990
851.76	20963
851.895	20792
852.03	20845
852.165	20921
852.299	21047
852.434	21123
852.569	21005
852.703	20914
852.838	20990
852.973	21192
853.107	21001
853.242	20944
853.376	20773
853.511	20636
853.645	20800
853.78	20982
853.914	20887
854.048	20712
854.183	20746
854.317	20838
854.451	20948
854.585	20693
854.72	20815
854.854	20925
854.988	20632
855.122	20830
855.256	20773
855.39	20724
855.524	20902
855.658	20834
855.792	20788
855.926	20762
856.06	20785
856.194	20891
856.327	20769
856.461	20693
856.595	20785
856.729	20842
856.862	20944
856.996	20701
857.13	20861
857.263	20971
857.397	20971
857.53	20606
857.664	20823
857.797	20697
857.931	20948
858.064	20743
858.197	20815
858.331	20720
858.464	20727
858.597	20697
858.731	20773
858.864	20880
858.997	20849
859.13	20777
859.263	20914
859.396	20918
859.529	20792
859.662	20750
859.795	20686
859.928	20727
860.061	20971
860.194	20933
860.327	20693
860.46	20811
860.592	20876
860.725	20990
860.858	20883
860.99	20739
861.123	20640
861.256	20674
861.388	20815
861.521	21245
861.653	20697
861.786	20625
861.918	20678
862.05	20621
862.183	20655
862.315	20739
862.447	20796
862.58	20769
862.712	20526
862.844	20590
862.976	20549
863.108	20674
863.24	20781
863.372	20389
863.504	20431
863.636	20537
863.768	20514
863.9	20473
864.032	20438
864.164	20438
864.296	20545
864.428	20617
864.559	20602
864.691	20594
864.823	20568
864.954	20499
865.086	20545
865.217	20385
865.349	20278
865.48	20415
865.612	20263
865.743	20552
865.875	20366
866.006	20450
866.137	20351
866.269	20362
866.4	20347
866.531	20355
866.662	20282
866.793	20317
866.924	20374
867.055	20431
867.186	20366
867.317	20313
867.448	20187
867.579	20172
867.71	20278
867.841	20233
867.972	20358
868.103	20336
868.233	20358
868.364	20343
868.495	20469
868.625	20457
868.756	20598
868.886	20552
869.017	20492
869.147	20636
869.278	20644
869.408	20511
869.539	20518
869.669	20651
869.799	20541
869.929	20663
870.06	20686
870.19	20941
870.32	20914
870.45	20883
870.58	20887
870.71	21108
870.84	21192
870.97	20899
871.1	21043
871.23	21142
871.36	21317
871.489	20971
871.619	21157
871.749	21146
871.879	21344
872.008	21367
872.138	21180
872.267	21169
872.397	21013
872.526	20986
872.656	20967
872.785	21005
872.915	21138
873.044	21218
873.173	21233
873.303	21237
873.432	21249
873.561	21287
873.69	21245
873.819	21112
873.948	21256
874.077	21100
874.206	21135
874.335	21192
874.464	21302
874.593	21458
874.722	21317
874.851	21515
874.979	21504
875.108	21538
875.237	21272
875.365	21447
875.494	21424
875.623	21408
875.751	21450
875.88	21447
876.008	21492
876.136	21591
876.265	21823
876.393	21926
876.521	21907
876.65	21975
876.778	21949
876.906	21713
877.034	21797
877.162	21831
877.29	21732
877.418	21720
877.546	21804
877.674	21808
877.802	21747
877.93	21739
878.058	21682
878.185	21644
878.313	21682
878.441	21838
878.568	21534
878.696	21599
878.824	21800
878.951	21926
879.079	21949
879.206	22021
879.333	21876
879.461	21812
879.588	21838
879.715	21911
879.842	22044
879.97	21781
880.097	21629
880.224	21644
880.351	21743
880.478	21724
880.605	21625
880.732	21587
880.859	21819
880.986	21549
881.112	21622
881.239	21515
881.366	21302
881.493	21203
881.619	21260
881.746	21233
881.872	21230
881.999	21077
882.125	21188
882.252	21233
882.378	21195
882.505	21188
882.631	21077
882.757	20925
882.883	20910
883.01	20849
883.136	20910
883.262	20762
883.388	20621
883.514	20853
883.64	20906
883.766	20910
883.892	20579
884.018	20617
884.143	20788
884.269	20868
884.395	20503
884.52	20552
884.646	20541
884.772	20556
884.897	20431
885.023	20492
885.148	20670
885.274	20678
885.399	20609
885.524	20530
885.65	20667
885.775	20495
885.9	20583
886.025	20701
886.15	20598
886.275	20495
886.4	20480
886.525	20526
886.65	20434
886.775	20313
886.9	20575
887.025	20693
887.149	20358
887.274	20336
887.399	20233
887.523	20355
887.648	20233
887.773	20149
887.897	20355
888.021	20457
888.146	20374
888.27	20282
888.395	20324
888.519	20374
888.643	20347
888.767	20374
888.891	20305
889.015	20199
889.139	20115
889.263	20138
889.387	20237
889.511	20339
889.635	20240
889.759	20077
889.883	20119
890.006	20145
890.13	20199
890.254	19997
890.377	20069
890.501	19833
890.624	19871
890.748	19978
890.871	19757
890.995	19674
891.118	19624
891.241	19670
891.364	19632
891.488	19723
891.611	19620
891.734	19708
891.857	19635
891.98	19643
892.103	19685
892.226	19693
892.349	19616
892.471	19559
892.594	19594
892.717	19647
892.839	19533
892.962	19693
893.085	19666
893.207	19628
893.33	19464
893.452	19655
893.575	19632
893.697	19586
893.819	19791
893.941	19803
894.064	19788
894.186	19415
894.308	19518
894.43	19651
894.552	19723
894.674	19712
894.796	19445
894.918	19578
895.04	19540
895.161	19655
895.283	19552
895.405	19559
895.526	19685
895.648	19540
895.769	19693
895.891	19620
896.012	19609
896.134	19651
896.255	19628
896.376	19480
896.498	19597
896.619	19761
896.74	19457
896.861	19742
896.982	19970
897.103	20073
897.224	19871
897.345	19868
897.466	19765
897.587	19731
897.708	20035
897.828	19826
897.949	19811
898.07	19613
898.19	19784
898.311	19849
898.431	19814
898.552	19833
898.672	19970
898.792	19963
898.913	19856
899.033	19788
899.153	19696
899.273	19620
899.393	19571
899.513	19620
899.633	19483
899.753	19613
899.873	19491
899.993	19597
900.113	19556
900.232	19605
900.352	19388
900.472	19449
900.591	19438
900.711	19445
900.83	19369
900.95	19457
901.069	19453
901.189	19293
901.308	19084
901.427	18977
901.546	19023
901.665	19053
901.784	19000
901.904	18814
902.023	18719
902.141	18620
902.26	18578
902.379	18665
902.498	18467
902.617	18654
902.735	18559
902.854	18498
902.973	18448
903.091	18277
903.21	18144
903.328	18076
903.446	18106
903.565	17904
903.683	17992
903.801	17863
903.919	17939
904.038	17965
904.156	17733
904.274	17870
904.392	17710
904.51	17714
904.627	17794
904.745	17737
904.863	17699
904.981	17623
905.098	17372
905.216	17505
905.334	17467
905.451	17539
905.569	17372
905.686	17471
905.803	17410
905.921	17159
906.038	17364
906.155	17227
906.272	17136
906.389	17083
906.506	16991
906.623	16991
906.74	17003
906.857	16869
906.974	16839
907.091	16991
907.208	17102
907.324	17045
907.441	16790
907.557	16755
907.674	16615
907.79	16679
907.907	16580
908.023	16683
908.139	16706
908.256	16512
908.372	16538
908.488	16599
908.604	16470
908.72	16432
908.836	16440
908.952	16299
909.068	16500
909.184	16481
909.3	16424
909.415	16542
909.531	16478
909.647	16131
909.762	16223
909.878	16010
909.993	16162
910.108	16044
910.224	15964
910.339	16169
910.454	15975
910.57	16006
910.685	15998
910.8	16063
910.915	16040
911.03	15934
911.145	15751
911.259	15732
911.374	15698
911.489	15747
911.604	15576
911.718	15496
911.833	15523
911.947	15348
912.062	15351
912.176	15576
912.291	15538
912.405	15496
912.519	15675
912.633	15644
912.748	15545
912.862	15481
912.976	15245
913.09	15180
913.204	15211
913.318	15142
913.431	15291
913.545	15370
913.659	15344
913.772	15245
913.886	15058
914	15051
914.113	15104
914.226	15195
914.34	15188
914.453	14975
914.566	15150
914.68	15001
914.793	14891
914.906	14792
915.019	14678
915.132	14598
915.245	14815
915.358	14773
915.47	14670
915.583	14701
915.696	14697
915.809	14765
915.921	14823
916.034	14667
916.146	14583
916.259	14594
916.371	14636
916.483	14731
916.595	14533
916.708	14522
916.82	14556
916.932	14480
917.044	14602
917.156	14442
917.268	14389
917.38	14419
917.491	14358
917.603	14351
917.715	14556
917.826	14450
917.938	14336
918.049	14199
918.161	14320
918.272	14412
918.384	14492
918.495	14317
918.606	14130
918.717	14081
918.828	14240
918.939	14202
919.05	14081
919.161	14168
919.272	13986
919.383	13993
919.494	14172
919.604	14301
919.715	14130
919.826	14012
919.936	14115
920.047	14111
920.157	14164
920.267	14351
920.378	14039
920.488	14073
920.598	14343
920.708	14336
920.818	14214
920.928	14286
921.038	14351
921.148	14408
921.258	14008
921.368	13940
921.477	13818
921.587	13875
921.697	13780
921.806	13875
921.916	13670
922.025	13571
922.134	13662
922.244	13464
922.353	13578
922.462	13464
922.571	13327
922.68	13202
922.789	13228
922.898	13122
923.007	13149
923.116	13232
923.224	13202
923.333	13126
923.442	13084
923.55	13004
923.659	13031
923.767	13072
923.876	12958
923.984	12966
924.092	12875
924.201	12878
924.309	13012
924.417	12947
924.525	12878
924.633	12837
924.741	13727
924.849	12662
924.956	12669
925.064	12608
925.172	12547
925.279	12574
925.387	12711
925.494	12601
925.602	12703
925.709	12658
925.816	12456
925.924	12563
926.031	12700
926.138	12517
926.245	12631
926.352	12391
926.459	12646
926.566	12631
926.673	12498
926.779	12319
926.886	12315
926.993	12182
927.099	12152
927.206	12129
927.312	12106
927.419	12194
927.525	12178
927.631	12186
927.737	12045
927.843	12083
927.95	11958
928.056	11996
928.162	12007
928.267	12064
928.373	12635
928.479	12106
928.585	11817
928.69	11942
928.796	11965
928.901	11794
929.007	11798
929.112	11832
929.218	11802
929.323	11764
929.428	11767
929.533	11863
929.638	11688
929.743	11745
929.848	11767
929.953	11562
930.058	11528
930.163	11425
930.267	11493
930.372	11528
930.477	11322
930.581	11623
930.685	11509
930.79	11311
930.894	11417
930.998	11277
931.103	11410
931.207	11014
931.311	11003
931.415	10911
931.519	10763
931.623	10725
