Data from test_V78500241_2068.txt Node
Date: Fri Mar 25 15:24:15 CST 2022
User: usil
Spectrometer: V785-0024
Trigger mode: 0
Integration Time (sec): 4.000000E-1
Scans to average: 1
Nonlinearity correction enabled: false
Boxcar width: 0
Storing dark spectrum: false
XAxis mode: Wavelengths
Number of Pixels in Spectrum: 1024
>>>>>Begin Spectral Data<<<<<
801.071	27789
801.214	27622
801.356	27439
801.499	27469
801.641	27317
801.783	27214
801.926	27401
802.068	27363
802.211	27249
802.353	27249
802.496	26998
802.638	26952
802.78	27009
802.923	26785
803.065	26872
803.208	26952
803.35	26940
803.492	27173
803.635	27161
803.777	26956
803.919	27195
804.061	27420
804.204	27214
804.346	27131
804.488	27142
804.63	27203
804.773	26975
804.915	27127
805.057	27230
805.199	27283
805.341	27218
805.483	27321
805.626	27291
805.768	27077
805.91	27226
806.052	27184
806.194	27173
806.336	27408
806.478	27348
806.62	27272
806.762	27370
806.904	27633
807.046	27679
807.188	27766
807.33	27705
807.472	27755
807.614	27736
807.756	27751
807.898	27504
808.04	27477
808.182	27439
808.324	27485
808.465	27504
808.607	27914
808.749	27880
808.891	27911
809.033	28109
809.174	27983
809.316	27804
809.458	27785
809.6	27880
809.741	27956
809.883	28112
810.025	28230
810.166	28238
810.308	28051
810.45	28196
810.591	27991
810.733	27934
810.875	27907
811.016	27850
811.158	27736
811.299	27968
811.441	27926
811.582	27991
811.724	27846
811.865	27937
812.007	27922
812.148	27869
812.29	27972
812.431	28097
812.573	28204
812.714	28284
812.855	28440
812.997	28466
813.138	28702
813.279	28569
813.421	28379
813.562	28352
813.703	28337
813.845	28036
813.986	27835
814.127	27793
814.268	27561
814.41	27610
814.551	27652
814.692	27591
814.833	27530
814.974	27443
815.115	27576
815.256	27420
815.397	27572
815.539	27466
815.68	27416
815.821	27359
815.962	27310
816.103	27207
816.244	27306
816.385	27176
816.526	27226
816.666	27055
816.807	26876
816.948	26971
817.089	26982
817.23	26994
817.371	26845
817.512	26842
817.653	26811
817.793	26830
817.934	26838
818.075	26952
818.216	26883
818.356	26819
818.497	26693
818.638	26674
818.778	26594
818.919	26636
819.06	26629
819.2	26788
819.341	26845
819.481	26834
819.622	27062
819.762	27150
819.903	27127
820.043	27074
820.184	27051
820.324	26914
820.465	27055
820.605	26883
820.746	27066
820.886	26880
821.026	26906
821.167	27055
821.307	26990
821.447	26815
821.588	26823
821.728	26556
821.868	26476
822.008	26305
822.149	26400
822.289	26282
822.429	26062
822.569	26027
822.709	26043
822.849	25818
822.99	25734
823.13	25833
823.27	25902
823.41	25590
823.55	25506
823.69	25693
823.83	25578
823.97	25586
824.11	25331
824.25	25430
824.389	25434
824.529	25651
824.669	25377
824.809	25635
824.949	25556
825.089	25590
825.228	25544
825.368	25304
825.508	25343
825.648	25324
825.787	25388
825.927	25449
826.067	25331
826.206	25263
826.346	25529
826.485	25331
826.625	25278
826.765	25510
826.904	25525
827.044	25141
827.183	25095
827.323	25091
827.462	25015
827.601	24996
827.741	25008
827.88	24996
828.02	24935
828.159	25046
828.298	25053
828.437	24951
828.577	25027
828.716	25042
828.855	24989
828.994	24722
829.134	24837
829.273	24783
829.412	24814
829.551	24703
829.69	24947
829.829	24711
829.968	24905
830.107	24837
830.246	24673
830.385	24745
830.524	24665
830.663	24441
830.802	24410
830.941	24441
831.08	24357
831.219	24410
831.357	24460
831.496	24566
831.635	24330
831.774	24300
831.913	24300
832.051	24243
832.19	24121
832.329	24186
832.467	24015
832.606	24049
832.744	24018
832.883	23965
833.022	24068
833.16	23999
833.299	24060
833.437	24057
833.576	24129
833.714	23931
833.852	24209
833.991	24110
834.129	24159
834.267	24114
834.406	24076
834.544	24106
834.682	24178
834.821	24072
834.959	24205
835.097	24053
835.235	24102
835.373	24129
835.511	24098
835.65	23863
835.788	23931
835.926	23737
836.064	23836
836.202	23767
836.34	23828
836.478	24026
836.615	23916
836.753	23980
836.891	23999
837.029	23980
837.167	23984
837.305	23821
837.443	23737
837.58	23813
837.718	23901
837.856	23771
837.993	23748
838.131	23760
838.269	23539
838.406	23661
838.544	23615
838.681	23402
838.819	23520
838.956	23197
839.094	23185
839.231	23372
839.369	23299
839.506	23642
839.643	23452
839.781	23254
839.918	23204
840.055	23193
840.193	23181
840.33	23132
840.467	23174
840.604	23216
840.742	23303
840.879	23064
841.016	23109
841.153	22980
841.29	23296
841.427	23143
841.564	23178
841.701	23098
841.838	23079
841.975	23075
842.112	23094
842.249	22927
842.385	22889
842.522	23090
842.659	22991
842.796	22877
842.933	22930
843.069	22862
843.206	22873
843.343	22984
843.479	22968
843.616	22930
843.752	22672
843.889	22702
844.025	22771
844.162	22588
844.298	22698
844.435	22645
844.571	22588
844.708	22835
844.844	22755
844.98	22889
845.117	22744
845.253	22721
845.389	22596
845.525	22717
845.661	22493
845.798	22333
845.934	22417
846.07	22504
846.206	22554
846.342	22402
846.478	22276
846.614	22234
846.75	22120
846.886	22135
847.022	22329
847.158	22234
847.294	22276
847.429	22185
847.565	22090
847.701	22447
847.837	21838
847.972	21759
848.108	21953
848.244	21964
848.379	21785
848.515	21739
848.65	21895
848.786	21701
848.921	21671
849.057	21739
849.192	21778
849.328	21713
849.463	21705
849.598	21743
849.734	21564
849.869	21568
850.004	21545
850.14	21526
850.275	21504
850.41	21523
850.545	21507
850.68	21443
850.815	21496
850.95	21580
851.085	21633
851.22	21545
851.355	21557
851.49	21408
851.625	21431
851.76	21439
851.895	21424
852.03	21462
852.165	21519
852.299	21485
852.434	21618
852.569	21549
852.703	21477
852.838	21458
852.973	21717
853.107	21675
853.242	21355
853.376	21332
853.511	21214
853.645	21279
853.78	21408
853.914	21283
854.048	21252
854.183	21283
854.317	21252
854.451	21511
854.585	21332
854.72	21287
854.854	21386
854.988	21355
855.122	21313
855.256	21222
855.39	21313
855.524	21370
855.658	21393
855.792	21310
855.926	21275
856.06	21424
856.194	21405
856.327	21401
856.461	21264
856.595	21298
856.729	21203
856.862	21359
856.996	21275
857.13	21443
857.263	21393
857.397	21367
857.53	21275
857.664	21397
857.797	21370
857.931	21351
858.064	21294
858.197	21481
858.331	21325
858.464	21306
858.597	21226
858.731	21264
858.864	21176
858.997	21222
859.13	21283
859.263	21382
859.396	21355
859.529	21370
859.662	21150
859.795	21214
859.928	21439
860.061	21481
860.194	21473
860.327	21348
860.46	21408
860.592	21481
860.725	21458
860.858	21496
860.99	21462
861.123	21310
861.256	21294
861.388	21359
861.521	21987
861.653	21142
861.786	21009
861.918	21100
862.05	21233
862.183	21256
862.315	21260
862.447	21279
862.58	21275
862.712	20921
862.844	20986
862.976	21161
863.108	21108
863.24	21447
863.372	20967
863.504	21135
863.636	21157
863.768	21116
863.9	20933
864.032	20998
864.164	20990
864.296	21058
864.428	21039
864.559	21005
864.691	21108
864.823	21066
864.954	21028
865.086	20921
865.217	20963
865.349	20842
865.48	20811
865.612	20933
865.743	21058
865.875	21009
866.006	20868
866.137	20971
866.269	20937
866.4	20788
866.531	20823
866.662	20864
866.793	20815
866.924	20918
867.055	20826
867.186	21024
867.317	20815
867.448	20777
867.579	20785
867.71	20762
867.841	20712
867.972	20876
868.103	20758
868.233	20811
868.364	20910
868.495	20880
868.625	21093
868.756	21157
868.886	21047
869.017	20982
869.147	21313
869.278	21222
869.408	21195
869.539	20990
869.669	21161
869.799	21275
869.929	21313
870.06	21176
870.19	21424
870.32	21344
870.45	21420
870.58	21496
870.71	21576
870.84	21549
870.97	21534
871.1	21424
871.23	21637
871.36	21739
871.489	21545
871.619	21679
871.749	21694
871.879	21709
872.008	21819
872.138	21739
872.267	21686
872.397	21553
872.526	21519
872.656	21568
872.785	21507
872.915	21709
873.044	21797
873.173	21808
873.303	21755
873.432	21941
873.561	21876
873.69	21701
873.819	21774
873.948	21755
874.077	21755
874.206	21728
874.335	21751
874.464	21819
874.593	22029
874.722	21880
874.851	21945
874.979	21941
875.108	21998
875.237	21880
875.365	21838
875.494	21907
875.623	22048
875.751	21934
875.88	21968
876.008	22105
876.136	22230
876.265	22413
876.393	22519
876.521	22322
876.65	22379
876.778	22272
876.906	22192
877.034	22390
877.162	22284
877.29	22234
877.418	22219
877.546	22211
877.674	22257
877.802	22291
877.93	22204
878.058	22348
878.185	22215
878.313	22219
878.441	22291
878.568	22185
878.696	22200
878.824	22341
878.951	22314
879.079	22443
879.206	22577
879.333	22371
879.461	22230
879.588	22409
879.715	22443
879.842	22497
879.97	22402
880.097	22082
880.224	22166
880.351	22139
880.478	22173
880.605	22063
880.732	22036
880.859	22367
880.986	22143
881.112	22082
881.239	22070
881.366	21816
881.493	21774
881.619	21709
881.746	21694
881.872	21682
881.999	21618
882.125	21591
882.252	21713
882.378	21732
882.505	21838
882.631	21473
882.757	21317
882.883	21511
883.01	21515
883.136	21298
883.262	21313
883.388	21127
883.514	21340
883.64	21412
883.766	21310
883.892	21100
884.018	21195
884.143	21329
884.269	21405
884.395	21165
884.52	20967
884.646	21051
884.772	20864
884.897	20937
885.023	21066
885.148	21077
885.274	21195
885.399	21165
885.524	21009
885.65	21066
885.775	21112
885.9	20944
886.025	21154
886.15	21112
886.275	20921
886.4	20944
886.525	20971
886.65	20971
886.775	20929
886.9	21169
887.025	21138
887.149	20971
887.274	20872
887.399	20830
887.523	20743
887.648	20720
887.773	20724
887.897	20895
888.021	20853
888.146	20773
888.27	20914
888.395	20899
888.519	20796
888.643	20876
888.767	20861
888.891	20735
889.015	20625
889.139	20632
889.263	20507
889.387	20670
889.511	20807
889.635	20765
889.759	20552
889.883	20602
890.006	20511
890.13	20739
890.254	20419
890.377	20560
890.501	20339
890.624	20355
890.748	20427
890.871	20305
890.995	20119
891.118	20050
891.241	20278
891.364	20202
891.488	20355
891.611	20176
891.734	20164
891.857	20317
891.98	20142
892.103	20092
892.226	20240
892.349	20206
892.471	19860
892.594	20149
892.717	19989
892.839	20039
892.962	20005
893.085	20180
893.207	20111
893.33	19993
893.452	20008
893.575	20138
893.697	20107
893.819	20271
893.941	20278
894.064	20183
894.186	19894
894.308	19963
894.43	20115
894.552	20096
894.674	20107
894.796	20058
894.918	20092
895.04	20001
895.161	20180
895.283	20145
895.405	19974
895.526	20111
895.648	20031
895.769	20168
895.891	20088
896.012	20153
896.134	20202
896.255	20145
896.376	20001
896.498	20119
896.619	20062
896.74	20111
896.861	20142
896.982	20301
897.103	20511
897.224	20343
897.345	20248
897.466	20237
897.587	20362
897.708	20457
897.828	20309
897.949	20259
898.07	20134
898.19	20168
898.311	20309
898.431	20206
898.552	20164
898.672	20419
898.792	20324
898.913	20290
899.033	20229
899.153	20115
899.273	19989
899.393	20119
899.513	20084
899.633	19959
899.753	19970
899.873	20012
899.993	19989
900.113	20008
900.232	19944
900.352	19784
900.472	19890
900.591	19871
900.711	19898
900.83	19807
900.95	19917
901.069	19955
901.189	19651
901.308	19529
901.427	19316
901.546	19377
901.665	19396
901.784	19441
901.904	19240
902.023	19247
902.141	19034
902.26	18958
902.379	19023
902.498	19015
902.617	18787
902.735	18935
902.854	18932
902.973	18753
903.091	18654
903.21	18589
903.328	18639
903.446	18429
903.565	18399
903.683	18441
903.801	18190
903.919	18296
904.038	18365
904.156	18125
904.274	18323
904.392	18148
904.51	18087
904.627	18121
904.745	18243
904.863	18277
904.981	18007
905.098	17790
905.216	17718
905.334	17908
905.451	17813
905.569	17893
905.686	17866
905.803	17771
905.921	17627
906.038	17817
906.155	17718
906.272	17490
906.389	17585
906.506	17402
906.623	17330
906.74	17372
906.857	17162
906.974	17288
907.091	17467
907.208	17558
907.324	17391
907.441	17216
907.557	17121
907.674	17037
907.79	16980
907.907	17041
908.023	17136
908.139	17174
908.256	17010
908.372	16957
908.488	16976
908.604	16824
908.72	16778
908.836	16835
908.952	16713
909.068	16824
909.184	16847
909.3	16736
909.415	16687
909.531	16816
909.647	16634
909.762	16424
909.878	16519
909.993	16523
910.108	16531
910.224	16466
910.339	16497
910.454	16352
910.57	16337
910.685	16265
910.8	16546
910.915	16470
911.03	16223
911.145	16116
911.259	16059
911.374	16166
911.489	16101
911.604	15918
911.718	15812
911.833	15888
911.947	15732
912.062	15698
912.176	15755
912.291	16013
912.405	15751
912.519	15987
912.633	16059
912.748	15808
912.862	15781
912.976	15698
913.09	15473
913.204	15618
913.318	15656
913.431	15652
913.545	15671
913.659	15755
913.772	15682
913.886	15477
914	15420
914.113	15492
914.226	15622
914.34	15576
914.453	15382
914.566	15549
914.68	15294
914.793	15336
914.906	15176
915.019	15032
915.132	15032
915.245	15157
915.358	15138
915.47	15142
915.583	15062
915.696	15043
915.809	15123
915.921	15233
916.034	14967
916.146	14982
916.259	14937
916.371	14921
916.483	14952
916.595	14902
916.708	14944
916.82	14914
916.932	14899
917.044	14834
917.156	14701
917.268	14769
917.38	14769
917.491	14765
917.603	14663
917.715	14773
917.826	14788
917.938	14667
918.049	14522
918.161	14686
918.272	14739
918.384	14762
918.495	14697
918.606	14511
918.717	14381
918.828	14522
918.939	14526
919.05	14465
919.161	14389
919.272	14248
919.383	14442
919.494	14480
919.604	14834
919.715	14434
919.826	14370
919.936	14419
920.047	14488
920.157	14423
920.267	14606
920.378	14465
920.488	14328
920.598	14579
920.708	14743
920.818	14594
920.928	14606
921.038	14762
921.148	14674
921.258	14393
921.368	14412
921.477	14225
921.587	14218
921.697	13997
921.806	14180
921.916	14027
922.025	13875
922.134	13902
922.244	13772
922.353	13894
922.462	13731
922.571	13647
922.68	13460
922.789	13343
922.898	13457
923.007	13422
923.116	13502
923.224	13571
923.333	13460
923.442	13434
923.55	13304
923.659	13350
923.767	13400
923.876	13263
923.984	13430
924.092	13244
924.201	13209
924.309	13274
924.417	13137
924.525	13114
924.633	13129
924.741	13932
924.849	12962
924.956	12985
925.064	12905
925.172	12905
925.279	12894
925.387	12890
925.494	12894
925.602	13031
925.709	12962
925.816	12726
925.924	12840
926.031	12916
926.138	12791
926.245	12932
926.352	12757
926.459	12897
926.566	12970
926.673	12787
926.779	12692
926.886	12635
926.993	12585
927.099	12502
927.206	12464
927.312	12407
927.419	12551
927.525	12365
927.631	12486
927.737	12270
927.843	12342
927.95	12163
928.056	12327
928.162	12369
928.267	12296
928.373	12920
928.479	12410
928.585	12030
928.69	12281
928.796	12239
928.901	12106
929.007	11961
929.112	12152
929.218	12083
929.323	12117
929.428	11920
929.533	12159
929.638	11904
929.743	11920
929.848	11973
929.953	11969
930.058	11843
930.163	11661
930.267	11718
930.372	11821
930.477	11714
930.581	11882
930.685	11737
930.79	11558
930.894	11623
930.998	11452
931.103	11642
931.207	11292
931.311	11265
931.415	11220
931.519	10999
931.623	10972
