Data from test_V78500241_3409.txt Node
Date: Fri Mar 25 15:33:35 CST 2022
User: usil
Spectrometer: V785-0024
Trigger mode: 0
Integration Time (sec): 4.000000E-1
Scans to average: 1
Nonlinearity correction enabled: false
Boxcar width: 0
Storing dark spectrum: false
XAxis mode: Wavelengths
Number of Pixels in Spectrum: 1024
>>>>>Begin Spectral Data<<<<<
801.071	27173
801.214	27283
801.356	27093
801.499	26948
801.641	26788
801.783	26697
801.926	26944
802.068	26746
802.211	26758
802.353	26674
802.496	26697
802.638	26461
802.78	26484
802.923	26427
803.065	26339
803.208	26301
803.35	26370
803.492	26461
803.635	26625
803.777	26511
803.919	26526
804.061	27013
804.204	26686
804.346	26514
804.488	26594
804.63	26514
804.773	26473
804.915	26492
805.057	26632
805.199	26408
805.341	26651
805.483	26708
805.626	26765
805.768	26670
805.91	26587
806.052	26697
806.194	26518
806.336	26876
806.478	26617
806.62	26792
806.762	26823
806.904	26982
807.046	27233
807.188	27135
807.33	27119
807.472	27230
807.614	26963
807.756	27001
807.898	26960
808.04	26788
808.182	26952
808.324	26883
808.465	26929
808.607	27154
808.749	27329
808.891	27355
809.033	27496
809.174	27279
809.316	27161
809.458	27226
809.6	27199
809.741	27287
809.883	27473
810.025	27614
810.166	27595
810.308	27603
810.45	27587
810.591	27523
810.733	27458
810.875	27397
811.016	27176
811.158	27214
811.299	27298
811.441	27576
811.582	27447
811.724	27264
811.865	27222
812.007	27329
812.148	27291
812.29	27264
812.431	27412
812.573	27838
812.714	27583
812.855	27918
812.997	27930
813.138	28112
813.279	27709
813.421	27869
813.562	27861
813.703	27599
813.845	27412
813.986	27199
814.127	27051
814.268	26967
814.41	26994
814.551	26948
814.692	27055
814.833	26758
814.974	26845
815.115	26918
815.256	26940
815.397	26849
815.539	26838
815.68	26739
815.821	26609
815.962	26708
816.103	26648
816.244	26598
816.385	26507
816.526	26545
816.666	26214
816.807	26210
816.948	26301
817.089	26271
817.23	26210
817.371	26142
817.512	26214
817.653	26309
817.793	26199
817.934	26180
818.075	26214
818.216	26130
818.356	26180
818.497	26043
818.638	25928
818.778	26031
818.919	25966
819.06	25993
819.2	26008
819.341	26275
819.481	26172
819.622	26275
819.762	26480
819.903	26389
820.043	26419
820.184	26214
820.324	26286
820.465	26381
820.605	26324
820.746	26389
820.886	26077
821.026	26465
821.167	26290
821.307	26370
821.447	26240
821.588	26130
821.728	25932
821.868	25940
822.008	25639
822.149	25719
822.289	25582
822.429	25289
822.569	25544
822.709	25400
822.849	25259
822.99	25190
823.13	25076
823.27	25152
823.41	24970
823.55	24943
823.69	25110
823.83	24989
823.97	24943
824.11	24692
824.25	24734
824.389	24795
824.529	24890
824.669	24840
824.809	24996
824.949	24886
825.089	24882
825.228	24935
825.368	24677
825.508	24753
825.648	24696
825.787	24639
825.927	24722
826.067	24517
826.206	24673
826.346	24711
826.485	24753
826.625	24673
826.765	24806
826.904	24734
827.044	24620
827.183	24433
827.323	24399
827.462	24547
827.601	24361
827.741	24327
827.88	24490
828.02	24338
828.159	24327
828.298	24521
828.437	24479
828.577	24258
828.716	24429
828.855	24266
828.994	24228
829.134	24155
829.273	24102
829.412	24201
829.551	24087
829.69	24247
829.829	24098
829.968	24281
830.107	24190
830.246	24136
830.385	24003
830.524	24136
830.663	23859
830.802	23836
830.941	23786
831.08	23710
831.219	23764
831.357	23889
831.496	23920
831.635	23695
831.774	23756
831.913	23608
832.051	23524
832.19	23543
832.329	23592
832.467	23474
832.606	23341
832.744	23296
832.883	23284
833.022	23299
833.16	23421
833.299	23425
833.437	23402
833.576	23535
833.714	23421
833.852	23551
833.991	23558
834.129	23478
834.267	23600
834.406	23436
834.544	23558
834.682	23554
834.821	23459
834.959	23627
835.097	23463
835.235	23577
835.373	23501
835.511	23406
835.65	23368
835.788	23307
835.926	23143
836.064	23170
836.202	23159
836.34	23383
836.478	23376
836.615	23299
836.753	23406
836.891	23436
837.029	23387
837.167	23334
837.305	23265
837.443	23254
837.58	23121
837.718	23296
837.856	23204
837.993	23136
838.131	23277
838.269	23094
838.406	23090
838.544	23041
838.681	23014
838.819	22835
838.956	22664
839.094	22675
839.231	22812
839.369	22930
839.506	23132
839.643	22854
839.781	22721
839.918	22725
840.055	22653
840.193	22698
840.33	22641
840.467	22596
840.604	22557
840.742	22866
840.879	22531
841.016	22554
841.153	22478
841.29	22694
841.427	22599
841.564	22698
841.701	22603
841.838	22630
841.975	22485
842.112	22516
842.249	22592
842.385	22470
842.522	22481
842.659	22417
842.796	22295
842.933	22386
843.069	22268
843.206	22280
843.343	22363
843.479	22375
843.616	22371
843.752	22063
843.889	22128
844.025	22325
844.162	22181
844.298	22128
844.435	22006
844.571	22124
844.708	22162
844.844	22169
844.98	22265
845.117	22128
845.253	22173
845.389	21991
845.525	21994
845.661	21991
845.798	21892
845.934	21903
846.07	21865
846.206	21953
846.342	21911
846.478	21857
846.614	21660
846.75	21591
846.886	21698
847.022	21778
847.158	21690
847.294	21633
847.429	21724
847.565	21580
847.701	21888
847.837	21397
847.972	21291
848.108	21450
848.244	21355
848.379	21321
848.515	21279
848.65	21199
848.786	21218
848.921	21241
849.057	21256
849.192	21329
849.328	21233
849.463	21142
849.598	21085
849.734	21085
849.869	20990
850.004	20941
850.14	20921
850.275	21039
850.41	21036
850.545	20982
850.68	20971
850.815	21070
850.95	20914
851.085	21123
851.22	20941
851.355	20960
851.49	20960
851.625	20990
851.76	20902
851.895	21005
852.03	20937
852.165	20830
852.299	20979
852.434	21085
852.569	20891
852.703	21051
852.838	21017
852.973	21150
853.107	21123
853.242	20986
853.376	20708
853.511	20674
853.645	20796
853.78	20800
853.914	20781
854.048	20739
854.183	20769
854.317	20834
854.451	20918
854.585	20883
854.72	20807
854.854	20792
854.988	20796
855.122	20830
855.256	20739
855.39	20705
855.524	20849
855.658	20754
855.792	20739
855.926	20754
856.06	20800
856.194	20868
856.327	20727
856.461	20625
856.595	20842
856.729	20773
856.862	20838
856.996	20773
857.13	20857
857.263	20952
857.397	20842
857.53	20842
857.664	20842
857.797	20979
857.931	20880
858.064	20845
858.197	20864
858.331	20864
858.464	20807
858.597	20644
858.731	20758
858.864	20781
858.997	20902
859.13	20811
859.263	20823
859.396	20872
859.529	20804
859.662	20815
859.795	20724
859.928	20788
860.061	21039
860.194	20979
860.327	20743
860.46	20807
860.592	20712
860.725	20895
860.858	21013
860.99	20769
861.123	20594
861.256	20648
861.388	20796
861.521	21382
861.653	20857
861.786	20590
861.918	20587
862.05	20765
862.183	20682
862.315	20796
862.447	20758
862.58	20823
862.712	20590
862.844	20366
862.976	20564
863.108	20522
863.24	21024
863.372	20419
863.504	20442
863.636	20518
863.768	20632
863.9	20511
864.032	20374
864.164	20438
864.296	20404
864.428	20606
864.559	20526
864.691	20609
864.823	20530
864.954	20473
865.086	20446
865.217	20488
865.349	20286
865.48	20393
865.612	20381
865.743	20568
865.875	20438
866.006	20305
866.137	20450
866.269	20492
866.4	20377
866.531	20290
866.662	20374
866.793	20248
866.924	20355
867.055	20305
867.186	20408
867.317	20362
867.448	20286
867.579	20381
867.71	20237
867.841	20214
867.972	20431
868.103	20355
868.233	20332
868.364	20332
868.495	20499
868.625	20632
868.756	20712
868.886	20389
869.017	20705
869.147	20701
869.278	20887
869.408	20533
869.539	20625
869.669	20583
869.799	20697
869.929	20651
870.06	20769
870.19	20845
870.32	20937
870.45	20979
870.58	21093
870.71	20990
870.84	21062
870.97	20979
871.1	20990
871.23	21169
871.36	21306
871.489	21081
871.619	21161
871.749	21317
871.879	21131
872.008	21367
872.138	21123
872.267	21157
872.397	21150
872.526	21100
872.656	21009
872.785	21062
872.915	21123
873.044	21401
873.173	21252
873.303	21237
873.432	21306
873.561	21428
873.69	21203
873.819	21226
873.948	21249
874.077	21203
874.206	21195
874.335	21211
874.464	21317
874.593	21374
874.722	21416
874.851	21378
874.979	21523
875.108	21431
875.237	21420
875.365	21363
875.494	21504
875.623	21538
875.751	21549
875.88	21568
876.008	21652
876.136	21698
876.265	21770
876.393	22051
876.521	22013
876.65	21903
876.778	21937
876.906	21865
877.034	21755
877.162	21781
877.29	21854
877.418	21876
877.546	21842
877.674	21724
877.802	21880
877.93	21736
878.058	21713
878.185	21705
878.313	21698
878.441	21800
878.568	21580
878.696	21827
878.824	21755
878.951	21781
879.079	21953
879.206	22070
879.333	22086
879.461	21899
879.588	21953
879.715	22040
879.842	22147
879.97	21861
880.097	21542
880.224	21861
880.351	21751
880.478	21766
880.605	21682
880.732	21660
880.859	21876
880.986	21660
881.112	21705
881.239	21462
881.366	21344
881.493	21378
881.619	21306
881.746	21294
881.872	21272
881.999	21245
882.125	21131
882.252	21310
882.378	21165
882.505	21275
882.631	21028
882.757	20914
882.883	20982
883.01	20933
883.136	20906
883.262	20842
883.388	20781
883.514	21036
883.64	20910
883.766	20823
883.892	20701
884.018	20746
884.143	20982
884.269	20967
884.395	20708
884.52	20511
884.646	20629
884.772	20705
884.897	20507
885.023	20621
885.148	20815
885.274	20689
885.399	20727
885.524	20712
885.65	20594
885.775	20613
885.9	20640
886.025	20632
886.15	20720
886.275	20511
886.4	20415
886.525	20511
886.65	20495
886.775	20423
886.9	20609
887.025	20765
887.149	20495
887.274	20442
887.399	20317
887.523	20385
887.648	20419
887.773	20248
887.897	20556
888.021	20366
888.146	20214
888.27	20438
888.395	20431
888.519	20374
888.643	20301
888.767	20358
888.891	20320
889.015	20149
889.139	20164
889.263	20206
889.387	20259
889.511	20423
889.635	20218
889.759	20126
889.883	20191
890.006	20278
890.13	20248
890.254	20058
890.377	20202
890.501	19944
890.624	19830
890.748	19955
890.871	19833
890.995	19723
891.118	19693
891.241	19738
891.364	19742
891.488	19921
891.611	19746
891.734	19662
891.857	19902
891.98	19685
892.103	19833
892.226	19765
892.349	19761
892.471	19563
892.594	19666
892.717	19662
892.839	19734
892.962	19708
893.085	19731
893.207	19510
893.33	19597
893.452	19472
893.575	19715
893.697	19670
893.819	19757
893.941	19822
894.064	19674
894.186	19647
894.308	19540
894.43	19651
894.552	19788
894.674	19734
894.796	19594
894.918	19704
895.04	19635
895.161	19746
895.283	19666
895.405	19693
895.526	19753
895.648	19571
895.769	19696
895.891	19799
896.012	19655
896.134	19651
896.255	19635
896.376	19529
896.498	19651
896.619	19613
896.74	19616
896.861	19852
896.982	19986
897.103	20191
897.224	19761
897.345	19955
897.466	19818
897.587	19925
897.708	19959
897.828	19868
897.949	19898
898.07	19780
898.19	19734
898.311	19978
898.431	19811
898.552	19906
898.672	19845
898.792	19837
898.913	19833
899.033	19894
899.153	19685
899.273	19731
899.393	19628
899.513	19689
899.633	19655
899.753	19757
899.873	19571
899.993	19662
900.113	19601
900.232	19605
900.352	19548
900.472	19384
900.591	19339
900.711	19419
900.83	19430
900.95	19533
901.069	19445
901.189	19255
901.308	19114
901.427	18943
901.546	19065
901.665	19046
901.784	19012
901.904	18844
902.023	18722
902.141	18521
902.26	18677
902.379	18661
902.498	18551
902.617	18456
902.735	18570
902.854	18479
902.973	18433
903.091	18209
903.21	18205
903.328	18220
903.446	18129
903.565	17988
903.683	17977
903.801	17904
903.919	17954
904.038	18041
904.156	17828
904.274	17866
904.392	17836
904.51	17786
904.627	17767
904.745	17851
904.863	17722
904.981	17634
905.098	17387
905.216	17414
905.334	17471
905.451	17505
905.569	17379
905.686	17440
905.803	17448
905.921	17269
906.038	17288
906.155	17242
906.272	17155
906.389	17166
906.506	17025
906.623	17079
906.74	17067
906.857	16831
906.974	16923
907.091	17105
907.208	17098
907.324	17090
907.441	16904
907.557	16721
907.674	16683
907.79	16687
907.907	16664
908.023	16793
908.139	16812
908.256	16694
908.372	16573
908.488	16558
908.604	16565
908.72	16512
908.836	16481
908.952	16402
909.068	16470
909.184	16542
909.3	16394
909.415	16436
909.531	16481
909.647	16211
909.762	16135
909.878	16128
909.993	16090
910.108	16116
910.224	16021
910.339	16059
910.454	16036
910.57	15953
910.685	15884
910.8	16192
910.915	16067
911.03	16006
911.145	15823
911.259	15759
911.374	15766
911.489	15709
911.604	15652
911.718	15496
911.833	15538
911.947	15439
912.062	15435
912.176	15504
912.291	15496
912.405	15515
912.519	15690
912.633	15656
912.748	15507
912.862	15485
912.976	15351
913.09	15233
913.204	15218
913.318	15310
913.431	15492
913.545	15485
913.659	15420
913.772	15279
913.886	15150
914	15112
914.113	15207
914.226	15241
914.34	15207
914.453	14982
914.566	15093
914.68	15017
914.793	15005
914.906	14823
915.019	14720
915.132	14777
915.245	14712
915.358	14792
915.47	14765
915.583	14708
915.696	14731
915.809	14864
915.921	14830
916.034	14686
916.146	14579
916.259	14644
916.371	14708
916.483	14587
916.595	14579
916.708	14610
916.82	14598
916.932	14636
917.044	14606
917.156	14613
917.268	14438
917.38	14431
917.491	14423
917.603	14442
917.715	14473
917.826	14571
917.938	14309
918.049	14267
918.161	14423
918.272	14431
918.384	14457
918.495	14328
918.606	14218
918.717	14119
918.828	14218
918.939	14240
919.05	14157
919.161	14176
919.272	13902
919.383	13993
919.494	14233
919.604	14351
919.715	14278
919.826	14077
919.936	14134
920.047	14157
920.157	14157
920.267	14294
920.378	14199
920.488	14111
920.598	14233
920.708	14423
920.818	14301
920.928	14259
921.038	14385
921.148	14366
921.258	13951
921.368	14050
921.477	13849
921.587	13864
921.697	13750
921.806	13856
921.916	13761
922.025	13624
922.134	13552
922.244	13457
922.353	13597
922.462	13533
922.571	13373
922.68	13251
922.789	13209
922.898	13217
923.007	13118
923.116	13289
923.224	13160
923.333	13221
923.442	13145
923.55	13000
923.659	13023
923.767	13129
923.876	13042
923.984	13080
924.092	12962
924.201	12935
924.309	12947
924.417	12882
924.525	12821
924.633	12821
924.741	13818
924.849	12654
924.956	12871
925.064	12673
925.172	12574
925.279	12665
925.387	12601
925.494	12544
925.602	12719
925.709	12623
925.816	12528
925.924	12467
926.031	12684
926.138	12559
926.245	12608
926.352	12532
926.459	12749
926.566	12616
926.673	12506
926.779	12422
926.886	12372
926.993	12254
927.099	12148
927.206	12106
927.312	12186
927.419	12342
927.525	12296
927.631	12220
927.737	12102
927.843	12007
927.95	11984
928.056	12053
928.162	12019
928.267	12057
928.373	12662
928.479	12182
928.585	11870
928.69	11973
928.796	11999
928.901	11931
929.007	11775
929.112	11904
929.218	11817
929.323	11794
929.428	11775
929.533	11897
929.638	11649
929.743	11684
929.848	11840
929.953	11741
930.058	11600
930.163	11474
930.267	11444
930.372	11566
930.477	11493
930.581	11691
930.685	11566
930.79	11372
930.894	11311
930.998	11326
931.103	11478
931.207	11121
931.311	11064
931.415	10911
931.519	10729
931.623	10717
