Data from test_V78500241_915.txt Node
Date: Fri Mar 25 15:16:13 CST 2022
User: usil
Spectrometer: V785-0024
Trigger mode: 0
Integration Time (sec): 4.000000E-1
Scans to average: 1
Nonlinearity correction enabled: false
Boxcar width: 0
Storing dark spectrum: false
XAxis mode: Wavelengths
Number of Pixels in Spectrum: 1024
>>>>>Begin Spectral Data<<<<<
801.071	28238
801.214	28006
801.356	27956
801.499	27781
801.641	27542
801.783	27781
801.926	27781
802.068	27762
802.211	27477
802.353	27405
802.496	27279
802.638	27272
802.78	27397
802.923	27241
803.065	27355
803.208	27348
803.35	27275
803.492	27416
803.635	27523
803.777	27355
803.919	27450
804.061	27850
804.204	27595
804.346	27542
804.488	27405
804.63	27523
804.773	27466
804.915	27530
805.057	27728
805.199	27462
805.341	27519
805.483	27580
805.626	27561
805.768	27591
805.91	27473
806.052	27705
806.194	27542
806.336	27865
806.478	27850
806.62	27682
806.762	27861
806.904	27876
807.046	28188
807.188	27998
807.33	28006
807.472	28082
807.614	27918
807.756	27998
807.898	27987
808.04	27850
808.182	27956
808.324	27827
808.465	27983
808.607	28120
808.749	28337
808.891	28459
809.033	28478
809.174	28421
809.316	28398
809.458	28268
809.6	28436
809.741	28413
809.883	28360
810.025	28485
810.166	28649
810.308	28668
810.45	28504
810.591	28527
810.733	28382
810.875	28333
811.016	28230
811.158	28356
811.299	28405
811.441	28542
811.582	28478
811.724	28284
811.865	28211
812.007	28280
812.148	28246
812.29	28371
812.431	28557
812.573	28656
812.714	28786
812.855	28713
812.997	29056
813.138	29147
813.279	29014
813.421	29029
813.562	28831
813.703	28698
813.845	28421
813.986	28249
814.127	28090
814.268	28109
814.41	28002
814.551	27972
814.692	28120
814.833	27831
814.974	27926
815.115	28147
815.256	27926
815.397	27888
815.539	27922
815.68	27812
815.821	27652
815.962	27800
816.103	27785
816.244	27622
816.385	27614
816.526	27545
816.666	27485
816.807	27214
816.948	27359
817.089	27553
817.23	27424
817.371	27348
817.512	27386
817.653	27348
817.793	27310
817.934	27462
818.075	27408
818.216	27412
818.356	27260
818.497	27233
818.638	26994
818.778	27207
818.919	27058
819.06	27195
819.2	27218
819.341	27131
819.481	27325
819.622	27435
819.762	27698
819.903	27599
820.043	27583
820.184	27530
820.324	27454
820.465	27526
820.605	27526
820.746	27481
820.886	27348
821.026	27386
821.167	27485
821.307	27496
821.447	27359
821.588	27370
821.728	27039
821.868	26857
822.008	26883
822.149	26792
822.289	26792
822.429	26644
822.569	26606
822.709	26503
822.849	26339
822.99	26324
823.13	26400
823.27	26317
823.41	26172
823.55	26027
823.69	26107
823.83	26164
823.97	26134
824.11	25989
824.25	25947
824.389	26031
824.529	25974
824.669	25909
824.809	26195
824.949	26187
825.089	26164
825.228	26084
825.368	25887
825.508	25875
825.648	25883
825.787	25845
825.927	25970
826.067	25849
826.206	25913
826.346	25772
826.485	25997
826.625	25811
826.765	25864
826.904	25932
827.044	25590
827.183	25723
827.323	25624
827.462	25651
827.601	25643
827.741	25662
827.88	25609
828.02	25445
828.159	25548
828.298	25734
828.437	25727
828.577	25571
828.716	25666
828.855	25693
828.994	25320
829.134	25324
829.273	25415
829.412	25206
829.551	25206
829.69	25479
829.829	25324
829.968	25304
830.107	25449
830.246	25320
830.385	25202
830.524	25179
830.663	25164
830.802	24909
830.941	24886
831.08	24977
831.219	25042
831.357	24913
831.496	25148
831.635	24973
831.774	24772
831.913	24738
832.051	24859
832.19	24673
832.329	24688
832.467	24555
832.606	24612
832.744	24479
832.883	24578
833.022	24471
833.16	24578
833.299	24627
833.437	24585
833.576	24616
833.714	24703
833.852	24681
833.991	24787
834.129	24661
834.267	24757
834.406	24825
834.544	24661
834.682	24601
834.821	24681
834.959	24802
835.097	24601
835.235	24753
835.373	24608
835.511	24703
835.65	24471
835.788	24547
835.926	24414
836.064	24395
836.202	24426
836.34	24494
836.478	24601
836.615	24471
836.753	24570
836.891	24589
837.029	24426
837.167	24544
837.305	24372
837.443	24426
837.58	24311
837.718	24456
837.856	24342
837.993	24361
838.131	24224
838.269	24220
838.406	24209
838.544	24011
838.681	24026
838.819	23999
838.956	23760
839.094	23897
839.231	23878
839.369	23912
839.506	24205
839.643	24007
839.781	23901
839.918	23756
840.055	23786
840.193	23699
840.33	23661
840.467	23668
840.604	23718
840.742	23977
840.879	23646
841.016	23703
841.153	23551
841.29	23817
841.427	23771
841.564	23748
841.701	23638
841.838	23649
841.975	23573
842.112	23649
842.249	23459
842.385	23417
842.522	23642
842.659	23672
842.796	23486
842.933	23433
843.069	23387
843.206	23467
843.343	23547
843.479	23376
843.616	23516
843.752	23254
843.889	23292
844.025	23383
844.162	23288
844.298	23246
844.435	23193
844.571	23269
844.708	23292
844.844	23429
844.98	23398
845.117	23227
845.253	23159
845.389	23117
845.525	23258
845.661	23166
845.798	22881
845.934	23083
846.07	23075
846.206	22991
846.342	22946
846.478	22999
846.614	22683
846.75	22805
846.886	22755
847.022	22801
847.158	22801
847.294	22706
847.429	22694
847.565	22744
847.701	23018
847.837	22379
847.972	22268
848.108	22554
848.244	22424
848.379	22398
848.515	22223
848.65	22375
848.786	22409
848.921	22363
849.057	22519
849.192	22360
849.328	22299
849.463	22276
849.598	22185
849.734	22101
849.869	22105
850.004	22013
850.14	22067
850.275	22090
850.41	22112
850.545	22051
850.68	22006
850.815	22067
850.95	22093
851.085	22169
851.22	22131
851.355	22109
851.49	22116
851.625	21975
851.76	22097
851.895	21808
852.03	21930
852.165	22181
852.299	22112
852.434	22074
852.569	22150
852.703	22116
852.838	22029
852.973	22139
853.107	22223
853.242	22036
853.376	21937
853.511	21739
853.645	21812
853.78	21964
853.914	21915
854.048	21956
854.183	21876
854.317	21861
854.451	21994
854.585	21827
854.72	21797
854.854	22059
854.988	21819
855.122	21953
855.256	21850
855.39	21755
855.524	22059
855.658	21915
855.792	21987
855.926	21892
856.06	21892
856.194	21854
856.327	21869
856.461	21808
856.595	21751
856.729	21918
856.862	21949
856.996	22048
857.13	21991
857.263	22051
857.397	22017
857.53	21895
857.664	21911
857.797	21895
857.931	21854
858.064	21907
858.197	21949
858.331	21846
858.464	21732
858.597	21797
858.731	21888
858.864	21759
858.997	21895
859.13	21762
859.263	21739
859.396	21934
859.529	21797
859.662	21876
859.795	21724
859.928	21827
860.061	22032
860.194	22082
860.327	21941
860.46	21831
860.592	22109
860.725	22067
860.858	21994
860.99	21880
861.123	21717
861.256	21819
861.388	21850
861.521	22580
861.653	21762
861.786	21778
861.918	21724
862.05	21880
862.183	21838
862.315	21751
862.447	21861
862.58	21781
862.712	21572
862.844	21526
862.976	21618
863.108	21705
863.24	21899
863.372	21466
863.504	21507
863.636	21439
863.768	21507
863.9	21599
864.032	21511
864.164	21507
864.296	21599
864.428	21637
864.559	21583
864.691	21679
864.823	21469
864.954	21507
865.086	21583
865.217	21553
865.349	21237
865.48	21462
865.612	21439
865.743	21595
865.875	21564
866.006	21496
866.137	21595
866.269	21496
866.4	21458
866.531	21325
866.662	21424
866.793	21408
866.924	21424
867.055	21462
867.186	21359
867.317	21355
867.448	21329
867.579	21370
867.71	21329
867.841	21207
867.972	21367
868.103	21408
868.233	21355
868.364	21466
868.495	21496
868.625	21637
868.756	21770
868.886	21542
869.017	21694
869.147	21736
869.278	21717
869.408	21637
869.539	21572
869.669	21728
869.799	21679
869.929	21724
870.06	21713
870.19	21876
870.32	21907
870.45	21941
870.58	21949
870.71	22147
870.84	22109
870.97	21994
871.1	22010
871.23	22276
871.36	22120
871.489	22013
871.619	22265
871.749	22219
871.879	22253
872.008	22363
872.138	22226
872.267	22242
872.397	22109
872.526	22051
872.656	22070
872.785	22162
872.915	22306
873.044	22272
873.173	22246
873.303	22204
873.432	22223
873.561	22249
873.69	22196
873.819	22276
873.948	22295
874.077	22204
874.206	22204
874.335	22219
874.464	22352
874.593	22341
874.722	22303
874.851	22436
874.979	22462
875.108	22466
875.237	22443
875.365	22219
875.494	22379
875.623	22516
875.751	22565
875.88	22462
876.008	22687
876.136	22622
876.265	22869
876.393	22889
876.521	22938
876.65	22980
876.778	22847
876.906	22774
877.034	22782
877.162	22828
877.29	22801
877.418	22953
877.546	22908
877.674	22752
877.802	22919
877.93	22736
878.058	22778
878.185	22660
878.313	22771
878.441	22668
878.568	22698
878.696	22786
878.824	22850
878.951	22778
879.079	23067
879.206	23143
879.333	23006
879.461	22809
879.588	22930
879.715	23029
879.842	23113
879.97	22968
880.097	22615
880.224	22592
880.351	22573
880.478	22607
880.605	22588
880.732	22626
880.859	22805
880.986	22733
881.112	22577
881.239	22622
881.366	22223
881.493	22204
881.619	22230
881.746	22230
881.872	22185
881.999	22158
882.125	22124
882.252	22223
882.378	22169
882.505	22173
882.631	21998
882.757	21926
882.883	21899
883.01	21899
883.136	21675
883.262	21660
883.388	21667
883.514	22013
883.64	21888
883.766	21903
883.892	21622
884.018	21629
884.143	21812
884.269	21854
884.395	21538
884.52	21534
884.646	21595
884.772	21557
884.897	21431
885.023	21488
885.148	21561
885.274	21580
885.399	21610
885.524	21625
885.65	21408
885.775	21629
885.9	21492
886.025	21564
886.15	21595
886.275	21523
886.4	21412
886.525	21435
886.65	21348
886.775	21359
886.9	21534
887.025	21675
887.149	21504
887.274	21245
887.399	21180
887.523	21283
887.648	21245
887.773	21104
887.897	21363
888.021	21306
888.146	21157
888.27	21359
888.395	21412
888.519	21340
888.643	21298
888.767	21275
888.891	21173
889.015	21127
889.139	21100
889.263	21154
889.387	21165
889.511	21256
889.635	21123
889.759	21138
889.883	21024
890.006	21093
890.13	21066
890.254	20948
890.377	20952
890.501	20746
890.624	20701
890.748	20838
890.871	20792
890.995	20705
891.118	20549
891.241	20648
891.364	20632
891.488	20735
891.611	20609
891.734	20670
891.857	20511
891.98	20644
892.103	20697
892.226	20644
892.349	20613
892.471	20408
892.594	20499
892.717	20606
892.839	20530
892.962	20590
893.085	20579
893.207	20556
893.33	20412
893.452	20507
893.575	20537
893.697	20412
893.819	20632
893.941	20651
894.064	20667
894.186	20469
894.308	20431
894.43	20609
894.552	20621
894.674	20625
894.796	20564
894.918	20461
895.04	20450
895.161	20503
895.283	20480
895.405	20404
895.526	20560
895.648	20556
895.769	20564
895.891	20606
896.012	20636
896.134	20564
896.255	20686
896.376	20431
896.498	20492
896.619	20522
896.74	20533
896.861	20617
896.982	20693
897.103	20944
897.224	20811
897.345	20670
897.466	20575
897.587	20659
897.708	20819
897.828	20613
897.949	20651
898.07	20598
898.19	20587
898.311	20705
898.431	20735
898.552	20686
898.672	20906
898.792	20701
898.913	20830
899.033	20587
899.153	20518
899.273	20469
899.393	20461
899.513	20556
899.633	20450
899.753	20476
899.873	20358
899.993	20434
900.113	20313
900.232	20419
900.352	20282
900.472	20347
900.591	20332
900.711	20225
900.83	20122
900.95	20396
901.069	20248
901.189	20088
901.308	19894
901.427	19811
901.546	19875
901.665	19776
901.784	19814
901.904	19700
902.023	19643
902.141	19331
902.26	19377
902.379	19407
902.498	19369
902.617	19384
902.735	19381
902.854	19270
902.973	19301
903.091	18890
903.21	19008
903.328	19046
903.446	18966
903.565	18620
903.683	18772
903.801	18574
903.919	18821
904.038	18669
904.156	18555
904.274	18616
904.392	18498
904.51	18559
904.627	18494
904.745	18692
904.863	18639
904.981	18426
905.098	18159
905.216	18304
905.334	18285
905.451	18258
905.569	18353
905.686	18098
905.803	18182
905.921	18019
906.038	18163
906.155	17961
906.272	17954
906.389	18038
906.506	17802
906.623	17760
906.74	17805
906.857	17657
906.974	17687
907.091	17775
907.208	17767
907.324	17904
907.441	17554
907.557	17516
907.674	17467
907.79	17376
907.907	17486
908.023	17391
908.139	17493
908.256	17520
908.372	17356
908.488	17383
908.604	17273
908.72	17227
908.836	17223
908.952	17189
909.068	17303
909.184	17258
909.3	17216
909.415	17258
909.531	17197
909.647	16949
909.762	16934
909.878	16862
909.993	16927
910.108	16919
910.224	16858
910.339	16858
910.454	16797
910.57	16744
910.685	16637
910.8	16904
910.915	16782
911.03	16615
911.145	16580
911.259	16447
911.374	16474
911.489	16424
911.604	16325
911.718	16131
911.833	16261
911.947	16082
912.062	16071
912.176	16139
912.291	16200
912.405	16249
912.519	16314
912.633	16348
912.748	16344
912.862	16112
912.976	16059
913.09	15926
913.204	15941
913.318	16025
913.431	16078
913.545	16162
913.659	16093
913.772	15964
913.886	15895
914	15762
914.113	15892
914.226	15888
914.34	15907
914.453	15717
914.566	15861
914.68	15671
914.793	15701
914.906	15507
915.019	15526
915.132	15367
915.245	15408
915.358	15462
915.47	15424
915.583	15386
915.696	15401
915.809	15416
915.921	15492
916.034	15321
916.146	15310
916.259	15313
916.371	15523
916.483	15321
916.595	15306
916.708	15218
916.82	15313
916.932	15268
917.044	15195
917.156	15176
917.268	15039
917.38	15195
917.491	14971
917.603	15112
917.715	15161
917.826	15127
917.938	14994
918.049	14944
918.161	14948
918.272	15161
918.384	15043
918.495	14902
918.606	14781
918.717	14769
918.828	14842
918.939	14887
919.05	14895
919.161	14720
919.272	14617
919.383	14697
919.494	14853
919.604	15043
919.715	14853
919.826	14667
919.936	14758
920.047	14815
920.157	14762
920.267	14975
920.378	14815
920.488	14689
920.598	14994
920.708	15089
920.818	14937
920.928	14849
921.038	15116
921.148	15005
921.258	14590
921.368	14621
921.477	14507
921.587	14438
921.697	14355
921.806	14480
921.916	14358
922.025	14153
922.134	14046
922.244	14142
922.353	14126
922.462	14031
922.571	13909
922.68	13738
922.789	13811
922.898	13727
923.007	13685
923.116	13791
923.224	13784
923.333	13655
923.442	13662
923.55	13601
923.659	13613
923.767	13655
923.876	13586
923.984	13670
924.092	13487
924.201	13556
924.309	13476
924.417	13525
924.525	13426
924.633	13411
924.741	14237
924.849	13240
924.956	13411
925.064	13228
925.172	13110
925.279	13236
925.387	13190
925.494	13129
925.602	13274
925.709	13122
925.816	13034
925.924	13099
926.031	13198
926.138	13057
926.245	13095
926.352	13023
926.459	13141
926.566	13190
926.673	13080
926.779	12924
926.886	12882
926.993	12825
927.099	12715
927.206	12787
927.312	12627
927.419	12741
927.525	12776
927.631	12791
927.737	12563
927.843	12604
927.95	12521
928.056	12574
928.162	12593
928.267	12707
928.373	13217
928.479	12608
928.585	12357
928.69	12521
928.796	12506
928.901	12395
929.007	12235
929.112	12334
929.218	12323
929.323	12369
929.428	12171
929.533	12350
929.638	12239
929.743	12262
929.848	12277
929.953	12136
930.058	12140
930.163	11984
930.267	12030
930.372	12133
930.477	11931
930.581	12209
930.685	11980
930.79	11824
930.894	11843
930.998	11729
931.103	11961
931.207	11703
931.311	11516
931.415	11448
931.519	11322
931.623	11239
