Data from test_V78500241_512.txt Node
Date: Fri Mar 25 15:13:25 CST 2022
User: usil
Spectrometer: V785-0024
Trigger mode: 0
Integration Time (sec): 4.000000E-1
Scans to average: 1
Nonlinearity correction enabled: false
Boxcar width: 0
Storing dark spectrum: false
XAxis mode: Wavelengths
Number of Pixels in Spectrum: 1024
>>>>>Begin Spectral Data<<<<<
801.071	27466
801.214	27408
801.356	27275
801.499	27047
801.641	27005
801.783	27104
801.926	27017
802.068	26887
802.211	26906
802.353	26785
802.496	26632
802.638	26773
802.78	26651
802.923	26613
803.065	26655
803.208	26564
803.35	26606
803.492	26792
803.635	26826
803.777	26697
803.919	26811
804.061	26952
804.204	26762
804.346	26758
804.488	26705
804.63	26762
804.773	26663
804.915	26743
805.057	26792
805.199	26842
805.341	26887
805.483	26781
805.626	26929
805.768	26804
805.91	26914
806.052	26872
806.194	26800
806.336	27074
806.478	26960
806.62	26823
806.762	26899
806.904	27184
807.046	27389
807.188	27306
807.33	27298
807.472	27355
807.614	27249
807.756	27203
807.898	27138
808.04	27112
808.182	27135
808.324	27218
808.465	27100
808.607	27264
808.749	27351
808.891	27515
809.033	27720
809.174	27408
809.316	27389
809.458	27427
809.6	27382
809.741	27587
809.883	27759
810.025	27755
810.166	27667
810.308	27797
810.45	27785
810.591	27728
810.733	27660
810.875	27363
811.016	27427
811.158	27538
811.299	27526
811.441	27717
811.582	27675
811.724	27359
811.865	27458
812.007	27405
812.148	27477
812.29	27427
812.431	27622
812.573	27907
812.714	27797
812.855	28036
812.997	28021
813.138	28169
813.279	28116
813.421	28090
813.562	27949
813.703	27880
813.845	27694
813.986	27397
814.127	27184
814.268	27317
814.41	27043
814.551	27077
814.692	27272
814.833	27070
814.974	27028
815.115	27138
815.256	26971
815.397	26902
815.539	27055
815.68	26853
815.821	26948
815.962	26982
816.103	26891
816.244	26891
816.385	26758
816.526	26655
816.666	26499
816.807	26488
816.948	26522
817.089	26575
817.23	26590
817.371	26476
817.512	26434
817.653	26366
817.793	26332
817.934	26541
818.075	26465
818.216	26476
818.356	26473
818.497	26431
818.638	26073
818.778	26218
818.919	26275
819.06	26317
819.2	26351
819.341	26476
819.481	26419
819.622	26575
819.762	26735
819.903	26708
820.043	26644
820.184	26533
820.324	26564
820.465	26674
820.605	26511
820.746	26549
820.886	26415
821.026	26526
821.167	26579
821.307	26651
821.447	26461
821.588	26366
821.728	26252
821.868	26164
822.008	25944
822.149	25906
822.289	25887
822.429	25674
822.569	25616
822.709	25677
822.849	25510
822.99	25430
823.13	25575
823.27	25285
823.41	25274
823.55	25065
823.69	25209
823.83	25202
823.97	25175
824.11	25061
824.25	24996
824.389	25080
824.529	25133
824.669	25088
824.809	25145
824.949	25164
825.089	25198
825.228	25198
825.368	25008
825.508	25038
825.648	24909
825.787	25122
825.927	24985
826.067	24924
826.206	24844
826.346	24970
826.485	24924
826.625	25000
826.765	25031
826.904	24981
827.044	24639
827.183	24779
827.323	24456
827.462	24719
827.601	24639
827.741	24532
827.88	24703
828.02	24528
828.159	24692
828.298	24776
828.437	24738
828.577	24582
828.716	24772
828.855	24555
828.994	24414
829.134	24334
829.273	24429
829.412	24403
829.551	24243
829.69	24437
829.829	24350
829.968	24426
830.107	24380
830.246	24384
830.385	24266
830.524	24159
830.663	24224
830.802	24064
830.941	23961
831.08	23958
831.219	24114
831.357	24003
831.496	24205
831.635	23969
831.774	23980
831.913	23885
832.051	23771
832.19	23783
832.329	23764
832.467	23805
832.606	23707
832.744	23661
832.883	23684
833.022	23779
833.16	23581
833.299	23737
833.437	23653
833.576	23813
833.714	23813
833.852	23775
833.991	23687
834.129	23847
834.267	23885
834.406	23836
834.544	23866
834.682	23786
834.821	23710
834.959	23794
835.097	23608
835.235	23771
835.373	23707
835.511	23760
835.65	23554
835.788	23627
835.926	23345
836.064	23372
836.202	23524
836.34	23684
836.478	23687
836.615	23646
836.753	23528
836.891	23691
837.029	23657
837.167	23547
837.305	23425
837.443	23459
837.58	23398
837.718	23516
837.856	23398
837.993	23311
838.131	23512
838.269	23292
838.406	23345
838.544	23178
838.681	23022
838.819	23185
838.956	23071
839.094	22900
839.231	22908
839.369	22984
839.506	23368
839.643	23086
839.781	22957
839.918	22797
840.055	22824
840.193	22957
840.33	22793
840.467	22862
840.604	22854
840.742	23193
840.879	22713
841.016	22752
841.153	22679
841.29	23029
841.427	22828
841.564	22862
841.701	22778
841.838	22717
841.975	22706
842.112	22748
842.249	22721
842.385	22603
842.522	22675
842.659	22664
842.796	22455
842.933	22596
843.069	22630
843.206	22622
843.343	22557
843.479	22603
843.616	22664
843.752	22443
843.889	22386
844.025	22538
844.162	22405
844.298	22409
844.435	22268
844.571	22379
844.708	22333
844.844	22508
844.98	22447
845.117	22565
845.253	22295
845.389	22276
845.525	22230
845.661	22120
845.798	22101
845.934	22196
846.07	22124
846.206	22139
846.342	22261
846.478	21949
846.614	21991
846.75	21781
846.886	21785
847.022	21949
847.158	21808
847.294	21899
847.429	21778
847.565	21797
847.701	22169
847.837	21625
847.972	21473
848.108	21713
848.244	21557
848.379	21500
848.515	21374
848.65	21507
848.786	21488
848.921	21355
849.057	21534
849.192	21576
849.328	21500
849.463	21401
849.598	21351
849.734	21317
849.869	21283
850.004	21252
850.14	21173
850.275	21252
850.41	21173
850.545	21108
850.68	21089
850.815	21207
850.95	21203
851.085	21329
851.22	21272
851.355	21146
851.49	21154
851.625	21169
851.76	21161
851.895	21112
852.03	21074
852.165	21119
852.299	21150
852.434	21226
852.569	21218
852.703	21085
852.838	21294
852.973	21294
853.107	21165
853.242	21214
853.376	21077
853.511	20933
853.645	20921
853.78	21157
853.914	21020
854.048	20948
854.183	20990
854.317	21123
854.451	21218
854.585	21005
854.72	21001
854.854	21116
854.988	20948
855.122	20967
855.256	20937
855.39	21039
855.524	20952
855.658	21039
855.792	21043
855.926	21020
856.06	21047
856.194	21062
856.327	21074
856.461	20918
856.595	20891
856.729	20990
856.862	21108
856.996	21165
857.13	21104
857.263	21058
857.397	21157
857.53	20998
857.664	21051
857.797	21180
857.931	21173
858.064	21009
858.197	21173
858.331	20960
858.464	21013
858.597	20937
858.731	21020
858.864	20925
858.997	20914
859.13	21001
859.263	21032
859.396	21089
859.529	20902
859.662	20975
859.795	20872
859.928	20990
860.061	21157
860.194	21264
860.327	21062
860.46	21192
860.592	21226
860.725	21039
860.858	21066
860.99	21104
861.123	21013
861.256	20845
861.388	20952
861.521	21694
861.653	21017
861.786	20773
861.918	20914
862.05	20868
862.183	20952
862.315	20960
862.447	21001
862.58	20883
862.712	20667
862.844	20743
862.976	20785
863.108	20807
863.24	21096
863.372	20754
863.504	20659
863.636	20689
863.768	20746
863.9	20788
864.032	20663
864.164	20667
864.296	20701
864.428	20796
864.559	20819
864.691	20872
864.823	20705
864.954	20754
865.086	20765
865.217	20689
865.349	20499
865.48	20613
865.612	20617
865.743	20735
865.875	20659
866.006	20549
866.137	20667
866.269	20625
866.4	20785
866.531	20492
866.662	20590
866.793	20602
866.924	20503
867.055	20606
867.186	20545
867.317	20575
867.448	20419
867.579	20412
867.71	20461
867.841	20427
867.972	20537
868.103	20579
868.233	20621
868.364	20602
868.495	20682
868.625	20781
868.756	20823
868.886	20743
869.017	20670
869.147	20914
869.278	20788
869.408	20800
869.539	20781
869.669	20849
869.799	20678
869.929	20864
870.06	20929
870.19	21104
870.32	20979
870.45	21135
870.58	21131
870.71	21302
870.84	21252
870.97	21199
871.1	21169
871.23	21401
871.36	21367
871.489	21363
871.619	21298
871.749	21340
871.879	21397
872.008	21439
872.138	21424
872.267	21370
872.397	21237
872.526	21195
872.656	21192
872.785	21146
872.915	21359
873.044	21568
873.173	21420
873.303	21420
873.432	21477
873.561	21633
873.69	21488
873.819	21420
873.948	21443
874.077	21355
874.206	21351
874.335	21443
874.464	21568
874.593	21625
874.722	21641
874.851	21618
874.979	21770
875.108	21690
875.237	21679
875.365	21660
875.494	21644
875.623	21717
875.751	21622
875.88	21717
876.008	21698
876.136	21888
876.265	22048
876.393	22124
876.521	22090
876.65	22204
876.778	22036
876.906	22032
877.034	21994
877.162	22006
877.29	21918
877.418	22044
877.546	22040
877.674	21945
877.802	21972
877.93	21945
878.058	21991
878.185	21907
878.313	21953
878.441	22013
878.568	21701
878.696	21884
878.824	21953
878.951	22090
879.079	22272
879.206	22177
879.333	22223
879.461	21956
879.588	22017
879.715	22177
879.842	22280
879.97	22021
880.097	21759
880.224	21774
880.351	21941
880.478	21804
880.605	21827
880.732	21819
880.859	21949
880.986	21751
881.112	21781
881.239	21675
881.366	21462
881.493	21473
881.619	21184
881.746	21386
881.872	21351
881.999	21435
882.125	21344
882.252	21382
882.378	21401
882.505	21462
882.631	21188
882.757	21192
882.883	21199
883.01	21074
883.136	21131
883.262	20986
883.388	20921
883.514	21028
883.64	21108
883.766	20937
883.892	20914
884.018	20834
884.143	21081
884.269	21123
884.395	20872
884.52	20811
884.646	20868
884.772	20746
884.897	20579
885.023	20804
885.148	20842
885.274	20769
885.399	20899
885.524	20746
885.65	20823
885.775	20724
885.9	20590
886.025	20967
886.15	20849
886.275	20769
886.4	20689
886.525	20708
886.65	20689
886.775	20598
886.9	20918
887.025	20979
887.149	20727
887.274	20503
887.399	20552
887.523	20476
887.648	20427
887.773	20465
887.897	20568
888.021	20613
888.146	20442
888.27	20746
888.395	20556
888.519	20404
888.643	20556
888.767	20556
888.891	20419
889.015	20313
889.139	20347
889.263	20419
889.387	20492
889.511	20503
889.635	20457
889.759	20199
889.883	20221
890.006	20358
890.13	20347
890.254	20248
890.377	20206
890.501	20035
890.624	20115
890.748	20100
890.871	19967
890.995	19925
891.118	19788
891.241	19974
891.364	19902
891.488	19978
891.611	19879
891.734	19944
891.857	19928
891.98	19925
892.103	19890
892.226	19944
892.349	19883
892.471	19772
892.594	19833
892.717	19932
892.839	19780
892.962	19890
893.085	19883
893.207	19769
893.33	19780
893.452	19628
893.575	19841
893.697	19860
893.819	20005
893.941	19982
894.064	19906
894.186	19712
894.308	19784
894.43	19925
894.552	19906
894.674	20001
894.796	19685
894.918	19746
895.04	19845
895.161	19932
895.283	19868
895.405	19765
895.526	19753
895.648	19780
895.769	19830
895.891	19753
896.012	19921
896.134	19830
896.255	19887
896.376	19811
896.498	19887
896.619	19814
896.74	19894
896.861	19841
896.982	20111
897.103	20298
897.224	20096
897.345	20100
897.466	19963
897.587	20073
897.708	20115
897.828	20027
897.949	19947
898.07	19769
898.19	19940
898.311	20153
898.431	19936
898.552	20065
898.672	20039
898.792	20115
898.913	19989
899.033	19917
899.153	19868
899.273	19723
899.393	19715
899.513	19731
899.633	19791
899.753	19723
899.873	19704
899.993	19784
900.113	19689
900.232	19742
900.352	19670
900.472	19753
900.591	19468
900.711	19529
900.83	19525
900.95	19548
901.069	19609
901.189	19441
901.308	19274
901.427	19183
901.546	19152
901.665	19133
901.784	19202
901.904	19015
902.023	18863
902.141	18768
902.26	18703
902.379	18707
902.498	18654
902.617	18563
902.735	18646
902.854	18593
902.973	18532
903.091	18353
903.21	18399
903.328	18285
903.446	18197
903.565	18102
903.683	18186
903.801	18057
903.919	18045
904.038	18068
904.156	18026
904.274	18030
904.392	17779
904.51	17821
904.627	17961
904.745	17954
904.863	17984
904.981	17756
905.098	17630
905.216	17577
905.334	17604
905.451	17649
905.569	17391
905.686	17623
905.803	17493
905.921	17395
906.038	17665
906.155	17360
906.272	17372
906.389	17231
906.506	17132
906.623	17166
906.74	17071
906.857	16892
906.974	17029
907.091	17151
907.208	17212
907.324	17227
907.441	16976
907.557	16847
907.674	16854
907.79	16733
907.907	16805
908.023	16896
908.139	16771
908.256	16831
908.372	16713
908.488	16786
908.604	16580
908.72	16485
908.836	16618
908.952	16455
909.068	16527
909.184	16641
909.3	16481
909.415	16599
909.531	16523
909.647	16344
909.762	16344
909.878	16268
909.993	16295
910.108	16211
910.224	16188
910.339	16238
910.454	16223
910.57	16192
910.685	15964
910.8	16291
910.915	16295
911.03	16021
911.145	15953
911.259	15934
911.374	15838
911.489	15797
911.604	15808
911.718	15675
911.833	15580
911.947	15492
912.062	15462
912.176	15641
912.291	15622
912.405	15542
912.519	15823
912.633	15755
912.748	15739
912.862	15625
912.976	15469
913.09	15294
913.204	15359
913.318	15420
913.431	15485
913.545	15485
913.659	15587
913.772	15416
913.886	15218
914	15241
914.113	15313
914.226	15264
914.34	15275
914.453	15081
914.566	15325
914.68	15131
914.793	15165
914.906	14937
915.019	14925
915.132	14724
915.245	14792
915.358	14883
915.47	14857
915.583	14891
915.696	14906
915.809	15036
915.921	14929
916.034	14689
916.146	14720
916.259	14727
916.371	14819
916.483	14781
916.595	14606
916.708	14724
916.82	14705
916.932	14594
917.044	14610
917.156	14644
917.268	14537
917.38	14549
917.491	14507
917.603	14556
917.715	14545
917.826	14644
917.938	14518
918.049	14366
918.161	14568
918.272	14640
918.384	14526
918.495	14415
918.606	14305
918.717	14358
918.828	14256
918.939	14362
919.05	14180
919.161	14248
919.272	14062
919.383	13963
919.494	14381
919.604	14503
919.715	14370
919.826	14168
919.936	14195
920.047	14328
920.157	14347
920.267	14454
920.378	14240
920.488	14202
920.598	14419
920.708	14545
920.818	14503
920.928	14294
921.038	14533
921.148	14552
921.258	14214
921.368	14157
921.477	14012
921.587	13921
921.697	13887
921.806	13974
921.916	13833
922.025	13689
922.134	13715
922.244	13518
922.353	13677
922.462	13502
922.571	13540
922.68	13285
922.789	13255
922.898	13354
923.007	13266
923.116	13320
923.224	13251
923.333	13247
923.442	13160
923.55	13065
923.659	13198
923.767	13175
923.876	13004
923.984	13061
924.092	13012
924.201	13053
924.309	13000
924.417	13042
924.525	12954
924.633	13031
924.741	13738
924.849	12776
924.956	12878
925.064	12703
925.172	12730
925.279	12726
925.387	12749
925.494	12757
925.602	12825
925.709	12757
925.816	12612
925.924	12662
926.031	12741
926.138	12734
926.245	12726
926.352	12486
926.459	12802
926.566	12768
926.673	12547
926.779	12547
926.886	12486
926.993	12372
927.099	12243
927.206	12289
927.312	12251
927.419	12342
927.525	12334
927.631	12254
927.737	12251
927.843	12121
927.95	12076
928.056	12045
928.162	12110
928.267	12159
928.373	12669
928.479	12110
928.585	12011
928.69	12098
928.796	12098
928.901	12015
929.007	11840
929.112	11977
929.218	11942
929.323	11908
929.428	11764
929.533	11973
929.638	11832
929.743	11859
929.848	11859
929.953	11863
930.058	11703
930.163	11467
930.267	11509
930.372	11661
930.477	11592
930.581	11657
930.685	11642
930.79	11501
930.894	11410
930.998	11467
931.103	11592
931.207	11216
931.311	11079
931.415	11045
931.519	10835
931.623	10816
