Data from test_V78500241_1850.txt Node
Date: Fri Mar 25 15:22:44 CST 2022
User: usil
Spectrometer: V785-0024
Trigger mode: 0
Integration Time (sec): 4.000000E-1
Scans to average: 1
Nonlinearity correction enabled: false
Boxcar width: 0
Storing dark spectrum: false
XAxis mode: Wavelengths
Number of Pixels in Spectrum: 1024
>>>>>Begin Spectral Data<<<<<
801.071	27827
801.214	27751
801.356	27435
801.499	27416
801.641	27367
801.783	27237
801.926	27416
802.068	27294
802.211	27313
802.353	27192
802.496	27116
802.638	26952
802.78	26994
802.923	26998
803.065	26819
803.208	26899
803.35	26940
803.492	27161
803.635	27089
803.777	27119
803.919	27150
804.061	27519
804.204	27317
804.346	27154
804.488	27070
804.63	27066
804.773	27077
804.915	27165
805.057	27272
805.199	27173
805.341	27199
805.483	27249
805.626	27222
805.768	27230
805.91	27321
806.052	27386
806.194	27325
806.336	27462
806.478	27329
806.62	27336
806.762	27382
806.904	27534
807.046	27816
807.188	27823
807.33	27747
807.472	27789
807.614	27671
807.756	27656
807.898	27667
808.04	27614
808.182	27618
808.324	27610
808.465	27633
808.607	27899
808.749	27892
808.891	28010
809.033	28067
809.174	27972
809.316	27827
809.458	28025
809.6	27930
809.741	28017
809.883	28021
810.025	28074
810.166	28173
810.308	28276
810.45	28177
810.591	28059
810.733	27911
810.875	27781
811.016	27736
811.158	27728
811.299	27979
811.441	28029
811.582	28021
811.724	28021
811.865	27747
812.007	27865
812.148	27945
812.29	27914
812.431	28090
812.573	28120
812.714	28341
812.855	28447
812.997	28615
813.138	28694
813.279	28531
813.421	28557
813.562	28268
813.703	28120
813.845	28139
813.986	27816
814.127	27644
814.268	27595
814.41	27542
814.551	27568
814.692	27682
814.833	27454
814.974	27644
815.115	27557
815.256	27450
815.397	27526
815.539	27587
815.68	27412
815.821	27374
815.962	27477
816.103	27279
816.244	27332
816.385	27112
816.526	27108
816.666	27032
816.807	26899
816.948	26940
817.089	26967
817.23	26868
817.371	26796
817.512	26800
817.653	26842
817.793	26872
817.934	26902
818.075	26910
818.216	26880
818.356	26815
818.497	26674
818.638	26663
818.778	26651
818.919	26800
819.06	26686
819.2	26682
819.341	26864
819.481	26971
819.622	27081
819.762	27249
819.903	27176
820.043	27066
820.184	27005
820.324	26967
820.465	27154
820.605	27013
820.746	26906
820.886	26800
821.026	27104
821.167	26986
821.307	27070
821.447	26762
821.588	26838
821.728	26720
821.868	26453
822.008	26355
822.149	26324
822.289	26282
822.429	26103
822.569	26058
822.709	25974
822.849	25917
822.99	26058
823.13	25947
823.27	25723
823.41	25620
823.55	25609
823.69	25647
823.83	25696
823.97	25552
824.11	25502
824.25	25365
824.389	25487
824.529	25540
824.669	25487
824.809	25662
824.949	25495
825.089	25635
825.228	25552
825.368	25320
825.508	25373
825.648	25472
825.787	25263
825.927	25620
826.067	25270
826.206	25464
826.346	25350
826.485	25426
826.625	25384
826.765	25350
826.904	25346
827.044	25213
827.183	25190
827.323	25031
827.462	25126
827.601	25053
827.741	24985
827.88	25152
828.02	25057
828.159	25114
828.298	25034
828.437	24909
828.577	25118
828.716	25175
828.855	25076
828.994	24943
829.134	24760
829.273	24882
829.412	24821
829.551	24654
829.69	24817
829.829	24730
829.968	24943
830.107	24863
830.246	24719
830.385	24798
830.524	24585
830.663	24658
830.802	24627
830.941	24330
831.08	24350
831.219	24464
831.357	24521
831.496	24547
831.635	24369
831.774	24315
831.913	24266
832.051	24361
832.19	24209
832.329	24247
832.467	24171
832.606	24155
832.744	24117
832.883	24277
833.022	23961
833.16	24148
833.299	24106
833.437	24079
833.576	24197
833.714	24182
833.852	24273
833.991	24220
834.129	24311
834.267	24323
834.406	24114
834.544	24171
834.682	24171
834.821	24171
834.959	24281
835.097	24125
835.235	24224
835.373	24125
835.511	24159
835.65	23961
835.788	24041
835.926	23897
836.064	23855
836.202	23786
836.34	24076
836.478	24220
836.615	24079
836.753	23946
836.891	24064
837.029	23984
837.167	23859
837.305	23992
837.443	23984
837.58	23817
837.718	23973
837.856	23847
837.993	23748
838.131	23866
838.269	23764
838.406	23904
838.544	23760
838.681	23486
838.819	23535
838.956	23402
839.094	23452
839.231	23379
839.369	23490
839.506	23760
839.643	23478
839.781	23414
839.918	23151
840.055	23387
840.193	23155
840.33	23261
840.467	23269
840.604	23379
840.742	23539
840.879	23166
841.016	23136
841.153	23178
841.29	23391
841.427	23280
841.564	23337
841.701	23356
841.838	23318
841.975	23246
842.112	23166
842.249	23010
842.385	23064
842.522	23254
842.659	23033
842.796	23037
842.933	22953
843.069	23075
843.206	22885
843.343	22934
843.479	23086
843.616	23060
843.752	22793
843.889	22881
844.025	22934
844.162	22812
844.298	22793
844.435	22790
844.571	22672
844.708	22854
844.844	22995
844.98	22900
845.117	22774
845.253	22717
845.389	22596
845.525	22645
845.661	22603
845.798	22500
845.934	22535
846.07	22451
846.206	22611
846.342	22664
846.478	22531
846.614	22291
846.75	22158
846.886	22242
847.022	22329
847.158	22303
847.294	22314
847.429	22211
847.565	22325
847.701	22542
847.837	21960
847.972	21953
848.108	22196
848.244	21945
848.379	21945
848.515	21956
848.65	21895
848.786	21857
848.921	21899
849.057	21934
849.192	21888
849.328	21876
849.463	21884
849.598	21819
849.734	21789
849.869	21736
850.004	21477
850.14	21682
850.275	21576
850.41	21694
850.545	21568
850.68	21633
850.815	21618
850.95	21755
851.085	21778
851.22	21671
851.355	21606
851.49	21469
851.625	21488
851.76	21492
851.895	21564
852.03	21557
852.165	21580
852.299	21610
852.434	21713
852.569	21720
852.703	21660
852.838	21667
852.973	21713
853.107	21774
853.242	21519
853.376	21530
853.511	21370
853.645	21374
853.78	21682
853.914	21466
854.048	21336
854.183	21462
854.317	21500
854.451	21629
854.585	21439
854.72	21496
854.854	21614
854.988	21348
855.122	21420
855.256	21370
855.39	21370
855.524	21500
855.658	21504
855.792	21329
855.926	21447
856.06	21492
856.194	21545
856.327	21405
856.461	21408
856.595	21382
856.729	21458
856.862	21663
856.996	21523
857.13	21534
857.263	21587
857.397	21469
857.53	21424
857.664	21355
857.797	21534
857.931	21504
858.064	21439
858.197	21591
858.331	21412
858.464	21344
858.597	21260
858.731	21412
858.864	21428
858.997	21325
859.13	21412
859.263	21374
859.396	21412
859.529	21389
859.662	21370
859.795	21336
859.928	21496
860.061	21595
860.194	21720
860.327	21557
860.46	21458
860.592	21625
860.725	21580
860.858	21618
860.99	21416
861.123	21428
861.256	21431
861.388	21416
861.521	22173
861.653	21363
861.786	21161
861.918	21321
862.05	21389
862.183	21336
862.315	21393
862.447	21393
862.58	21466
862.712	21245
862.844	21127
862.976	21184
863.108	21199
863.24	21576
863.372	21066
863.504	21085
863.636	21192
863.768	21203
863.9	21161
864.032	21112
864.164	21089
864.296	21291
864.428	21291
864.559	21165
864.691	21207
864.823	21161
864.954	21123
865.086	21093
865.217	21123
865.349	21032
865.48	21055
865.612	21032
865.743	21070
865.875	21051
866.006	20979
866.137	21039
866.269	21009
866.4	21028
866.531	20956
866.662	21005
866.793	20933
866.924	21036
867.055	20975
867.186	20975
867.317	20975
867.448	20864
867.579	20944
867.71	20834
867.841	20948
867.972	21032
868.103	20910
868.233	21024
868.364	20944
868.495	20876
868.625	21268
868.756	21310
868.886	21123
869.017	21218
869.147	21325
869.278	21203
869.408	21199
869.539	21245
869.669	21310
869.799	21184
869.929	21279
870.06	21359
870.19	21568
870.32	21462
870.45	21595
870.58	21481
870.71	21618
870.84	21732
870.97	21679
871.1	21587
871.23	21835
871.36	21781
871.489	21785
871.619	21755
871.749	21865
871.879	21774
872.008	21899
872.138	21720
872.267	21804
872.397	21641
872.526	21599
872.656	21819
872.785	21667
872.915	21770
873.044	21987
873.173	21869
873.303	21873
873.432	21781
873.561	21972
873.69	21861
873.819	21869
873.948	21983
874.077	21926
874.206	21751
874.335	21854
874.464	21915
874.593	21975
874.722	22032
874.851	22051
874.979	22029
875.108	22093
875.237	22021
875.365	21994
875.494	22036
875.623	22090
875.751	22048
875.88	21998
876.008	22109
876.136	22238
876.265	22470
876.393	22542
876.521	22557
876.65	22622
876.778	22390
876.906	22447
877.034	22459
877.162	22474
877.29	22230
877.418	22204
877.546	22443
877.674	22421
877.802	22356
877.93	22402
878.058	22390
878.185	22306
878.313	22485
878.441	22348
878.568	22177
878.696	22234
878.824	22409
878.951	22557
879.079	22542
879.206	22649
879.333	22622
879.461	22371
879.588	22508
879.715	22508
879.842	22618
879.97	22474
880.097	22253
880.224	22109
880.351	22234
880.478	22272
880.605	22211
880.732	22219
880.859	22546
880.986	22291
881.112	22246
881.239	22036
881.366	21983
881.493	21846
881.619	21865
881.746	21751
881.872	21838
881.999	21728
882.125	21804
882.252	21739
882.378	21766
882.505	22002
882.631	21675
882.757	21603
882.883	21572
883.01	21496
883.136	21504
883.262	21386
883.388	21302
883.514	21587
883.64	21542
883.766	21523
883.892	21344
884.018	21230
884.143	21435
884.269	21443
884.395	21157
884.52	21036
884.646	21096
884.772	21028
884.897	21081
885.023	21058
885.148	21249
885.274	21252
885.399	21291
885.524	21146
885.65	21085
885.775	21249
885.9	21085
886.025	21203
886.15	21230
886.275	21195
886.4	21093
886.525	21176
886.65	21096
886.775	21096
886.9	21214
887.025	21321
887.149	21100
887.274	20937
887.399	20872
887.523	20849
887.648	20914
887.773	20834
887.897	21036
888.021	20986
888.146	20925
888.27	20986
888.395	20941
888.519	20902
888.643	20941
888.767	20933
888.891	20781
889.015	20727
889.139	20849
889.263	20640
889.387	20777
889.511	20948
889.635	20819
889.759	20621
889.883	20629
890.006	20796
890.13	20724
890.254	20663
890.377	20781
890.501	20454
890.624	20381
890.748	20552
890.871	20366
890.995	20336
891.118	20214
891.241	20237
891.364	20259
891.488	20339
891.611	20248
891.734	20244
891.857	20374
891.98	20286
892.103	20267
892.226	20237
892.349	20252
892.471	20035
892.594	20126
892.717	20187
892.839	20225
892.962	20180
893.085	20210
893.207	20202
893.33	20031
893.452	20043
893.575	20153
893.697	20005
893.819	20233
893.941	20301
894.064	20282
894.186	20107
894.308	20088
894.43	20176
894.552	20301
894.674	20229
894.796	20092
894.918	20092
895.04	20058
895.161	20240
895.283	20103
895.405	20130
895.526	20202
895.648	20107
895.769	20202
895.891	20157
896.012	20168
896.134	20237
896.255	20172
896.376	20096
896.498	20214
896.619	20282
896.74	20153
896.861	20237
896.982	20530
897.103	20686
897.224	20400
897.345	20332
897.466	20313
897.587	20286
897.708	20724
897.828	20442
897.949	20301
898.07	20275
898.19	20267
898.311	20461
898.431	20339
898.552	20240
898.672	20370
898.792	20461
898.913	20358
899.033	20263
899.153	20275
899.273	20100
899.393	20103
899.513	20107
899.633	20153
899.753	20081
899.873	20103
899.993	20233
900.113	20005
900.232	20077
900.352	20043
900.472	19997
900.591	19799
900.711	20024
900.83	19780
900.95	19913
901.069	19989
901.189	19784
901.308	19518
901.427	19460
901.546	19647
901.665	19373
901.784	19449
901.904	19324
902.023	19263
902.141	19084
902.26	19050
902.379	19015
902.498	18890
902.617	18932
902.735	19076
902.854	18913
902.973	18894
903.091	18726
903.21	18627
903.328	18582
903.446	18544
903.565	18471
903.683	18395
903.801	18426
903.919	18426
904.038	18258
904.156	18247
904.274	18365
904.392	18209
904.51	18235
904.627	18190
904.745	18247
904.863	18239
904.981	18102
905.098	17980
905.216	17764
905.334	17961
905.451	17946
905.569	17889
905.686	17904
905.803	17874
905.921	17684
906.038	17843
906.155	17710
906.272	17516
906.389	17657
906.506	17444
906.623	17448
906.74	17417
906.857	17345
906.974	17421
907.091	17573
907.208	17505
907.324	17364
907.441	17391
907.557	17185
907.674	17181
907.79	17121
907.907	17075
908.023	17231
908.139	17200
908.256	17083
908.372	17102
908.488	17094
908.604	16965
908.72	16866
908.836	16896
908.952	16759
909.068	16835
909.184	16953
909.3	16839
909.415	16923
909.531	16854
909.647	16550
909.762	16637
909.878	16641
909.993	16618
910.108	16550
910.224	16577
910.339	16596
910.454	16371
910.57	16386
910.685	16299
910.8	16664
910.915	16478
911.03	16443
911.145	16147
911.259	16192
911.374	16207
911.489	16128
911.604	16013
911.718	15956
911.833	15953
911.947	15793
912.062	15819
912.176	15846
912.291	15873
912.405	15922
912.519	16109
912.633	16082
912.748	15941
912.862	15861
912.976	15804
913.09	15747
913.204	15656
913.318	15846
913.431	15842
913.545	15842
913.659	15842
913.772	15804
913.886	15557
914	15580
914.113	15614
914.226	15644
914.34	15618
914.453	15481
914.566	15614
914.68	15469
914.793	15477
914.906	15146
915.019	15256
915.132	15077
915.245	15112
915.358	15207
915.47	15123
915.583	15237
915.696	15161
915.809	15260
915.921	15275
916.034	15108
916.146	15047
916.259	15055
916.371	15131
916.483	15104
916.595	15032
916.708	14868
916.82	14967
916.932	15005
917.044	14887
917.156	14887
917.268	14838
917.38	14830
917.491	14834
917.603	14804
917.715	14872
917.826	14849
917.938	14754
918.049	14670
918.161	14800
918.272	14895
918.384	14758
918.495	14724
918.606	14556
918.717	14537
918.828	14621
918.939	14659
919.05	14434
919.161	14514
919.272	14374
919.383	14412
919.494	14545
919.604	14880
919.715	14613
919.826	14571
919.936	14602
920.047	14594
920.157	14499
920.267	14708
920.378	14530
920.488	14473
920.598	14712
920.708	14781
920.818	14651
920.928	14640
921.038	14800
921.148	14762
921.258	14530
921.368	14412
921.477	14301
921.587	14263
921.697	14065
921.806	14290
921.916	14092
922.025	14031
922.134	13921
922.244	13727
922.353	13902
922.462	13784
922.571	13651
922.68	13590
922.789	13483
922.898	13575
923.007	13457
923.116	13502
923.224	13540
923.333	13495
923.442	13407
923.55	13453
923.659	13343
923.767	13392
923.876	13354
923.984	13388
924.092	13213
924.201	13270
924.309	13343
924.417	13213
924.525	13141
924.633	13304
924.741	14119
924.849	13000
924.956	13114
925.064	13023
925.172	12840
925.279	12996
925.387	13004
925.494	12954
925.602	13126
925.709	12970
925.816	12791
925.924	12954
926.031	12966
926.138	12795
926.245	12939
926.352	12798
926.459	12920
926.566	12852
926.673	12760
926.779	12730
926.886	12707
926.993	12563
927.099	12566
927.206	12460
927.312	12517
927.419	12604
927.525	12483
927.631	12483
927.737	12380
927.843	12414
927.95	12159
928.056	12311
928.162	12346
928.267	12369
928.373	12878
928.479	12452
928.585	12159
928.69	12262
928.796	12342
928.901	12148
929.007	12019
929.112	12209
929.218	12136
929.323	12163
929.428	12091
929.533	12190
929.638	11988
929.743	12064
929.848	12038
929.953	11973
930.058	11901
930.163	11722
930.267	11828
930.372	11885
930.477	11676
930.581	11992
930.685	11832
930.79	11676
930.894	11688
930.998	11585
931.103	11752
931.207	11406
931.311	11353
931.415	11212
931.519	11045
931.623	10976
