Data from test_V78500241_657.txt Node
Date: Fri Mar 25 15:14:26 CST 2022
User: usil
Spectrometer: V785-0024
Trigger mode: 0
Integration Time (sec): 4.000000E-1
Scans to average: 1
Nonlinearity correction enabled: false
Boxcar width: 0
Storing dark spectrum: false
XAxis mode: Wavelengths
Number of Pixels in Spectrum: 1024
>>>>>Begin Spectral Data<<<<<
801.071	27606
801.214	27515
801.356	27359
801.499	27348
801.641	27135
801.783	27165
801.926	27245
802.068	27089
802.211	26963
802.353	27047
802.496	26811
802.638	26792
802.78	26617
802.923	26727
803.065	26758
803.208	26800
803.35	26925
803.492	26807
803.635	26948
803.777	26887
803.919	26902
804.061	27245
804.204	26960
804.346	26857
804.488	26895
804.63	27005
804.773	26781
804.915	27005
805.057	26990
805.199	26960
805.341	27043
805.483	27176
805.626	27043
805.768	26982
805.91	27119
806.052	27169
806.194	27104
806.336	27233
806.478	27207
806.62	27089
806.762	27192
806.904	27481
807.046	27580
807.188	27435
807.33	27515
807.472	27690
807.614	27450
807.756	27538
807.898	27412
808.04	27359
808.182	27321
808.324	27389
808.465	27443
808.607	27538
808.749	27736
808.891	27774
809.033	27876
809.174	27816
809.316	27797
809.458	27694
809.6	27827
809.741	27918
809.883	27876
810.025	28032
810.166	27869
810.308	28078
810.45	27945
810.591	28044
810.733	27861
810.875	27739
811.016	27633
811.158	27686
811.299	27797
811.441	27804
811.582	27869
811.724	27641
811.865	27686
812.007	27667
812.148	27709
812.29	27846
812.431	27903
812.573	27998
812.714	28242
812.855	28310
812.997	28291
813.138	28481
813.279	28341
813.421	28314
813.562	28238
813.703	28128
813.845	28051
813.986	27698
814.127	27549
814.268	27351
814.41	27348
814.551	27294
814.692	27344
814.833	27283
814.974	27317
815.115	27458
815.256	27279
815.397	27450
815.539	27279
815.68	27161
815.821	27184
815.962	27180
816.103	27264
816.244	27077
816.385	26819
816.526	26979
816.666	26800
816.807	26724
816.948	26785
817.089	26807
817.23	26762
817.371	26792
817.512	26800
817.653	26571
817.793	26621
817.934	26705
818.075	26629
818.216	26659
818.356	26769
818.497	26587
818.638	26431
818.778	26438
818.919	26404
819.06	26526
819.2	26568
819.341	26743
819.481	26609
819.622	26834
819.762	27119
819.903	26937
820.043	26929
820.184	26746
820.324	26769
820.465	26876
820.605	26815
820.746	26781
820.886	26792
821.026	26807
821.167	26868
821.307	26834
821.447	26651
821.588	26705
821.728	26568
821.868	26324
822.008	26240
822.149	26187
822.289	26122
822.429	25925
822.569	25909
822.709	25879
822.849	25620
822.99	25742
823.13	25632
823.27	25628
823.41	25400
823.55	25343
823.69	25544
823.83	25510
823.97	25453
824.11	25365
824.25	25225
824.389	25324
824.529	25373
824.669	25362
824.809	25400
824.949	25400
825.089	25392
825.228	25578
825.368	25160
825.508	25129
825.648	25160
825.787	25225
825.927	25270
826.067	25263
826.206	25183
826.346	25301
826.485	25141
826.625	25160
826.765	25274
826.904	25285
827.044	24928
827.183	24909
827.323	24817
827.462	25019
827.601	24973
827.741	24825
827.88	24916
828.02	24878
828.159	24897
828.298	24856
828.437	24932
828.577	24970
828.716	25031
828.855	24802
828.994	24673
829.134	24677
829.273	24707
829.412	24616
829.551	24525
829.69	24601
829.829	24772
829.968	24715
830.107	24669
830.246	24665
830.385	24509
830.524	24566
830.663	24388
830.802	24338
830.941	24270
831.08	24174
831.219	24285
831.357	24365
831.496	24433
831.635	24251
831.774	24064
831.913	24209
832.051	24003
832.19	23969
832.329	23980
832.467	23992
832.606	23863
832.744	23794
832.883	23828
833.022	23927
833.16	23927
833.299	23954
833.437	23996
833.576	23973
833.714	23939
833.852	24064
833.991	24003
834.129	23992
834.267	24079
834.406	24003
834.544	23965
834.682	23878
834.821	24018
834.959	24110
835.097	23851
835.235	24076
835.373	23863
835.511	23813
835.65	23893
835.788	23916
835.926	23680
836.064	23581
836.202	23726
836.34	23802
836.478	23805
836.615	23813
836.753	23870
836.891	23927
837.029	23802
837.167	23653
837.305	23760
837.443	23771
837.58	23687
837.718	23707
837.856	23703
837.993	23524
838.131	23638
838.269	23573
838.406	23589
838.544	23562
838.681	23231
838.819	23220
838.956	23060
839.094	23060
839.231	23124
839.369	23326
839.506	23581
839.643	23132
839.781	23048
839.918	23056
840.055	23284
840.193	23048
840.33	23071
840.467	23079
840.604	23079
840.742	23239
840.879	22850
841.016	22930
841.153	22919
841.29	23121
841.427	22927
841.564	23121
841.701	22953
841.838	22930
841.975	22892
842.112	22881
842.249	22831
842.385	22717
842.522	23006
842.659	22889
842.796	22816
842.933	22725
843.069	22812
843.206	22694
843.343	22847
843.479	22744
843.616	22649
843.752	22485
843.889	22599
844.025	22733
844.162	22557
844.298	22679
844.435	22626
844.571	22451
844.708	22603
844.844	22702
844.98	22683
845.117	22691
845.253	22402
845.389	22344
845.525	22577
845.661	22379
845.798	22398
845.934	22318
846.07	22329
846.206	22341
846.342	22428
846.478	22215
846.614	22188
846.75	21873
846.886	22048
847.022	22116
847.158	22063
847.294	22093
847.429	22063
847.565	22055
847.701	22246
847.837	21759
847.972	21682
848.108	21835
848.244	21865
848.379	21709
848.515	21576
848.65	21660
848.786	21663
848.921	21682
849.057	21694
849.192	21728
849.328	21675
849.463	21618
849.598	21397
849.734	21606
849.869	21507
850.004	21397
850.14	21462
850.275	21378
850.41	21344
850.545	21370
850.68	21306
850.815	21332
850.95	21412
851.085	21386
851.22	21523
851.355	21420
851.49	21275
851.625	21283
851.76	21348
851.895	21245
852.03	21260
852.165	21397
852.299	21431
852.434	21374
852.569	21367
852.703	21401
852.838	21386
852.973	21469
853.107	21557
853.242	21344
853.376	21287
853.511	21173
853.645	21100
853.78	21397
853.914	21195
854.048	21077
854.183	21233
854.317	21180
854.451	21367
854.585	21260
854.72	21077
854.854	21317
854.988	21116
855.122	21131
855.256	21176
855.39	21192
855.524	21184
855.658	21241
855.792	21249
855.926	21237
856.06	21298
856.194	21207
856.327	21093
856.461	21283
856.595	21112
856.729	21329
856.862	21184
856.996	21268
857.13	21317
857.263	21260
857.397	21264
857.53	21131
857.664	21382
857.797	21214
857.931	21332
858.064	21176
858.197	21199
858.331	21138
858.464	21112
858.597	21108
858.731	21176
858.864	21112
858.997	21180
859.13	21123
859.263	21256
859.396	21351
859.529	21199
859.662	21146
859.795	21032
859.928	21173
860.061	21306
860.194	21519
860.327	21195
860.46	21344
860.592	21344
860.725	21233
860.858	21272
860.99	21226
861.123	21081
861.256	21135
861.388	21310
861.521	21930
861.653	21074
861.786	20944
861.918	20998
862.05	21154
862.183	21112
862.315	21108
862.447	21203
862.58	21112
862.712	20921
862.844	20868
862.976	21013
863.108	21017
863.24	21389
863.372	20777
863.504	20918
863.636	20826
863.768	20830
863.9	20960
864.032	20891
864.164	20925
864.296	20967
864.428	20952
864.559	20960
864.691	20982
864.823	20952
864.954	20944
865.086	20925
865.217	20788
865.349	20762
865.48	20785
865.612	20796
865.743	20918
865.875	20796
866.006	20773
866.137	20788
866.269	20876
866.4	20845
866.531	20754
866.662	20705
866.793	20754
866.924	20819
867.055	20788
867.186	20785
867.317	20830
867.448	20651
867.579	20682
867.71	20670
867.841	20693
867.972	20785
868.103	20708
868.233	20781
868.364	20693
868.495	20705
868.625	21024
868.756	20933
868.886	21017
869.017	20929
869.147	21013
869.278	21089
869.408	20914
869.539	20868
869.669	21032
869.799	21058
869.929	21116
870.06	21013
870.19	21237
870.32	21245
870.45	21298
870.58	21363
870.71	21397
870.84	21466
870.97	21340
871.1	21386
871.23	21599
871.36	21477
871.489	21443
871.619	21515
871.749	21576
871.879	21667
872.008	21614
872.138	21530
872.267	21488
872.397	21405
872.526	21386
872.656	21374
872.785	21348
872.915	21576
873.044	21618
873.173	21618
873.303	21519
873.432	21656
873.561	21622
873.69	21614
873.819	21523
873.948	21667
874.077	21530
874.206	21618
874.335	21595
874.464	21694
874.593	21838
874.722	21812
874.851	21937
874.979	21941
875.108	21880
875.237	21728
875.365	21774
875.494	21762
875.623	21926
875.751	21785
875.88	21823
876.008	21953
876.136	21968
876.265	22223
876.393	22379
876.521	22341
876.65	22390
876.778	22226
876.906	22154
877.034	22192
877.162	22173
877.29	22063
877.418	22192
877.546	22078
877.674	22169
877.802	22135
877.93	22109
878.058	22067
878.185	21953
878.313	22192
878.441	22226
878.568	22010
878.696	22135
878.824	22249
878.951	22291
879.079	22261
879.206	22592
879.333	22371
879.461	22185
879.588	22287
879.715	22417
879.842	22413
879.97	22105
880.097	22055
880.224	21998
880.351	21937
880.478	22055
880.605	22017
880.732	21945
880.859	22188
880.986	21983
881.112	21975
881.239	21888
881.366	21785
881.493	21762
881.619	21698
881.746	21587
881.872	21625
881.999	21561
882.125	21545
882.252	21568
882.378	21557
882.505	21644
882.631	21469
882.757	21313
882.883	21408
883.01	21298
883.136	21218
883.262	21203
883.388	21036
883.514	21264
883.64	21283
883.766	21241
883.892	20998
884.018	21150
884.143	21256
884.269	21306
884.395	21020
884.52	20979
884.646	20838
884.772	20804
884.897	20944
885.023	20963
885.148	21036
885.274	20933
885.399	21081
885.524	20967
885.65	20887
885.775	20914
885.9	20921
886.025	21032
886.15	20823
886.275	20872
886.4	20823
886.525	20891
886.65	20807
886.775	20750
886.9	21081
887.025	21104
887.149	20864
887.274	20746
887.399	20708
887.523	20686
887.648	20644
887.773	20552
887.897	20754
888.021	20826
888.146	20598
888.27	20674
888.395	20785
888.519	20716
888.643	20788
888.767	20777
888.891	20613
889.015	20522
889.139	20609
889.263	20427
889.387	20590
889.511	20792
889.635	20537
889.759	20507
889.883	20476
890.006	20556
890.13	20682
890.254	20362
890.377	20362
890.501	20301
890.624	20229
890.748	20286
890.871	20157
890.995	20035
891.118	20081
891.241	20054
891.364	20218
891.488	20195
891.611	20119
891.734	20081
891.857	20157
891.98	20054
892.103	20119
892.226	19989
892.349	19947
892.471	19845
892.594	20001
892.717	19925
892.839	19974
892.962	20001
893.085	19955
893.207	19997
893.33	19837
893.452	19940
893.575	20046
893.697	19944
893.819	20199
893.941	20240
894.064	20286
894.186	19921
894.308	19837
894.43	19974
894.552	20149
894.674	20031
894.796	19833
894.918	20027
895.04	19894
895.161	19951
895.283	19989
895.405	19860
895.526	19940
895.648	19951
895.769	20005
895.891	19997
896.012	20100
896.134	20122
896.255	19925
896.376	19883
896.498	19970
896.619	19997
896.74	19898
896.861	20008
896.982	20259
897.103	20526
897.224	20256
897.345	20210
897.466	20172
897.587	20183
897.708	20286
897.828	20290
897.949	20069
898.07	20096
898.19	20187
898.311	20252
898.431	20122
898.552	20168
898.672	20259
898.792	20248
898.913	20176
899.033	20145
899.153	20027
899.273	19997
899.393	19989
899.513	19951
899.633	19898
899.753	19989
899.873	19925
899.993	19940
900.113	19909
900.232	19967
900.352	19795
900.472	19795
900.591	19708
900.711	19731
900.83	19757
900.95	19776
901.069	19761
901.189	19681
901.308	19411
901.427	19320
901.546	19282
901.665	19407
901.784	19297
901.904	19175
902.023	19057
902.141	18916
902.26	18882
902.379	18886
902.498	18798
902.617	18844
902.735	18859
902.854	18810
902.973	18760
903.091	18536
903.21	18471
903.328	18471
903.446	18494
903.565	18292
903.683	18266
903.801	18292
903.919	18163
904.038	18270
904.156	18087
904.274	18072
904.392	18121
904.51	18079
904.627	18091
904.745	18194
904.863	18129
904.981	17878
905.098	17817
905.216	17714
905.334	17779
905.451	17851
905.569	17745
905.686	17748
905.803	17672
905.921	17379
906.038	17600
906.155	17615
906.272	17482
906.389	17493
906.506	17341
906.623	17223
906.74	17311
906.857	17075
906.974	17258
907.091	17208
907.208	17459
907.324	17398
907.441	17223
907.557	17052
907.674	17037
907.79	16930
907.907	17006
908.023	17098
908.139	17022
908.256	16995
908.372	16972
908.488	16866
908.604	16721
908.72	16706
908.836	16801
908.952	16694
909.068	16778
909.184	16752
909.3	16717
909.415	16710
909.531	16721
909.647	16481
909.762	16417
909.878	16382
909.993	16485
910.108	16421
910.224	16428
910.339	16497
910.454	16337
910.57	16299
910.685	16143
910.8	16443
910.915	16310
911.03	16295
911.145	16044
911.259	16131
911.374	16010
911.489	15911
911.604	15903
911.718	15785
911.833	15759
911.947	15690
912.062	15576
912.176	15793
912.291	15865
912.405	15766
912.519	15922
912.633	15949
912.748	15797
912.862	15774
912.976	15732
913.09	15458
913.204	15466
913.318	15625
913.431	15671
913.545	15622
913.659	15629
913.772	15477
913.886	15466
914	15321
914.113	15549
914.226	15507
914.34	15439
914.453	15291
914.566	15363
914.68	15294
914.793	15279
914.906	15138
915.019	14944
915.132	15036
915.245	14914
915.358	15077
915.47	15085
915.583	15028
915.696	15039
915.809	15089
915.921	15039
916.034	14948
916.146	14921
916.259	14880
916.371	15161
916.483	14921
916.595	14914
916.708	14823
916.82	14956
916.932	14785
917.044	14796
917.156	14731
917.268	14648
917.38	14689
917.491	14712
917.603	14568
917.715	14678
917.826	14842
917.938	14530
918.049	14492
918.161	14598
918.272	14746
918.384	14693
918.495	14602
918.606	14393
918.717	14339
918.828	14419
918.939	14404
919.05	14351
919.161	14389
919.272	14161
919.383	14256
919.494	14457
919.604	14556
919.715	14419
919.826	14286
919.936	14347
920.047	14377
920.157	14434
920.267	14655
920.378	14469
920.488	14374
920.598	14564
920.708	14640
920.818	14495
920.928	14568
921.038	14663
921.148	14636
921.258	14347
921.368	14267
921.477	14206
921.587	14081
921.697	14031
921.806	14084
921.916	14016
922.025	13887
922.134	13738
922.244	13715
922.353	13780
922.462	13597
922.571	13594
922.68	13464
922.789	13381
922.898	13392
923.007	13377
923.116	13438
923.224	13400
923.333	13396
923.442	13312
923.55	13263
923.659	13285
923.767	13206
923.876	13202
923.984	13270
924.092	13141
924.201	13217
924.309	13137
924.417	13244
924.525	13118
924.633	13137
924.741	13852
924.849	12913
924.956	13000
925.064	12867
925.172	12886
925.279	12791
925.387	12894
925.494	12817
925.602	12951
925.709	12894
925.816	12692
925.924	12787
926.031	12901
926.138	12840
926.245	12802
926.352	12700
926.459	12802
926.566	12806
926.673	12650
926.779	12673
926.886	12540
926.993	12433
927.099	12391
927.206	12452
927.312	12350
927.419	12410
927.525	12357
927.631	12467
927.737	12262
927.843	12266
927.95	12167
928.056	12155
928.162	12308
928.267	12308
928.373	12905
928.479	12330
928.585	12117
928.69	12178
928.796	12182
928.901	12098
929.007	11935
929.112	12091
929.218	12041
929.323	12030
929.428	11882
929.533	12076
929.638	11878
929.743	11840
929.848	12015
929.953	11939
930.058	11661
930.163	11684
930.267	11752
930.372	11828
930.477	11638
930.581	11859
930.685	11722
930.79	11493
930.894	11630
930.998	11516
931.103	11718
931.207	11284
931.311	11288
931.415	11136
931.519	10953
931.623	10900
