Data from test_V78500241_2012.txt Node
Date: Fri Mar 25 15:23:52 CST 2022
User: usil
Spectrometer: V785-0024
Trigger mode: 0
Integration Time (sec): 4.000000E-1
Scans to average: 1
Nonlinearity correction enabled: false
Boxcar width: 0
Storing dark spectrum: false
XAxis mode: Wavelengths
Number of Pixels in Spectrum: 1024
>>>>>Begin Spectral Data<<<<<
801.071	27857
801.214	27568
801.356	27504
801.499	27427
801.641	27279
801.783	27279
801.926	27252
802.068	27302
802.211	27272
802.353	27157
802.496	26918
802.638	27005
802.78	26895
802.923	26800
803.065	26861
803.208	26792
803.35	26872
803.492	27017
803.635	27089
803.777	27017
803.919	27226
804.061	27439
804.204	27135
804.346	27066
804.488	27077
804.63	27112
804.773	27051
804.915	27142
805.057	27192
805.199	27157
805.341	27218
805.483	27294
805.626	27249
805.768	27112
805.91	27199
806.052	27218
806.194	27310
806.336	27488
806.478	27344
806.62	27287
806.762	27332
806.904	27469
807.046	27660
807.188	27648
807.33	27755
807.472	27766
807.614	27542
807.756	27663
807.898	27599
808.04	27633
808.182	27458
808.324	27477
808.465	27633
808.607	27804
808.749	27846
808.891	27941
809.033	27895
809.174	27972
809.316	27850
809.458	27831
809.6	27774
809.741	27991
809.883	28010
810.025	28181
810.166	28192
810.308	28162
810.45	28158
810.591	28074
810.733	27914
810.875	27797
811.016	27728
811.158	27610
811.299	27892
811.441	28124
811.582	27888
811.724	27876
811.865	27884
812.007	27827
812.148	27793
812.29	28086
812.431	28101
812.573	28150
812.714	28322
812.855	28303
812.997	28557
813.138	28618
813.279	28497
813.421	28386
813.562	28390
813.703	28253
813.845	28139
813.986	27827
814.127	27557
814.268	27671
814.41	27599
814.551	27492
814.692	27660
814.833	27408
814.974	27523
815.115	27580
815.256	27374
815.397	27603
815.539	27344
815.68	27389
815.821	27340
815.962	27359
816.103	27370
816.244	27310
816.385	27104
816.526	27169
816.666	26990
816.807	26788
816.948	26800
817.089	26925
817.23	26887
817.371	26883
817.512	26773
817.653	26735
817.793	26788
817.934	26743
818.075	26796
818.216	26853
818.356	26746
818.497	26739
818.638	26492
818.778	26549
818.919	26579
819.06	26629
819.2	26819
819.341	26796
819.481	26918
819.622	26979
819.762	27169
819.903	27089
820.043	27142
820.184	26956
820.324	26864
820.465	27058
820.605	26979
820.746	26857
820.886	26826
821.026	27062
821.167	26861
821.307	26868
821.447	26750
821.588	26750
821.728	26564
821.868	26492
822.008	26278
822.149	26419
822.289	26301
822.429	26084
822.569	26001
822.709	25986
822.849	25841
822.99	25841
823.13	25723
823.27	25765
823.41	25556
823.55	25518
823.69	25620
823.83	25601
823.97	25594
824.11	25384
824.25	25415
824.389	25369
824.529	25491
824.669	25479
824.809	25544
824.949	25438
825.089	25601
825.228	25476
825.368	25346
825.508	25259
825.648	25274
825.787	25415
825.927	25445
826.067	25324
826.206	25335
826.346	25415
826.485	25320
826.625	25282
826.765	25369
826.904	25289
827.044	25110
827.183	25038
827.323	24981
827.462	25000
827.601	25031
827.741	25107
827.88	25091
828.02	24886
828.159	24989
828.298	25206
828.437	24977
828.577	24985
828.716	25148
828.855	24833
828.994	24791
829.134	24620
829.273	24886
829.412	24776
829.551	24616
829.69	24802
829.829	24677
829.968	24859
830.107	24821
830.246	24684
830.385	24688
830.524	24661
830.663	24551
830.802	24410
830.941	24399
831.08	24460
831.219	24334
831.357	24460
831.496	24547
831.635	24357
831.774	24190
831.913	24262
832.051	24129
832.19	24247
832.329	24098
832.467	24011
832.606	23961
832.744	23942
832.883	24015
833.022	23950
833.16	24144
833.299	24087
833.437	24148
833.576	24163
833.714	23961
833.852	24174
833.991	24136
834.129	24121
834.267	24102
834.406	24106
834.544	24041
834.682	23992
834.821	24041
834.959	24228
835.097	24022
835.235	24136
835.373	23927
835.511	23965
835.65	23821
835.788	23961
835.926	23908
836.064	23646
836.202	23748
836.34	24003
836.478	24003
836.615	23939
836.753	23882
836.891	24003
837.029	23866
837.167	23882
837.305	23882
837.443	23809
837.58	23851
837.718	23802
837.856	23832
837.993	23661
838.131	23699
838.269	23608
838.406	23577
838.544	23554
838.681	23539
838.819	23311
838.956	23166
839.094	23239
839.231	23379
839.369	23490
839.506	23497
839.643	23474
839.781	23250
839.918	23204
840.055	23178
840.193	23174
840.33	23197
840.467	23105
840.604	23086
840.742	23299
840.879	23014
841.016	23044
841.153	22976
841.29	23185
841.427	23208
841.564	23208
841.701	23143
841.838	22999
841.975	23022
842.112	23136
842.249	22892
842.385	22869
842.522	23159
842.659	23010
842.796	22911
842.933	22854
843.069	22869
843.206	22839
843.343	23064
843.479	22915
843.616	22995
843.752	22782
843.889	22755
844.025	22801
844.162	22592
844.298	22812
844.435	22767
844.571	22611
844.708	22755
844.844	22911
844.98	22790
845.117	22873
845.253	22577
845.389	22512
845.525	22660
845.661	22675
845.798	22470
845.934	22554
846.07	22322
846.206	22462
846.342	22436
846.478	22379
846.614	22204
846.75	22078
846.886	22268
847.022	22249
847.158	22238
847.294	22063
847.429	22272
847.565	22135
847.701	22440
847.837	21937
847.972	21907
848.108	22002
848.244	21991
848.379	21717
848.515	21789
848.65	21759
848.786	21778
848.921	21861
849.057	21964
849.192	21781
849.328	21793
849.463	21835
849.598	21736
849.734	21644
849.869	21648
850.004	21591
850.14	21610
850.275	21720
850.41	21374
850.545	21553
850.68	21549
850.815	21568
850.95	21542
851.085	21679
851.22	21545
851.355	21553
851.49	21481
851.625	21462
851.76	21462
851.895	21431
852.03	21504
852.165	21416
852.299	21515
852.434	21595
852.569	21660
852.703	21511
852.838	21595
852.973	21663
853.107	21591
853.242	21450
853.376	21378
853.511	21252
853.645	21275
853.78	21466
853.914	21386
854.048	21329
854.183	21268
854.317	21374
854.451	21538
854.585	21344
854.72	21294
854.854	21336
854.988	21233
855.122	21294
855.256	21154
855.39	21386
855.524	21443
855.658	21382
855.792	21397
855.926	21428
856.06	21504
856.194	21424
856.327	21393
856.461	21374
856.595	21287
856.729	21237
856.862	21431
856.996	21294
857.13	21298
857.263	21492
857.397	21458
857.53	21355
857.664	21386
857.797	21256
857.931	21416
858.064	21294
858.197	21473
858.331	21329
858.464	21275
858.597	21329
858.731	21245
858.864	21287
858.997	21332
859.13	21252
859.263	21405
859.396	21408
859.529	21348
859.662	21325
859.795	21252
859.928	21363
860.061	21485
860.194	21538
860.327	21496
860.46	21310
860.592	21386
860.725	21447
860.858	21393
860.99	21374
861.123	21245
861.256	21214
861.388	21230
861.521	22006
861.653	21203
861.786	21100
861.918	21108
862.05	21135
862.183	21252
862.315	21279
862.447	21249
862.58	21332
862.712	21195
862.844	21066
862.976	21169
863.108	21093
863.24	21329
863.372	20986
863.504	20979
863.636	20963
863.768	21074
863.9	21043
864.032	21032
864.164	20986
864.296	21100
864.428	21055
864.559	21180
864.691	21017
864.823	21036
864.954	20967
865.086	21036
865.217	21055
865.349	20739
865.48	20883
865.612	20921
865.743	21020
865.875	21036
866.006	20830
866.137	20921
866.269	20944
866.4	20815
866.531	20952
866.662	20796
866.793	20857
866.924	21051
867.055	20948
867.186	20819
867.317	20921
867.448	20750
867.579	20872
867.71	20785
867.841	20731
867.972	20944
868.103	20804
868.233	20826
868.364	20944
868.495	20979
868.625	21108
868.756	21294
868.886	21017
869.017	21131
869.147	21321
869.278	21199
869.408	21154
869.539	21013
869.669	21085
869.799	21100
869.929	21169
870.06	21154
870.19	21454
870.32	21306
870.45	21500
870.58	21580
870.71	21656
870.84	21526
870.97	21622
871.1	21439
871.23	21652
871.36	21720
871.489	21633
871.619	21625
871.749	21656
871.879	21781
872.008	21812
872.138	21698
872.267	21766
872.397	21519
872.526	21496
872.656	21610
872.785	21686
872.915	21713
873.044	21679
873.173	21709
873.303	21785
873.432	21713
873.561	21747
873.69	21854
873.819	21781
873.948	21819
874.077	21648
874.206	21667
874.335	21656
874.464	21778
874.593	21934
874.722	22029
874.851	22025
874.979	21941
875.108	22048
875.237	21831
875.365	21785
875.494	21690
875.623	22055
875.751	21926
875.88	21895
876.008	22055
876.136	22196
876.265	22379
876.393	22386
876.521	22352
876.65	22584
876.778	22325
876.906	22417
877.034	22295
877.162	22413
877.29	22181
877.418	22386
877.546	22234
877.674	22371
877.802	22352
877.93	22272
878.058	22215
878.185	22120
878.313	22371
878.441	22268
878.568	22097
878.696	22257
878.824	22337
878.951	22303
879.079	22538
879.206	22565
879.333	22497
879.461	22333
879.588	22516
879.715	22455
879.842	22653
879.97	22352
880.097	22048
880.224	22109
880.351	22295
880.478	22166
880.605	22086
880.732	22002
880.859	22478
880.986	22051
881.112	22200
881.239	21987
881.366	21800
881.493	21846
881.619	21698
881.746	21739
881.872	21637
881.999	21701
882.125	21637
882.252	21694
882.378	21648
882.505	21819
882.631	21595
882.757	21397
882.883	21515
883.01	21572
883.136	21252
883.262	21211
883.388	21154
883.514	21431
883.64	21481
883.766	21344
883.892	21272
884.018	21192
884.143	21370
884.269	21492
884.395	21138
884.52	20975
884.646	20971
884.772	20868
884.897	20986
885.023	20933
885.148	21127
885.274	21157
885.399	21062
885.524	21161
885.65	21066
885.775	20998
885.9	20880
886.025	21161
886.15	21127
886.275	21017
886.4	20834
886.525	21009
886.65	20956
886.775	20971
886.9	21036
887.025	21165
887.149	20925
887.274	20857
887.399	20826
887.523	20754
887.648	20769
887.773	20697
887.897	20823
888.021	20838
888.146	20739
888.27	20823
888.395	20918
888.519	20842
888.643	20853
888.767	20826
888.891	20750
889.015	20629
889.139	20606
889.263	20686
889.387	20754
889.511	20762
889.635	20659
889.759	20644
889.883	20476
890.006	20541
890.13	20758
890.254	20438
890.377	20560
890.501	20400
890.624	20324
890.748	20434
890.871	20301
890.995	20096
891.118	20077
891.241	20138
891.364	20092
891.488	20320
891.611	20138
891.734	20088
891.857	20233
891.98	20206
892.103	20183
892.226	20168
892.349	20130
892.471	19913
892.594	20100
892.717	20183
892.839	19978
892.962	20134
893.085	20111
893.207	19947
893.33	20050
893.452	20073
893.575	20046
893.697	20164
893.819	20218
893.941	20377
894.064	20187
894.186	20016
894.308	20054
894.43	20157
894.552	20286
894.674	20088
894.796	20008
894.918	20069
895.04	20073
895.161	20126
895.283	20229
895.405	19993
895.526	20058
895.648	20039
895.769	20016
895.891	20157
896.012	20168
896.134	20103
896.255	20062
896.376	20138
896.498	20012
896.619	20130
896.74	20069
896.861	20161
896.982	20450
897.103	20598
897.224	20298
897.345	20294
897.466	20191
897.587	20320
897.708	20309
897.828	20305
897.949	20278
898.07	20107
898.19	20191
898.311	20381
898.431	20233
898.552	20275
898.672	20507
898.792	20370
898.913	20328
899.033	20130
899.153	20122
899.273	19890
899.393	20100
899.513	20107
899.633	20126
899.753	20195
899.873	19909
899.993	20054
900.113	19932
900.232	20069
900.352	20084
900.472	19833
900.591	19799
900.711	19712
900.83	19856
900.95	19898
901.069	19822
901.189	19803
901.308	19480
901.427	19460
901.546	19415
901.665	19419
901.784	19453
901.904	19324
902.023	19221
902.141	18871
902.26	18863
902.379	19015
902.498	18909
902.617	18840
902.735	18882
902.854	18844
902.973	18867
903.091	18551
903.21	18479
903.328	18601
903.446	18471
903.565	18437
903.683	18372
903.801	18254
903.919	18270
904.038	18247
904.156	18182
904.274	18186
904.392	18136
904.51	18106
904.627	18125
904.745	18228
904.863	18171
904.981	17977
905.098	17828
905.216	17866
905.334	17939
905.451	17893
905.569	17805
905.686	17821
905.803	17684
905.921	17592
906.038	17718
906.155	17649
906.272	17653
906.389	17501
906.506	17406
906.623	17379
906.74	17372
906.857	17208
906.974	17227
907.091	17345
907.208	17417
907.324	17311
907.441	17181
907.557	17162
907.674	17052
907.79	16980
907.907	17037
908.023	17048
908.139	17041
908.256	17086
908.372	16991
908.488	16923
908.604	16820
908.72	16717
908.836	16748
908.952	16812
909.068	16805
909.184	16908
909.3	16755
909.415	16801
909.531	16816
909.647	16618
909.762	16481
909.878	16489
909.993	16554
910.108	16470
910.224	16466
910.339	16478
910.454	16409
910.57	16344
910.685	16325
910.8	16512
910.915	16443
911.03	16249
911.145	16082
911.259	16090
911.374	16158
911.489	15964
911.604	15964
911.718	15838
911.833	15937
911.947	15679
912.062	15618
912.176	15899
912.291	15850
912.405	15800
912.519	16010
912.633	16036
912.748	15884
912.862	15774
912.976	15720
913.09	15591
913.204	15648
913.318	15663
913.431	15739
913.545	15781
913.659	15819
913.772	15622
913.886	15545
914	15507
914.113	15485
914.226	15671
914.34	15481
914.453	15386
914.566	15416
914.68	15348
914.793	15321
914.906	15112
915.019	15032
915.132	14971
915.245	15077
915.358	15192
915.47	15070
915.583	15112
915.696	15150
915.809	15157
915.921	15176
916.034	15055
916.146	14967
916.259	14925
916.371	15138
916.483	15062
916.595	14925
916.708	14918
916.82	14899
916.932	14910
917.044	14910
917.156	14838
917.268	14724
917.38	14777
917.491	14648
917.603	14697
917.715	14746
917.826	14739
917.938	14644
918.049	14415
918.161	14682
918.272	14731
918.384	14895
918.495	14667
918.606	14434
918.717	14362
918.828	14419
918.939	14480
919.05	14431
919.161	14446
919.272	14233
919.383	14347
919.494	14533
919.604	14610
919.715	14457
919.826	14419
919.936	14450
920.047	14530
920.157	14431
920.267	14617
920.378	14381
920.488	14427
920.598	14575
920.708	14708
920.818	14606
920.928	14648
921.038	14853
921.148	14670
921.258	14366
921.368	14305
921.477	14153
921.587	14214
921.697	14119
921.806	14267
921.916	14073
922.025	13871
922.134	13727
922.244	13753
922.353	13761
922.462	13670
922.571	13715
922.68	13453
922.789	13419
922.898	13457
923.007	13365
923.116	13495
923.224	13445
923.333	13419
923.442	13343
923.55	13316
923.659	13285
923.767	13438
923.876	13282
923.984	13308
924.092	13190
924.201	13175
924.309	13259
924.417	13244
924.525	13118
924.633	13141
924.741	13944
924.849	12951
924.956	13084
925.064	12913
925.172	12856
925.279	12875
925.387	12935
925.494	12856
925.602	13053
925.709	12970
925.816	12856
925.924	12772
926.031	12886
926.138	12726
926.245	12783
926.352	12665
926.459	12875
926.566	12913
926.673	12749
926.779	12620
926.886	12669
926.993	12536
927.099	12502
927.206	12441
927.312	12365
927.419	12540
927.525	12498
927.631	12384
927.737	12243
927.843	12277
927.95	12194
928.056	12277
928.162	12209
928.267	12372
928.373	12783
928.479	12346
928.585	12224
928.69	12197
928.796	12281
928.901	12091
929.007	11988
929.112	12148
929.218	12079
929.323	12072
929.428	11950
929.533	12034
929.638	11874
929.743	11992
929.848	11973
929.953	11980
930.058	11817
930.163	11623
930.267	11608
930.372	11790
930.477	11695
930.581	11794
930.685	11699
930.79	11573
930.894	11623
930.998	11608
931.103	11748
931.207	11311
931.311	11315
931.415	11140
931.519	10957
931.623	10991
