Data from test_V78500241_1080.txt Node
Date: Fri Mar 25 15:17:22 CST 2022
User: usil
Spectrometer: V785-0024
Trigger mode: 0
Integration Time (sec): 4.000000E-1
Scans to average: 1
Nonlinearity correction enabled: false
Boxcar width: 0
Storing dark spectrum: false
XAxis mode: Wavelengths
Number of Pixels in Spectrum: 1024
>>>>>Begin Spectral Data<<<<<
801.071	28344
801.214	28021
801.356	27941
801.499	27865
801.641	27808
801.783	27724
801.926	27850
802.068	27793
802.211	27637
802.353	27747
802.496	27492
802.638	27363
802.78	27408
802.923	27500
803.065	27443
803.208	27405
803.35	27530
803.492	27542
803.635	27580
803.777	27618
803.919	27656
804.061	27964
804.204	27770
804.346	27492
804.488	27519
804.63	27530
804.773	27675
804.915	27507
805.057	27850
805.199	27610
805.341	27743
805.483	27816
805.626	27797
805.768	27724
805.91	27713
806.052	27766
806.194	27686
806.336	27880
806.478	27728
806.62	27918
806.762	27899
806.904	28074
807.046	28356
807.188	28211
807.33	28226
807.472	28139
807.614	28097
807.756	28150
807.898	28166
808.04	28082
808.182	28131
808.324	28173
808.465	28147
808.607	28295
808.749	28329
808.891	28554
809.033	28656
809.174	28519
809.316	28348
809.458	28344
809.6	28390
809.741	28622
809.883	28550
810.025	28698
810.166	28649
810.308	28736
810.45	28656
810.591	28664
810.733	28462
810.875	28459
811.016	28322
811.158	28261
811.299	28596
811.441	28679
811.582	28611
811.724	28371
811.865	28497
812.007	28459
812.148	28409
812.29	28508
812.431	28516
812.573	28778
812.714	28869
812.855	29006
812.997	29136
813.138	29181
813.279	28987
813.421	28984
813.562	28858
813.703	28816
813.845	28729
813.986	28493
814.127	28322
814.268	28188
814.41	28291
814.551	28230
814.692	28284
814.833	28120
814.974	28078
815.115	28284
815.256	28055
815.397	28040
815.539	28013
815.68	28002
815.821	27994
815.962	28025
816.103	27960
816.244	27812
816.385	27701
816.526	27583
816.666	27622
816.807	27450
816.948	27675
817.089	27618
817.23	27469
817.371	27397
817.512	27435
817.653	27485
817.793	27477
817.934	27454
818.075	27561
818.216	27348
818.356	27401
818.497	27321
818.638	27287
818.778	27272
818.919	27245
819.06	27302
819.2	27386
819.341	27447
819.481	27564
819.622	27606
819.762	27823
819.903	27743
820.043	27675
820.184	27728
820.324	27595
820.465	27682
820.605	27610
820.746	27637
820.886	27447
821.026	27667
821.167	27587
821.307	27622
821.447	27386
821.588	27397
821.728	27222
821.868	27051
822.008	26994
822.149	26887
822.289	27055
822.429	26640
822.569	26720
822.709	26632
822.849	26465
822.99	26453
823.13	26442
823.27	26442
823.41	26282
823.55	26229
823.69	26324
823.83	26347
823.97	26248
824.11	26096
824.25	26107
824.389	26115
824.529	26278
824.669	26142
824.809	26248
824.949	26271
825.089	26263
825.228	26225
825.368	26062
825.508	26130
825.648	26191
825.787	26043
825.927	26088
826.067	25963
826.206	26020
826.346	25963
826.485	26043
826.625	26046
826.765	26043
826.904	26035
827.044	25826
827.183	25868
827.323	25753
827.462	25795
827.601	25658
827.741	25734
827.88	25814
828.02	25628
828.159	25738
828.298	25666
828.437	25715
828.577	25670
828.716	25807
828.855	25791
828.994	25339
829.134	25499
829.273	25403
829.412	25346
829.551	25369
829.69	25407
829.829	25400
829.968	25525
830.107	25472
830.246	25415
830.385	25339
830.524	25407
830.663	25282
830.802	25274
830.941	25072
831.08	24935
831.219	25228
831.357	25072
831.496	25301
831.635	25152
831.774	24894
831.913	25004
832.051	24871
832.19	24806
832.329	24935
832.467	24749
832.606	24692
832.744	24654
832.883	24719
833.022	24749
833.16	24661
833.299	24852
833.437	24700
833.576	24852
833.714	24920
833.852	24962
833.991	24935
834.129	24821
834.267	24848
834.406	24890
834.544	24966
834.682	24730
834.821	24779
834.959	24962
835.097	24867
835.235	24825
835.373	24814
835.511	24738
835.65	24604
835.788	24559
835.926	24467
836.064	24437
836.202	24544
836.34	24525
836.478	24840
836.615	24616
836.753	24635
836.891	24749
837.029	24658
837.167	24570
837.305	24525
837.443	24547
837.58	24547
837.718	24566
837.856	24448
837.993	24540
838.131	24566
838.269	24277
838.406	24448
838.544	24308
838.681	24095
838.819	24129
838.956	24087
839.094	24072
839.231	24015
839.369	24152
839.506	24330
839.643	24239
839.781	23996
839.918	23863
840.055	23969
840.193	23939
840.33	23897
840.467	23824
840.604	23973
840.742	24091
840.879	23798
841.016	23767
841.153	23665
841.29	24030
841.427	23931
841.564	23866
841.701	23779
841.838	23786
841.975	23859
842.112	23885
842.249	23649
842.385	23676
842.522	23752
842.659	23733
842.796	23756
842.933	23790
843.069	23638
843.206	23592
843.343	23600
843.479	23589
843.616	23668
843.752	23512
843.889	23368
844.025	23516
844.162	23410
844.298	23501
844.435	23345
844.571	23402
844.708	23315
844.844	23642
844.98	23615
845.117	23459
845.253	23467
845.389	23185
845.525	23284
845.661	23250
845.798	23090
845.934	23227
846.07	23140
846.206	23220
846.342	23292
846.478	23044
846.614	22953
846.75	22843
846.886	22744
847.022	22949
847.158	22816
847.294	22869
847.429	22850
847.565	22843
847.701	23083
847.837	22542
847.972	22573
848.108	22531
848.244	22687
848.379	22512
848.515	22379
848.65	22432
848.786	22462
848.921	22367
849.057	22653
849.192	22557
849.328	22546
849.463	22493
849.598	22360
849.734	22348
849.869	22310
850.004	22215
850.14	22219
850.275	22135
850.41	22070
850.545	22093
850.68	22192
850.815	22207
850.95	22287
851.085	22493
851.22	22299
851.355	22344
851.49	22234
851.625	22139
851.76	22192
851.895	22067
852.03	22154
852.165	22158
852.299	22306
852.434	22306
852.569	22070
852.703	22238
852.838	22295
852.973	22382
853.107	22238
853.242	22158
853.376	22025
853.511	21918
853.645	21922
853.78	22124
853.914	22078
854.048	21964
854.183	22051
854.317	21972
854.451	22337
854.585	22006
854.72	22051
854.854	22082
854.988	21922
855.122	22097
855.256	21899
855.39	22086
855.524	22162
855.658	22021
855.792	22006
855.926	21987
856.06	22032
856.194	22109
856.327	22067
856.461	21876
856.595	22097
856.729	21998
856.862	22135
856.996	22063
857.13	22112
857.263	22147
857.397	22162
857.53	22067
857.664	21930
857.797	22017
857.931	22154
858.064	21979
858.197	22032
858.331	22021
858.464	22055
858.597	21987
858.731	22021
858.864	22101
858.997	21979
859.13	21960
859.263	22051
859.396	22166
859.529	22002
859.662	22021
859.795	21911
859.928	22002
860.061	22188
860.194	22230
860.327	21975
860.46	22067
860.592	22226
860.725	22261
860.858	22200
860.99	22112
861.123	21907
861.256	21956
861.388	22135
861.521	22820
861.653	21930
861.786	21869
861.918	21816
862.05	21915
862.183	21869
862.315	21941
862.447	21960
862.58	21972
862.712	21606
862.844	21671
862.976	21739
863.108	21747
863.24	22295
863.372	21713
863.504	21671
863.636	21743
863.768	21797
863.9	21705
864.032	21667
864.164	21762
864.296	21781
864.428	21800
864.559	21831
864.691	21816
864.823	21831
864.954	21629
865.086	21644
865.217	21690
865.349	21545
865.48	21568
865.612	21587
865.743	21774
865.875	21679
866.006	21576
866.137	21656
866.269	21724
866.4	21549
866.531	21583
866.662	21534
866.793	21663
866.924	21542
867.055	21500
867.186	21572
867.317	21557
867.448	21458
867.579	21583
867.71	21367
867.841	21507
867.972	21629
868.103	21603
868.233	21530
868.364	21603
868.495	21583
868.625	21793
868.756	21819
868.886	21641
869.017	21660
869.147	21850
869.278	21945
869.408	21907
869.539	21667
869.669	21835
869.799	21930
869.929	21960
870.06	21899
870.19	22101
870.32	22048
870.45	22265
870.58	22105
870.71	22306
870.84	22356
870.97	22166
871.1	22215
871.23	22322
871.36	22261
871.489	22284
871.619	22257
871.749	22409
871.879	22333
872.008	22455
872.138	22485
872.267	22329
872.397	22242
872.526	22234
872.656	22253
872.785	22295
872.915	22386
873.044	22497
873.173	22489
873.303	22489
873.432	22398
873.561	22443
873.69	22455
873.819	22352
873.948	22497
874.077	22546
874.206	22356
874.335	22413
874.464	22531
874.593	22637
874.722	22580
874.851	22592
874.979	22740
875.108	22649
875.237	22451
875.365	22592
875.494	22561
875.623	22721
875.751	22470
875.88	22565
876.008	22660
876.136	22752
876.265	22972
876.393	23094
876.521	23102
876.65	23121
876.778	23143
876.906	22866
877.034	22858
877.162	22957
877.29	22881
877.418	22934
877.546	23048
877.674	22965
877.802	23075
877.93	22881
878.058	22938
878.185	22843
878.313	22869
878.441	22980
878.568	22721
878.696	22812
878.824	23105
878.951	23041
879.079	23105
879.206	23220
879.333	23090
879.461	22972
879.588	23033
879.715	23128
879.842	23231
879.97	22965
880.097	22759
880.224	22850
880.351	22835
880.478	22782
880.605	22771
880.732	22778
880.859	23041
880.986	22717
881.112	22702
881.239	22634
881.366	22500
881.493	22481
881.619	22443
881.746	22459
881.872	22329
881.999	22284
882.125	22192
882.252	22314
882.378	22379
882.505	22432
882.631	22249
882.757	22078
882.883	22147
883.01	22036
883.136	22013
883.262	21869
883.388	21873
883.514	22017
883.64	22067
883.766	21915
883.892	21846
884.018	21880
884.143	22048
884.269	22055
884.395	21717
884.52	21679
884.646	21656
884.772	21523
884.897	21549
885.023	21622
885.148	21793
885.274	21724
885.399	21778
885.524	21523
885.65	21720
885.775	21679
885.9	21606
886.025	21736
886.15	21797
886.275	21610
886.4	21705
886.525	21595
886.65	21633
886.775	21705
886.9	21793
887.025	21865
887.149	21633
887.274	21488
887.399	21321
887.523	21549
887.648	21454
887.773	21340
887.897	21523
888.021	21454
888.146	21401
888.27	21603
888.395	21507
888.519	21477
888.643	21447
888.767	21496
888.891	21405
889.015	21180
889.139	21336
889.263	21268
889.387	21374
889.511	21367
889.635	21325
889.759	21074
889.883	21142
890.006	21188
890.13	21386
890.254	21138
890.377	21108
890.501	20876
890.624	20937
890.748	21013
890.871	20906
890.995	20811
891.118	20663
891.241	20701
891.364	20815
891.488	20921
891.611	20727
891.734	20693
891.857	20819
891.98	20712
892.103	20769
892.226	20785
892.349	20765
892.471	20602
892.594	20686
892.717	20667
892.839	20617
892.962	20735
893.085	20625
893.207	20705
893.33	20587
893.452	20625
893.575	20720
893.697	20503
893.819	20746
893.941	20960
894.064	20769
894.186	20651
894.308	20552
894.43	20819
894.552	20758
894.674	20674
894.796	20495
894.918	20655
895.04	20571
895.161	20788
895.283	20731
895.405	20667
895.526	20549
895.648	20575
895.769	20632
895.891	20629
896.012	20712
896.134	20625
896.255	20617
896.376	20575
896.498	20602
896.619	20739
896.74	20758
896.861	20613
896.982	20960
897.103	20982
897.224	21055
897.345	20880
897.466	20845
897.587	20785
897.708	21013
897.828	20895
897.949	20796
898.07	20701
898.19	20720
898.311	20811
898.431	20773
898.552	20807
898.672	20979
898.792	20944
898.913	20918
899.033	20754
899.153	20693
899.273	20556
899.393	20705
899.513	20648
899.633	20609
899.753	20590
899.873	20583
899.993	20655
900.113	20552
900.232	20545
900.352	20560
900.472	20313
900.591	20374
900.711	20442
900.83	20488
900.95	20499
901.069	20408
901.189	20134
901.308	20050
901.427	19852
901.546	19947
901.665	20031
901.784	19993
901.904	19753
902.023	19639
902.141	19499
902.26	19548
902.379	19502
902.498	19365
902.617	19384
902.735	19556
902.854	19407
902.973	19377
903.091	19107
903.21	19019
903.328	19038
903.446	19004
903.565	18935
903.683	18954
903.801	18829
903.919	18932
904.038	18730
904.156	18684
904.274	18707
904.392	18658
904.51	18650
904.627	18635
904.745	18654
904.863	18684
904.981	18353
905.098	18365
905.216	18372
905.334	18361
905.451	18330
905.569	18254
905.686	18357
905.803	18277
905.921	18076
906.038	18300
906.155	18117
906.272	18064
906.389	18087
906.506	17954
906.623	17935
906.74	17813
906.857	17764
906.974	17748
907.091	17923
907.208	17965
907.324	17786
907.441	17783
907.557	17585
907.674	17691
907.79	17512
907.907	17611
908.023	17623
908.139	17543
908.256	17410
908.372	17429
908.488	17353
908.604	17330
908.72	17208
908.836	17402
908.952	17296
909.068	17353
909.184	17425
909.3	17212
909.415	17292
909.531	17273
909.647	16972
909.762	16991
909.878	16995
909.993	16984
910.108	17052
910.224	16915
910.339	17090
910.454	16866
910.57	16862
910.685	16717
910.8	17086
910.915	16869
911.03	16752
911.145	16725
911.259	16664
911.374	16565
911.489	16440
911.604	16451
911.718	16352
911.833	16409
911.947	16325
912.062	16109
912.176	16337
912.291	16284
912.405	16325
912.519	16535
912.633	16626
912.748	16333
912.862	16287
912.976	16200
913.09	15994
913.204	16128
913.318	16135
913.431	16211
913.545	16215
913.659	16238
913.772	16131
913.886	15968
914	15873
914.113	16090
914.226	16105
914.34	16002
914.453	15850
914.566	15934
914.68	15747
914.793	15831
914.906	15663
915.019	15591
915.132	15450
915.245	15545
915.358	15500
915.47	15606
915.583	15530
915.696	15519
915.809	15576
915.921	15614
916.034	15523
916.146	15408
916.259	15450
916.371	15492
916.483	15473
916.595	15412
916.708	15310
916.82	15367
916.932	15241
917.044	15313
917.156	15317
917.268	15180
917.38	15230
917.491	15165
917.603	15306
917.715	15211
917.826	15268
917.938	15074
918.049	14971
918.161	15058
918.272	15142
918.384	15135
918.495	15112
918.606	14914
918.717	14872
918.828	14906
918.939	14929
919.05	14918
919.161	14933
919.272	14682
919.383	14743
919.494	14910
919.604	15047
919.715	14902
919.826	14830
919.936	14785
920.047	14910
920.157	14891
920.267	15039
920.378	14967
920.488	14788
920.598	15119
920.708	15123
920.818	15062
920.928	14990
921.038	15051
921.148	15070
921.258	14823
921.368	14773
921.477	14682
921.587	14655
921.697	14526
921.806	14560
921.916	14408
922.025	14412
922.134	14286
922.244	14199
922.353	14278
922.462	14130
922.571	14084
922.68	13970
922.789	13849
922.898	13883
923.007	13826
923.116	13879
923.224	13879
923.333	13826
923.442	13708
923.55	13624
923.659	13761
923.767	13788
923.876	13651
923.984	13715
924.092	13616
924.201	13616
924.309	13567
924.417	13605
924.525	13609
924.633	13601
924.741	14415
924.849	13297
924.956	13434
925.064	13369
925.172	13179
925.279	13270
925.387	13289
925.494	13278
925.602	13377
925.709	13327
925.816	13168
925.924	13202
926.031	13293
926.138	13259
926.245	13209
926.352	13114
926.459	13289
926.566	13259
926.673	13129
926.779	13004
926.886	12970
926.993	12829
927.099	12890
927.206	12833
927.312	12833
927.419	12844
927.525	12871
927.631	12852
927.737	12760
927.843	12696
927.95	12612
928.056	12662
928.162	12681
928.267	12677
928.373	13308
928.479	12585
928.585	12486
928.69	12574
928.796	12688
928.901	12456
929.007	12361
929.112	12498
929.218	12403
929.323	12365
929.428	12296
929.533	12589
929.638	12239
929.743	12292
929.848	12365
929.953	12372
930.058	12205
930.163	11992
930.267	12041
930.372	12117
930.477	12022
930.581	12125
930.685	12152
930.79	11878
930.894	11946
930.998	11961
931.103	12045
931.207	11589
931.311	11668
931.415	11589
931.519	11334
931.623	11303
