Data from test_V78500241_759.txt Node
Date: Fri Mar 25 15:15:08 CST 2022
User: usil
Spectrometer: V785-0024
Trigger mode: 0
Integration Time (sec): 4.000000E-1
Scans to average: 1
Nonlinearity correction enabled: false
Boxcar width: 0
Storing dark spectrum: false
XAxis mode: Wavelengths
Number of Pixels in Spectrum: 1024
>>>>>Begin Spectral Data<<<<<
801.071	28109
801.214	27873
801.356	27663
801.499	27652
801.641	27526
801.783	27386
801.926	27367
802.068	27519
802.211	27310
802.353	27317
802.496	27043
802.638	27222
802.78	27112
802.923	27058
803.065	27150
803.208	27264
803.35	27222
803.492	27188
803.635	27203
803.777	27123
803.919	27424
804.061	27572
804.204	27336
804.346	27211
804.488	27302
804.63	27450
804.773	27351
804.915	27374
805.057	27545
805.199	27416
805.341	27416
805.483	27618
805.626	27542
805.768	27256
805.91	27526
806.052	27469
806.194	27435
806.336	27644
806.478	27603
806.62	27416
806.762	27720
806.904	27656
807.046	28044
807.188	27914
807.33	27827
807.472	28006
807.614	27831
807.756	27892
807.898	27846
808.04	27808
808.182	27724
808.324	27774
808.465	27865
808.607	28006
808.749	28105
808.891	28196
809.033	28360
809.174	28093
809.316	28120
809.458	28154
809.6	28051
809.741	28295
809.883	28379
810.025	28409
810.166	28557
810.308	28379
810.45	28459
810.591	28394
810.733	28177
810.875	28139
811.016	28040
811.158	28067
811.299	28120
811.441	28272
811.582	28291
811.724	28086
811.865	28097
812.007	28325
812.148	28234
812.29	28238
812.431	28329
812.573	28557
812.714	28523
812.855	28710
812.997	28877
813.138	29029
813.279	28843
813.421	28733
813.562	28721
813.703	28470
813.845	28489
813.986	28181
814.127	27934
814.268	27827
814.41	27895
814.551	27747
814.692	27994
814.833	27854
814.974	27812
815.115	27892
815.256	27743
815.397	27675
815.539	27816
815.68	27629
815.821	27526
815.962	27648
816.103	27572
816.244	27431
816.385	27542
816.526	27507
816.666	27374
816.807	27161
816.948	27211
817.089	27306
817.23	27279
817.371	27150
817.512	27123
817.653	27222
817.793	27192
817.934	27241
818.075	27100
818.216	27138
818.356	27085
818.497	27089
818.638	26921
818.778	26910
818.919	26804
819.06	27043
819.2	27017
819.341	27123
819.481	27165
819.622	27116
819.762	27332
819.903	27359
820.043	27363
820.184	27287
820.324	27336
820.465	27245
820.605	27218
820.746	27195
820.886	27150
821.026	27184
821.167	27176
821.307	27256
821.447	27298
821.588	27116
821.728	26895
821.868	26613
822.008	26556
822.149	26606
822.289	26579
822.429	26431
822.569	26377
822.709	26434
822.849	26092
822.99	26164
823.13	26020
823.27	26092
823.41	26016
823.55	25753
823.69	26092
823.83	25989
823.97	25928
824.11	25784
824.25	25609
824.389	25750
824.529	25837
824.669	25712
824.809	25887
824.949	25871
825.089	25875
825.228	25738
825.368	25658
825.508	25620
825.648	25723
825.787	25674
825.927	25639
826.067	25635
826.206	25594
826.346	25624
826.485	25685
826.625	25662
826.765	25715
826.904	25632
827.044	25388
827.183	25392
827.323	25339
827.462	25365
827.601	25419
827.741	25346
827.88	25453
828.02	25327
828.159	25377
828.298	25316
828.437	25384
828.577	25362
828.716	25529
828.855	25339
828.994	25118
829.134	25107
829.273	25114
829.412	25072
829.551	24954
829.69	24973
829.829	25050
829.968	25221
830.107	25145
830.246	25187
830.385	24962
830.524	24909
830.663	24817
830.802	24844
830.941	24639
831.08	24779
831.219	24753
831.357	24726
831.496	25000
831.635	24658
831.774	24570
831.913	24665
832.051	24517
832.19	24471
832.329	24426
832.467	24361
832.606	24289
832.744	24292
832.883	24300
833.022	24273
833.16	24197
833.299	24426
833.437	24376
833.576	24346
833.714	24441
833.852	24498
833.991	24494
834.129	24589
834.267	24353
834.406	24372
834.544	24456
834.682	24410
834.821	24445
834.959	24540
835.097	24311
835.235	24460
835.373	24353
835.511	24334
835.65	24426
835.788	24209
835.926	24114
836.064	23996
836.202	24136
836.34	24224
836.478	24346
836.615	24258
836.753	24178
836.891	24254
837.029	24201
837.167	24110
837.305	24152
837.443	24247
837.58	24060
837.718	24190
837.856	24106
837.993	24003
838.131	23969
838.269	23912
838.406	23912
838.544	23935
838.681	23638
838.819	23745
838.956	23528
839.094	23638
839.231	23592
839.369	23764
839.506	23996
839.643	23771
839.781	23478
839.918	23463
840.055	23516
840.193	23417
840.33	23372
840.467	23448
840.604	23543
840.742	23684
840.879	23284
841.016	23417
841.153	23261
841.29	23528
841.427	23337
841.564	23433
841.701	23410
841.838	23383
841.975	23337
842.112	23368
842.249	23296
842.385	23208
842.522	23417
842.659	23239
842.796	23166
842.933	23197
843.069	23094
843.206	23185
843.343	23261
843.479	23121
843.616	23223
843.752	22911
843.889	22980
844.025	23003
844.162	22911
844.298	23052
844.435	22987
844.571	22957
844.708	23006
844.844	23064
844.98	23079
845.117	22972
845.253	22839
845.389	22820
845.525	22877
845.661	22877
845.798	22656
845.934	22702
846.07	22774
846.206	22866
846.342	22801
846.478	22607
846.614	22523
846.75	22402
846.886	22451
847.022	22470
847.158	22466
847.294	22451
847.429	22436
847.565	22504
847.701	22626
847.837	22169
847.972	22055
848.108	22215
848.244	22181
848.379	22082
848.515	21994
848.65	21911
848.786	22105
848.921	22051
849.057	22131
849.192	22177
849.328	22158
849.463	21972
849.598	22013
849.734	21998
849.869	21915
850.004	21774
850.14	21895
850.275	21873
850.41	21770
850.545	21618
850.68	21770
850.815	21789
850.95	21865
851.085	21895
851.22	21975
851.355	21812
851.49	21880
851.625	21698
851.76	21762
851.895	21663
852.03	21709
852.165	21789
852.299	21838
852.434	21930
852.569	21876
852.703	21770
852.838	21888
852.973	21850
853.107	21895
853.242	21694
853.376	21622
853.511	21538
853.645	21633
853.78	21819
853.914	21641
854.048	21576
854.183	21580
854.317	21591
854.451	21789
854.585	21644
854.72	21747
854.854	21739
854.988	21599
855.122	21679
855.256	21583
855.39	21667
855.524	21774
855.658	21713
855.792	21660
855.926	21542
856.06	21717
856.194	21736
856.327	21580
856.461	21515
856.595	21652
856.729	21614
856.862	21686
856.996	21618
857.13	21599
857.263	21652
857.397	21762
857.53	21500
857.664	21652
857.797	21656
857.931	21682
858.064	21648
858.197	21732
858.331	21629
858.464	21625
858.597	21458
858.731	21557
858.864	21511
858.997	21553
859.13	21675
859.263	21762
859.396	21743
859.529	21671
859.662	21534
859.795	21599
859.928	21610
860.061	21720
860.194	21770
860.327	21686
860.46	21633
860.592	21717
860.725	21812
860.858	21690
860.99	21595
861.123	21534
861.256	21583
861.388	21614
861.521	22230
861.653	21481
861.786	21405
861.918	21610
862.05	21443
862.183	21504
862.315	21416
862.447	21633
862.58	21492
862.712	21447
862.844	21306
862.976	21386
863.108	21428
863.24	21698
863.372	21180
863.504	21344
863.636	21435
863.768	21466
863.9	21462
864.032	21291
864.164	21302
864.296	21351
864.428	21378
864.559	21492
864.691	21405
864.823	21226
864.954	21252
865.086	21283
865.217	21176
865.349	21173
865.48	21268
865.612	21176
865.743	21389
865.875	21256
866.006	21268
866.137	21256
866.269	21222
866.4	21317
866.531	21184
866.662	21119
866.793	21154
866.924	21211
867.055	21188
867.186	21157
867.317	21070
867.448	21169
867.579	21112
867.71	21093
867.841	21138
867.972	21176
868.103	21096
868.233	21096
868.364	21211
868.495	21192
868.625	21359
868.756	21507
868.886	21370
869.017	21252
869.147	21393
869.278	21519
869.408	21370
869.539	21287
869.669	21466
869.799	21454
869.929	21458
870.06	21526
870.19	21751
870.32	21656
870.45	21812
870.58	21865
870.71	21895
870.84	21964
870.97	21751
871.1	21755
871.23	21968
871.36	21884
871.489	21884
871.619	21911
871.749	21998
871.879	21972
872.008	22040
872.138	22017
872.267	21895
872.397	21930
872.526	21793
872.656	21884
872.785	21911
872.915	21937
873.044	22044
873.173	22002
873.303	22055
873.432	21953
873.561	22150
873.69	22029
873.819	22074
873.948	22006
874.077	22196
874.206	21941
874.335	21949
874.464	22192
874.593	22234
874.722	22215
874.851	22158
874.979	22200
875.108	22295
875.237	22181
875.365	22173
875.494	22177
875.623	22284
875.751	22188
875.88	22215
876.008	22265
876.136	22382
876.265	22618
876.393	22778
876.521	22683
876.65	22584
876.778	22706
876.906	22531
877.034	22504
877.162	22580
877.29	22554
877.418	22580
877.546	22630
877.674	22508
877.802	22523
877.93	22557
878.058	22557
878.185	22470
878.313	22512
878.441	22538
878.568	22322
878.696	22462
878.824	22557
878.951	22538
879.079	22710
879.206	22839
879.333	22672
879.461	22538
879.588	22721
879.715	22774
879.842	22672
879.97	22546
880.097	22367
880.224	22462
880.351	22314
880.478	22352
880.605	22382
880.732	22394
880.859	22588
880.986	22352
881.112	22367
881.239	22318
881.366	22158
881.493	22078
881.619	21880
881.746	21979
881.872	21937
881.999	21876
882.125	21800
882.252	21968
882.378	21899
882.505	22116
882.631	21880
882.757	21686
882.883	21713
883.01	21511
883.136	21511
883.262	21473
883.388	21500
883.514	21622
883.64	21732
883.766	21564
883.892	21382
884.018	21488
884.143	21568
884.269	21633
884.395	21344
884.52	21401
884.646	21275
884.772	21192
884.897	21222
885.023	21230
885.148	21374
885.274	21302
885.399	21447
885.524	21260
885.65	21317
885.775	21378
885.9	21230
886.025	21336
886.15	21317
886.275	21283
886.4	21154
886.525	21241
886.65	21138
886.775	21211
886.9	21351
887.025	21458
887.149	21211
887.274	21127
887.399	20982
887.523	20963
887.648	20944
887.773	21058
887.897	21112
888.021	21032
888.146	21001
888.27	21157
888.395	21119
888.519	21024
888.643	21096
888.767	21119
888.891	21017
889.015	20868
889.139	20937
889.263	20842
889.387	20963
889.511	21062
889.635	21020
889.759	20796
889.883	20902
890.006	20834
890.13	20891
890.254	20800
890.377	20750
890.501	20549
890.624	20629
890.748	20583
890.871	20526
890.995	20495
891.118	20313
891.241	20450
891.364	20336
891.488	20583
891.611	20347
891.734	20446
891.857	20568
891.98	20351
892.103	20412
892.226	20461
892.349	20366
892.471	20100
892.594	20381
892.717	20305
892.839	20377
892.962	20400
893.085	20374
893.207	20328
893.33	20206
893.452	20225
893.575	20404
893.697	20290
893.819	20427
893.941	20450
894.064	20465
894.186	20275
894.308	20195
894.43	20393
894.552	20438
894.674	20423
894.796	20267
894.918	20244
895.04	20332
895.161	20252
895.283	20450
895.405	20267
895.526	20317
895.648	20263
895.769	20256
895.891	20336
896.012	20370
896.134	20434
896.255	20294
896.376	20237
896.498	20343
896.619	20423
896.74	20278
896.861	20324
896.982	20541
897.103	20762
897.224	20632
897.345	20587
897.466	20488
897.587	20556
897.708	20659
897.828	20667
897.949	20473
898.07	20533
898.19	20431
898.311	20590
898.431	20465
898.552	20419
898.672	20480
898.792	20533
898.913	20579
899.033	20465
899.153	20225
899.273	20263
899.393	20263
899.513	20313
899.633	20290
899.753	20240
899.873	20134
899.993	20313
900.113	20149
900.232	20153
900.352	20256
900.472	20046
900.591	19978
900.711	19993
900.83	19906
900.95	20092
901.069	19993
901.189	19887
901.308	19662
901.427	19693
901.546	19689
901.665	19609
901.784	19696
901.904	19483
902.023	19476
902.141	19358
902.26	19179
902.379	19217
902.498	19137
902.617	19004
902.735	19137
902.854	19065
902.973	19133
903.091	18795
903.21	18886
903.328	18722
903.446	18711
903.565	18661
903.683	18639
903.801	18475
903.919	18532
904.038	18540
904.156	18292
904.274	18426
904.392	18292
904.51	18376
904.627	18235
904.745	18410
904.863	18357
904.981	18117
905.098	18003
905.216	18034
905.334	18045
905.451	18083
905.569	18011
905.686	18034
905.803	18220
905.921	17771
906.038	17965
906.155	17866
906.272	17828
906.389	17813
906.506	17585
906.623	17604
906.74	17482
906.857	17493
906.974	17509
907.091	17615
907.208	17589
907.324	17634
907.441	17482
907.557	17277
907.674	17303
907.79	17189
907.907	17303
908.023	17345
908.139	17364
908.256	17170
908.372	17174
908.488	17181
908.604	17094
908.72	16942
908.836	17079
908.952	17083
909.068	17098
909.184	17105
909.3	16927
909.415	17098
909.531	16953
909.647	16820
909.762	16729
909.878	16801
909.993	16717
910.108	16653
910.224	16668
910.339	16713
910.454	16558
910.57	16432
910.685	16500
910.8	16752
910.915	16771
911.03	16558
911.145	16329
911.259	16356
911.374	16337
911.489	16204
911.604	16177
911.718	16029
911.833	16120
911.947	16032
912.062	15816
912.176	15907
912.291	16101
912.405	16013
912.519	16173
912.633	16131
912.748	16090
912.862	16059
912.976	15846
913.09	15804
913.204	15945
913.318	15812
913.431	16040
913.545	15979
913.659	15899
913.772	15800
913.886	15625
914	15564
914.113	15663
914.226	15739
914.34	15720
914.453	15542
914.566	15675
914.68	15587
914.793	15492
914.906	15291
915.019	15283
915.132	15245
915.245	15142
915.358	15332
915.47	15218
915.583	15302
915.696	15291
915.809	15370
915.921	15420
916.034	15180
916.146	15241
916.259	15218
916.371	15165
916.483	15093
916.595	15180
916.708	15020
916.82	15070
916.932	14998
917.044	15043
917.156	15024
917.268	14849
917.38	15051
917.491	14925
917.603	15017
917.715	14975
917.826	14887
917.938	14842
918.049	14785
918.161	14902
918.272	14960
918.384	14880
918.495	14758
918.606	14735
918.717	14575
918.828	14674
918.939	14731
919.05	14511
919.161	14598
919.272	14454
919.383	14423
919.494	14686
919.604	14838
919.715	14712
919.826	14602
919.936	14606
920.047	14773
920.157	14663
920.267	14941
920.378	14663
920.488	14587
920.598	14785
920.708	14796
920.818	14925
920.928	14823
921.038	14944
921.148	14895
921.258	14564
921.368	14568
921.477	14301
921.587	14347
921.697	14210
921.806	14442
921.916	14256
922.025	14073
922.134	13963
922.244	13864
922.353	14058
922.462	13822
922.571	13875
922.68	13647
922.789	13582
922.898	13620
923.007	13609
923.116	13613
923.224	13651
923.333	13620
923.442	13453
923.55	13457
923.659	13476
923.767	13529
923.876	13403
923.984	13567
924.092	13350
924.201	13415
924.309	13415
924.417	13304
924.525	13228
924.633	13293
924.741	14024
924.849	13084
924.956	13327
925.064	13103
925.172	13023
925.279	12932
925.387	13129
925.494	13012
925.602	13160
925.709	13103
925.816	13008
925.924	12977
926.031	13061
926.138	13042
926.245	13107
926.352	12817
926.459	13099
926.566	13080
926.673	12867
926.779	12802
926.886	12787
926.993	12608
927.099	12703
927.206	12612
927.312	12601
927.419	12620
927.525	12574
927.631	12669
927.737	12642
927.843	12506
927.95	12410
928.056	12486
928.162	12418
928.267	12441
928.373	13012
928.479	12452
928.585	12277
928.69	12365
928.796	12407
928.901	12315
929.007	12247
929.112	12418
929.218	12319
929.323	12243
929.428	12171
929.533	12285
929.638	12114
929.743	12026
929.848	12106
929.953	12110
930.058	12019
930.163	11859
930.267	11824
930.372	12057
930.477	11840
930.581	11992
930.685	11828
930.79	11710
930.894	11805
930.998	11737
931.103	11836
931.207	11520
931.311	11436
931.415	11318
931.519	11117
931.623	11124
