Data from test_V78500241_2089.txt Node
Date: Fri Mar 25 15:24:24 CST 2022
User: usil
Spectrometer: V785-0024
Trigger mode: 0
Integration Time (sec): 4.000000E-1
Scans to average: 1
Nonlinearity correction enabled: false
Boxcar width: 0
Storing dark spectrum: false
XAxis mode: Wavelengths
Number of Pixels in Spectrum: 1024
>>>>>Begin Spectral Data<<<<<
801.071	28013
801.214	27774
801.356	27568
801.499	27500
801.641	27317
801.783	27420
801.926	27450
802.068	27408
802.211	27279
802.353	27108
802.496	27154
802.638	26891
802.78	27028
802.923	26849
803.065	26830
803.208	26800
803.35	27074
803.492	27119
803.635	27116
803.777	27112
803.919	27401
804.061	27542
804.204	27211
804.346	27100
804.488	27302
804.63	27214
804.773	27036
804.915	27188
805.057	27336
805.199	27116
805.341	27268
805.483	27496
805.626	27378
805.768	27199
805.91	27287
806.052	27355
806.194	27226
806.336	27549
806.478	27252
806.62	27329
806.762	27542
806.904	27504
807.046	27934
807.188	27857
807.33	27789
807.472	27934
807.614	27667
807.756	27762
807.898	27739
808.04	27488
808.182	27534
808.324	27545
808.465	27671
808.607	27892
808.749	27964
808.891	28013
809.033	28090
809.174	28029
809.316	27895
809.458	27892
809.6	27930
809.741	28120
809.883	28185
810.025	28253
810.166	28280
810.308	28303
810.45	28166
810.591	28086
810.733	28013
810.875	28055
811.016	27884
811.158	27865
811.299	27975
811.441	28135
811.582	28032
811.724	27956
811.865	27949
812.007	27945
812.148	27998
812.29	28021
812.431	28341
812.573	28493
812.714	28386
812.855	28493
812.997	28668
813.138	28778
813.279	28546
813.421	28363
813.562	28398
813.703	28466
813.845	28177
813.986	28013
814.127	27857
814.268	27622
814.41	27637
814.551	27637
814.692	27686
814.833	27660
814.974	27572
815.115	27606
815.256	27504
815.397	27591
815.539	27595
815.68	27603
815.821	27538
815.962	27519
816.103	27507
816.244	27363
816.385	27291
816.526	27275
816.666	27096
816.807	26785
816.948	26979
817.089	26971
817.23	27028
817.371	26994
817.512	27036
817.653	26986
817.793	26880
817.934	26933
818.075	26823
818.216	27017
818.356	26921
818.497	26838
818.638	26716
818.778	26750
818.919	26842
819.06	26811
819.2	26918
819.341	26956
819.481	26982
819.622	27005
819.762	27283
819.903	27127
820.043	27146
820.184	27020
820.324	27119
820.465	27302
820.605	26967
820.746	27089
820.886	26990
821.026	27085
821.167	26990
821.307	26994
821.447	26918
821.588	26819
821.728	26853
821.868	26533
822.008	26450
822.149	26503
822.289	26453
822.429	26233
822.569	25997
822.709	26149
822.849	25909
822.99	25944
823.13	25715
823.27	25928
823.41	25799
823.55	25677
823.69	25727
823.83	25677
823.97	25689
824.11	25662
824.25	25506
824.389	25525
824.529	25658
824.669	25559
824.809	25609
824.949	25643
825.089	25609
825.228	25708
825.368	25415
825.508	25358
825.648	25552
825.787	25529
825.927	25563
826.067	25426
826.206	25460
826.346	25525
826.485	25559
826.625	25464
826.765	25578
826.904	25369
827.044	25187
827.183	25312
827.323	25137
827.462	25259
827.601	25213
827.741	25069
827.88	25110
828.02	25145
828.159	25122
828.298	25122
828.437	25129
828.577	25190
828.716	25293
828.855	25088
828.994	24700
829.134	24886
829.273	24814
829.412	24821
829.551	24859
829.69	24817
829.829	24795
829.968	24981
830.107	24905
830.246	24856
830.385	24890
830.524	24726
830.663	24490
830.802	24490
830.941	24422
831.08	24486
831.219	24540
831.357	24555
831.496	24635
831.635	24475
831.774	24262
831.913	24407
832.051	24292
832.19	24296
832.329	24376
832.467	24140
832.606	24190
832.744	24125
832.883	24087
833.022	23946
833.16	24167
833.299	24034
833.437	24129
833.576	24285
833.714	24251
833.852	24136
833.991	24194
834.129	24296
834.267	24422
834.406	24262
834.544	24121
834.682	24159
834.821	24125
834.959	24422
835.097	23973
835.235	24095
835.373	24152
835.511	24152
835.65	23999
835.788	23999
835.926	23965
836.064	23847
836.202	23832
836.34	24102
836.478	24102
836.615	24060
836.753	24045
836.891	24140
837.029	24076
837.167	24007
837.305	23961
837.443	23908
837.58	23866
837.718	23927
837.856	23874
837.993	23847
838.131	23855
838.269	23676
838.406	23718
838.544	23634
838.681	23558
838.819	23398
838.956	23334
839.094	23398
839.231	23406
839.369	23531
839.506	23764
839.643	23611
839.781	23349
839.918	23261
840.055	23368
840.193	23315
840.33	23109
840.467	23258
840.604	23235
840.742	23387
840.879	23117
841.016	23162
841.153	23143
841.29	23284
841.427	23273
841.564	23398
841.701	23185
841.838	23048
841.975	23200
842.112	23086
842.249	23086
842.385	23003
842.522	23113
842.659	23003
842.796	23014
842.933	22858
843.069	22961
843.206	22862
843.343	23071
843.479	22930
843.616	22972
843.752	22812
843.889	22793
844.025	23079
844.162	22725
844.298	22877
844.435	22790
844.571	22736
844.708	22782
844.844	22900
844.98	22869
845.117	22908
845.253	22733
845.389	22516
845.525	22713
845.661	22622
845.798	22512
845.934	22485
846.07	22470
846.206	22443
846.342	22607
846.478	22497
846.614	22211
846.75	22196
846.886	22169
847.022	22299
847.158	22284
847.294	22154
847.429	22284
847.565	22280
847.701	22489
847.837	22063
847.972	21949
848.108	22185
848.244	22090
848.379	21975
848.515	21865
848.65	21732
848.786	21816
848.921	21819
849.057	21968
849.192	21926
849.328	21857
849.463	21755
849.598	21732
849.734	21732
849.869	21717
850.004	21618
850.14	21732
850.275	21641
850.41	21644
850.545	21469
850.68	21504
850.815	21618
850.95	21507
851.085	21724
851.22	21583
851.355	21641
851.49	21572
851.625	21561
851.76	21576
851.895	21447
852.03	21447
852.165	21561
852.299	21709
852.434	21622
852.569	21568
852.703	21515
852.838	21743
852.973	21690
853.107	21656
853.242	21504
853.376	21420
853.511	21287
853.645	21397
853.78	21515
853.914	21511
854.048	21332
854.183	21435
854.317	21435
854.451	21549
854.585	21408
854.72	21378
854.854	21367
854.988	21351
855.122	21310
855.256	21435
855.39	21367
855.524	21435
855.658	21374
855.792	21355
855.926	21462
856.06	21374
856.194	21458
856.327	21378
856.461	21329
856.595	21374
856.729	21378
856.862	21466
856.996	21363
857.13	21469
857.263	21538
857.397	21500
857.53	21447
857.664	21500
857.797	21386
857.931	21412
858.064	21382
858.197	21485
858.331	21252
858.464	21374
858.597	21203
858.731	21389
858.864	21378
858.997	21374
859.13	21370
859.263	21298
859.396	21545
859.529	21306
859.662	21287
859.795	21363
859.928	21359
860.061	21595
860.194	21580
860.327	21416
860.46	21374
860.592	21534
860.725	21523
860.858	21583
860.99	21458
861.123	21313
861.256	21443
861.388	21370
861.521	22139
861.653	21260
861.786	21085
861.918	21256
862.05	21176
862.183	21363
862.315	21279
862.447	21466
862.58	21306
862.712	21085
862.844	21142
862.976	21188
863.108	21131
863.24	21511
863.372	21081
863.504	21085
863.636	21093
863.768	21017
863.9	21066
864.032	21093
864.164	21009
864.296	21138
864.428	21154
864.559	21123
864.691	21112
864.823	21017
864.954	21005
865.086	21085
865.217	21013
865.349	20967
865.48	20963
865.612	20963
865.743	21176
865.875	21081
866.006	20944
866.137	21032
866.269	20902
866.4	21051
866.531	20967
866.662	20990
866.793	20982
866.924	20925
867.055	20979
867.186	20914
867.317	20921
867.448	20762
867.579	20838
867.71	20701
867.841	20792
867.972	20868
868.103	20982
868.233	21009
868.364	20941
868.495	20998
868.625	21123
868.756	21287
868.886	21058
869.017	21135
869.147	21245
869.278	21252
869.408	21199
869.539	21093
869.669	21154
869.799	21093
869.929	21252
870.06	21218
870.19	21454
870.32	21317
870.45	21549
870.58	21625
870.71	21671
870.84	21652
870.97	21519
871.1	21485
871.23	21717
871.36	21762
871.489	21690
871.619	21663
871.749	21694
871.879	21793
872.008	21983
872.138	21842
872.267	21778
872.397	21576
872.526	21595
872.656	21553
872.785	21553
872.915	21831
873.044	21869
873.173	21823
873.303	21781
873.432	21922
873.561	21865
873.69	21701
873.819	21861
873.948	21991
874.077	21713
874.206	21720
874.335	21823
874.464	21880
874.593	22082
874.722	22048
874.851	21941
874.979	21964
875.108	22128
875.237	21903
875.365	21895
875.494	22002
875.623	22032
875.751	21972
875.88	22025
876.008	22074
876.136	22177
876.265	22447
876.393	22580
876.521	22382
876.65	22573
876.778	22500
876.906	22379
877.034	22322
877.162	22409
877.29	22268
877.418	22276
877.546	22352
877.674	22356
877.802	22226
877.93	22287
878.058	22268
878.185	22242
878.313	22485
878.441	22314
878.568	22265
878.696	22310
878.824	22348
878.951	22485
879.079	22443
879.206	22546
879.333	22474
879.461	22390
879.588	22512
879.715	22630
879.842	22561
879.97	22367
880.097	22158
880.224	22131
880.351	22154
880.478	22246
880.605	22242
880.732	22238
880.859	22443
880.986	22192
881.112	22147
881.239	22101
881.366	22002
881.493	21907
881.619	21648
881.746	21720
881.872	21698
881.999	21869
882.125	21732
882.252	21800
882.378	21633
882.505	22010
882.631	21629
882.757	21583
882.883	21538
883.01	21450
883.136	21458
883.262	21454
883.388	21351
883.514	21496
883.64	21557
883.766	21313
883.892	21283
884.018	21386
884.143	21408
884.269	21466
884.395	21233
884.52	21100
884.646	21013
884.772	20979
884.897	21017
885.023	21104
885.148	21157
885.274	21199
885.399	21176
885.524	21123
885.65	21077
885.775	21085
885.9	21096
886.025	21169
886.15	21077
886.275	21085
886.4	20960
886.525	21066
886.65	21142
886.775	20982
886.9	21165
887.025	21275
887.149	21127
887.274	20998
887.399	20807
887.523	20902
887.648	20777
887.773	20811
887.897	20849
888.021	20979
888.146	20937
888.27	21020
888.395	20872
888.519	21005
888.643	20857
888.767	21024
888.891	20815
889.015	20674
889.139	20701
889.263	20632
889.387	20765
889.511	20826
889.635	20792
889.759	20773
889.883	20507
890.006	20636
890.13	20899
890.254	20495
890.377	20602
890.501	20427
890.624	20374
890.748	20522
890.871	20393
890.995	20237
891.118	20267
891.241	20282
891.364	20286
891.488	20256
891.611	20210
891.734	20240
891.857	20396
891.98	20206
892.103	20252
892.226	20282
892.349	20199
892.471	20084
892.594	20145
892.717	20225
892.839	20111
892.962	20153
893.085	20278
893.207	20077
893.33	20126
893.452	20054
893.575	20240
893.697	20168
893.819	20317
893.941	20294
894.064	20214
894.186	20115
894.308	20081
894.43	20161
894.552	20381
894.674	20122
894.796	20024
894.918	20176
895.04	20092
895.161	20164
895.283	20267
895.405	20111
895.526	20157
895.648	20062
895.769	20100
895.891	20164
896.012	20278
896.134	20240
896.255	20233
896.376	20103
896.498	20115
896.619	20206
896.74	20237
896.861	20259
896.982	20355
897.103	20564
897.224	20412
897.345	20343
897.466	20446
897.587	20374
897.708	20431
897.828	20374
897.949	20221
898.07	20248
898.19	20347
898.311	20412
898.431	20244
898.552	20332
898.672	20457
898.792	20518
898.913	20336
899.033	20252
899.153	20134
899.273	20115
899.393	20130
899.513	20138
899.633	20111
899.753	20191
899.873	20088
899.993	20157
900.113	20134
900.232	20100
900.352	19997
900.472	19959
900.591	19818
900.711	19898
900.83	19830
900.95	19928
901.069	19978
901.189	19772
901.308	19491
901.427	19480
901.546	19419
901.665	19548
901.784	19510
901.904	19377
902.023	19335
902.141	19114
902.26	18916
902.379	19080
902.498	18951
902.617	18935
902.735	19000
902.854	18859
902.973	18871
903.091	18677
903.21	18639
903.328	18601
903.446	18608
903.565	18509
903.683	18559
903.801	18346
903.919	18483
904.038	18426
904.156	18258
904.274	18365
904.392	18235
904.51	18228
904.627	18201
904.745	18311
904.863	18205
904.981	17984
905.098	17882
905.216	17946
905.334	17973
905.451	17950
905.569	17988
905.686	17885
905.803	17988
905.921	17722
906.038	17748
906.155	17668
906.272	17471
906.389	17684
906.506	17554
906.623	17383
906.74	17474
906.857	17250
906.974	17452
907.091	17547
907.208	17547
907.324	17391
907.441	17318
907.557	17159
907.674	17075
907.79	17094
907.907	17102
908.023	17166
908.139	17090
908.256	17067
908.372	17037
908.488	17029
908.604	16805
908.72	16896
908.836	16892
908.952	16755
909.068	16812
909.184	16820
909.3	16892
909.415	16850
909.531	16721
909.647	16679
909.762	16634
909.878	16481
909.993	16641
910.108	16592
910.224	16421
910.339	16485
910.454	16413
910.57	16333
910.685	16333
910.8	16656
910.915	16402
911.03	16299
911.145	16128
911.259	16112
911.374	16177
911.489	16128
911.604	15960
911.718	15857
911.833	15911
911.947	15816
912.062	15785
912.176	15983
912.291	15835
912.405	15827
912.519	16063
912.633	16124
912.748	15941
912.862	15857
912.976	15759
913.09	15561
913.204	15667
913.318	15736
913.431	15838
913.545	15770
913.659	15778
913.772	15713
913.886	15481
914	15496
914.113	15660
914.226	15606
914.34	15572
914.453	15477
914.566	15515
914.68	15447
914.793	15348
914.906	15192
915.019	15146
915.132	15108
915.245	15119
915.358	15089
915.47	15032
915.583	15184
915.696	15116
915.809	15142
915.921	15275
916.034	15123
916.146	15085
916.259	15043
916.371	15119
916.483	15097
916.595	15043
916.708	14956
916.82	14994
916.932	14998
917.044	15005
917.156	14842
917.268	14720
917.38	14724
917.491	14781
917.603	14724
917.715	14910
917.826	14872
917.938	14807
918.049	14644
918.161	14682
918.272	14906
918.384	14842
918.495	14804
918.606	14571
918.717	14537
918.828	14606
918.939	14564
919.05	14469
919.161	14522
919.272	14370
919.383	14339
919.494	14632
919.604	14716
919.715	14560
919.826	14412
919.936	14503
920.047	14480
920.157	14556
920.267	14587
920.378	14476
920.488	14484
920.598	14670
920.708	14872
920.818	14629
920.928	14655
921.038	14800
921.148	14746
921.258	14461
921.368	14366
921.477	14218
921.587	14191
921.697	14199
921.806	14172
921.916	14024
922.025	13944
922.134	13864
922.244	13883
922.353	13902
922.462	13795
922.571	13708
922.68	13567
922.789	13449
922.898	13460
923.007	13464
923.116	13468
923.224	13571
923.333	13445
923.442	13362
923.55	13289
923.659	13335
923.767	13407
923.876	13289
923.984	13422
924.092	13301
924.201	13312
924.309	13331
924.417	13232
924.525	13209
924.633	13240
924.741	13887
924.849	12932
924.956	13255
925.064	12939
925.172	12954
925.279	12932
925.387	12958
925.494	12928
925.602	13122
925.709	12993
925.816	12802
925.924	12810
926.031	13008
926.138	12935
926.245	12966
926.352	12764
926.459	12939
926.566	12939
926.673	12798
926.779	12745
926.886	12665
926.993	12582
927.099	12475
927.206	12403
927.312	12429
927.419	12513
927.525	12426
927.631	12532
927.737	12384
927.843	12323
927.95	12194
928.056	12235
928.162	12369
928.267	12353
928.373	12970
928.479	12353
928.585	12140
928.69	12346
928.796	12327
928.901	12175
929.007	12049
929.112	12133
929.218	12110
929.323	12060
929.428	12049
929.533	12190
929.638	12049
929.743	11969
929.848	12053
929.953	11977
930.058	11885
930.163	11729
930.267	11794
930.372	11790
930.477	11741
930.581	11969
930.685	11775
930.79	11532
930.894	11688
930.998	11630
931.103	11695
931.207	11379
931.311	11299
931.415	11201
931.519	11018
931.623	10999
