Data from test_V78500241_3473.txt Node
Date: Fri Mar 25 15:34:02 CST 2022
User: usil
Spectrometer: V785-0024
Trigger mode: 0
Integration Time (sec): 4.000000E-1
Scans to average: 1
Nonlinearity correction enabled: false
Boxcar width: 0
Storing dark spectrum: false
XAxis mode: Wavelengths
Number of Pixels in Spectrum: 1024
>>>>>Begin Spectral Data<<<<<
801.071	27336
801.214	27291
801.356	27047
801.499	26861
801.641	26944
801.783	26891
801.926	26857
802.068	26864
802.211	26838
802.353	26629
802.496	26514
802.638	26590
802.78	26514
802.923	26514
803.065	26415
803.208	26412
803.35	26552
803.492	26488
803.635	26663
803.777	26640
803.919	26762
804.061	26815
804.204	26705
804.346	26571
804.488	26526
804.63	26716
804.773	26545
804.915	26644
805.057	26564
805.199	26655
805.341	26712
805.483	26743
805.626	26830
805.768	26762
805.91	26750
806.052	26842
806.194	26644
806.336	26842
806.478	26746
806.62	26735
806.762	26826
806.904	27017
807.046	27268
807.188	27176
807.33	27203
807.472	27195
807.614	27176
807.756	27176
807.898	27077
808.04	27024
808.182	26994
808.324	27005
808.465	27051
808.607	27108
808.749	27348
808.891	27523
809.033	27561
809.174	27412
809.316	27272
809.458	27298
809.6	27272
809.741	27534
809.883	27500
810.025	27724
810.166	27507
810.308	27591
810.45	27591
810.591	27443
810.733	27378
810.875	27405
811.016	27131
811.158	27268
811.299	27412
811.441	27526
811.582	27568
811.724	27397
811.865	27264
812.007	27249
812.148	27241
812.29	27393
812.431	27515
812.573	27656
812.714	27804
812.855	27884
812.997	27785
813.138	28013
813.279	27850
813.421	27720
813.562	27755
813.703	27618
813.845	27443
813.986	27287
814.127	27047
814.268	26979
814.41	27036
814.551	26819
814.692	27157
814.833	26861
814.974	26823
815.115	27074
815.256	26777
815.397	26921
815.539	26861
815.68	26571
815.821	26720
815.962	26830
816.103	26659
816.244	26560
816.385	26549
816.526	26446
816.666	26389
816.807	26252
816.948	26362
817.089	26351
817.23	26286
817.371	26298
817.512	26122
817.653	26278
817.793	26081
817.934	26206
818.075	26176
818.216	26248
818.356	26225
818.497	26126
818.638	26020
818.778	25894
818.919	25989
819.06	26084
819.2	26122
819.341	26088
819.481	26244
819.622	26377
819.762	26522
819.903	26404
820.043	26324
820.184	26309
820.324	26328
820.465	26320
820.605	26263
820.746	26122
820.886	26199
821.026	26221
821.167	26286
821.307	26320
821.447	26191
821.588	26145
821.728	26065
821.868	25917
822.008	25799
822.149	25715
822.289	25616
822.429	25514
822.569	25434
822.709	25392
822.849	25129
822.99	25270
823.13	25076
823.27	25107
823.41	25000
823.55	24901
823.69	25004
823.83	25023
823.97	25004
824.11	24745
824.25	24833
824.389	24814
824.529	24867
824.669	24932
824.809	24985
824.949	24973
825.089	24871
825.228	24920
825.368	24738
825.508	24646
825.648	24627
825.787	24772
825.927	24814
826.067	24650
826.206	24730
826.346	24776
826.485	24719
826.625	24726
826.765	24837
826.904	24760
827.044	24551
827.183	24479
827.323	24369
827.462	24433
827.601	24532
827.741	24376
827.88	24353
828.02	24262
828.159	24433
828.298	24467
828.437	24414
828.577	24266
828.716	24429
828.855	24433
828.994	24030
829.134	24117
829.273	24300
829.412	24106
829.551	24034
829.69	24140
829.829	24087
829.968	24102
830.107	24163
830.246	24163
830.385	24018
830.524	24125
830.663	24098
830.802	23832
830.941	23756
831.08	23783
831.219	23786
831.357	23733
831.496	24159
831.635	23718
831.774	23581
831.913	23630
832.051	23493
832.19	23455
832.329	23581
832.467	23531
832.606	23531
832.744	23326
832.883	23318
833.022	23421
833.16	23398
833.299	23402
833.437	23311
833.576	23471
833.714	23425
833.852	23505
833.991	23512
834.129	23505
834.267	23531
834.406	23429
834.544	23493
834.682	23463
834.821	23417
834.959	23585
835.097	23440
835.235	23486
835.373	23505
835.511	23551
835.65	23391
835.788	23372
835.926	23330
836.064	23174
836.202	23193
836.34	23402
836.478	23421
836.615	23299
836.753	23414
836.891	23410
837.029	23315
837.167	23235
837.305	23273
837.443	23326
837.58	23090
837.718	23212
837.856	23147
837.993	23189
838.131	23181
838.269	23086
838.406	23235
838.544	22942
838.681	22953
838.819	22786
838.956	22713
839.094	22641
839.231	22664
839.369	22797
839.506	23079
839.643	22854
839.781	22744
839.918	22557
840.055	22527
840.193	22702
840.33	22599
840.467	22653
840.604	22683
840.742	22919
840.879	22398
841.016	22504
841.153	22542
841.29	22755
841.427	22584
841.564	22626
841.701	22554
841.838	22588
841.975	22478
842.112	22573
842.249	22417
842.385	22409
842.522	22641
842.659	22360
842.796	22478
842.933	22508
843.069	22382
843.206	22344
843.343	22538
843.479	22402
843.616	22253
843.752	22261
843.889	22101
844.025	22276
844.162	22086
844.298	22246
844.435	22139
844.571	22048
844.708	22238
844.844	22363
844.98	22238
845.117	22325
845.253	22112
845.389	21949
845.525	22017
845.661	21994
845.798	21762
845.934	21979
846.07	21808
846.206	21953
846.342	21994
846.478	21880
846.614	21641
846.75	21599
846.886	21686
847.022	21759
847.158	21728
847.294	21652
847.429	21713
847.565	21629
847.701	21907
847.837	21389
847.972	21283
848.108	21473
848.244	21488
848.379	21279
848.515	21287
848.65	21146
848.786	21321
848.921	21138
849.057	21401
849.192	21302
849.328	21237
849.463	21123
849.598	21207
849.734	21058
849.869	20990
850.004	20910
850.14	20960
850.275	21047
850.41	20933
850.545	20963
850.68	20918
850.815	21062
850.95	20994
851.085	21180
851.22	21161
851.355	20975
851.49	21001
851.625	20899
851.76	20902
851.895	20724
852.03	20971
852.165	20929
852.299	20975
852.434	21085
852.569	20982
852.703	21017
852.838	21058
852.973	21116
853.107	21127
853.242	20937
853.376	20838
853.511	20731
853.645	20746
853.78	20986
853.914	20735
854.048	20880
854.183	20712
854.317	20815
854.451	21039
854.585	20864
854.72	20910
854.854	20815
854.988	20754
855.122	20815
855.256	20682
855.39	20838
855.524	20792
855.658	20899
855.792	20735
855.926	20727
856.06	20819
856.194	20845
856.327	20792
856.461	20720
856.595	20648
856.729	20701
856.862	20910
856.996	20861
857.13	20777
857.263	20899
857.397	20876
857.53	20750
857.664	20830
857.797	20838
857.931	21055
858.064	20826
858.197	20971
858.331	20811
858.464	20701
858.597	20648
858.731	20819
858.864	20754
858.997	20769
859.13	20842
859.263	20765
859.396	20720
859.529	20663
859.662	20739
859.795	20883
859.928	20777
860.061	21070
860.194	20963
860.327	20899
860.46	20838
860.592	20952
860.725	20979
860.858	20887
860.99	20800
861.123	20705
861.256	20731
861.388	20815
861.521	21526
861.653	20731
861.786	20492
861.918	20705
862.05	20640
862.183	20670
862.315	20804
862.447	20765
862.58	20765
862.712	20503
862.844	20511
862.976	20594
863.108	20571
863.24	20933
863.372	20469
863.504	20537
863.636	20370
863.768	20636
863.9	20457
864.032	20427
864.164	20476
864.296	20549
864.428	20598
864.559	20541
864.691	20648
864.823	20587
864.954	20545
865.086	20396
865.217	20556
865.349	20358
865.48	20438
865.612	20469
865.743	20484
865.875	20366
866.006	20438
866.137	20522
866.269	20389
866.4	20366
866.531	20320
866.662	20457
866.793	20400
866.924	20434
867.055	20355
867.186	20419
867.317	20351
867.448	20134
867.579	20248
867.71	20317
867.841	20237
867.972	20385
868.103	20366
868.233	20431
868.364	20313
868.495	20431
868.625	20697
868.756	20621
868.886	20518
869.017	20549
869.147	20720
869.278	20712
869.408	20632
869.539	20716
869.669	20735
869.799	20590
869.929	20708
870.06	20804
870.19	20891
870.32	20902
870.45	21009
870.58	20994
870.71	21104
870.84	21131
870.97	21066
871.1	21055
871.23	21180
871.36	21298
871.489	20990
871.619	21157
871.749	21195
871.879	21245
872.008	21287
872.138	21226
872.267	21287
872.397	21112
872.526	20929
872.656	21013
872.785	21024
872.915	21237
873.044	21241
873.173	21283
873.303	21157
873.432	21241
873.561	21416
873.69	21272
873.819	21291
873.948	21268
874.077	21233
874.206	21252
874.335	21233
874.464	21462
874.593	21545
874.722	21454
874.851	21504
874.979	21572
875.108	21538
875.237	21523
875.365	21424
875.494	21397
875.623	21507
875.751	21625
875.88	21507
876.008	21637
876.136	21648
876.265	21930
876.393	21823
876.521	21960
876.65	22082
876.778	21964
876.906	21899
877.034	21812
877.162	21892
877.29	21793
877.418	21778
877.546	21747
877.674	21778
877.802	21797
877.93	21861
878.058	21827
878.185	21762
878.313	21728
878.441	21816
878.568	21583
878.696	21785
878.824	21911
878.951	22032
879.079	21800
879.206	22181
879.333	21934
879.461	21964
879.588	21956
879.715	21972
879.842	22078
879.97	21819
880.097	21637
880.224	21595
880.351	21736
880.478	21618
880.605	21675
880.732	21682
880.859	21774
880.986	21770
881.112	21698
881.239	21504
881.366	21340
881.493	21397
881.619	21306
881.746	21169
881.872	21294
881.999	21298
882.125	21173
882.252	21192
882.378	21245
882.505	21214
882.631	21032
882.757	20994
882.883	20887
883.01	20895
883.136	20811
883.262	20777
883.388	20682
883.514	21017
883.64	20967
883.766	20853
883.892	20720
884.018	20785
884.143	20910
884.269	20971
884.395	20552
884.52	20484
884.646	20731
884.772	20617
884.897	20522
885.023	20549
885.148	20693
885.274	20720
885.399	20735
885.524	20533
885.65	20488
885.775	20499
885.9	20438
886.025	20769
886.15	20648
886.275	20400
886.4	20545
886.525	20492
886.65	20434
886.775	20541
886.9	20590
887.025	20834
887.149	20518
887.274	20370
887.399	20469
887.523	20328
887.648	20446
887.773	20313
887.897	20347
888.021	20465
888.146	20351
888.27	20385
888.395	20434
888.519	20339
888.643	20408
888.767	20499
888.891	20218
889.015	20191
889.139	20332
889.263	20096
889.387	20218
889.511	20332
889.635	20237
889.759	20145
889.883	20046
890.006	20233
890.13	20229
890.254	20073
890.377	20100
890.501	20001
890.624	19902
890.748	20001
890.871	19830
890.995	19658
891.118	19757
891.241	19795
891.364	19696
891.488	19864
891.611	19734
891.734	19666
891.857	19753
891.98	19818
892.103	19769
892.226	19666
892.349	19742
892.471	19616
892.594	19658
892.717	19670
892.839	19601
892.962	19700
893.085	19738
893.207	19597
893.33	19586
893.452	19635
893.575	19738
893.697	19674
893.819	19818
893.941	19795
894.064	19833
894.186	19620
894.308	19567
894.43	19811
894.552	19780
894.674	19776
894.796	19624
894.918	19662
895.04	19556
895.161	19712
895.283	19727
895.405	19674
895.526	19540
895.648	19658
895.769	19765
895.891	19655
896.012	19670
896.134	19696
896.255	19700
896.376	19586
896.498	19635
896.619	19719
896.74	19757
896.861	19715
896.982	19974
897.103	19978
897.224	19963
897.345	19822
897.466	19791
897.587	19856
897.708	19982
897.828	19951
897.949	19826
898.07	19731
898.19	19803
898.311	19955
898.431	19807
898.552	19868
898.672	19947
898.792	19887
898.913	19860
899.033	19696
899.153	19708
899.273	19613
899.393	19575
899.513	19571
899.633	19552
899.753	19712
899.873	19540
899.993	19624
900.113	19647
900.232	19613
900.352	19552
900.472	19388
900.591	19422
900.711	19339
900.83	19331
900.95	19441
901.069	19521
901.189	19365
901.308	19008
901.427	18913
901.546	18920
901.665	19160
901.784	19038
901.904	18916
902.023	18795
902.141	18631
902.26	18559
902.379	18635
902.498	18456
902.617	18563
902.735	18563
902.854	18479
902.973	18502
903.091	18216
903.21	18201
903.328	18232
903.446	18022
903.565	18011
903.683	18087
903.801	17973
903.919	17931
904.038	17935
904.156	17798
904.274	17828
904.392	17722
904.51	17649
904.627	17832
904.745	17851
904.863	17874
904.981	17539
905.098	17398
905.216	17505
905.334	17391
905.451	17406
905.569	17455
905.686	17398
905.803	17383
905.921	17299
906.038	17448
906.155	17250
906.272	17193
906.389	17178
906.506	16946
906.623	16934
906.74	16976
906.857	16824
906.974	16919
907.091	17006
907.208	17033
907.324	17083
907.441	16862
907.557	16786
907.674	16771
907.79	16698
907.907	16755
908.023	16691
908.139	16679
908.256	16668
908.372	16653
908.488	16569
908.604	16455
908.72	16500
908.836	16508
908.952	16386
909.068	16451
909.184	16554
909.3	16390
909.415	16500
909.531	16417
909.647	16196
909.762	16211
909.878	16211
909.993	16211
910.108	16116
910.224	16071
910.339	16105
910.454	16055
910.57	15998
910.685	15899
910.8	16147
910.915	16082
911.03	15956
911.145	15819
911.259	15785
911.374	15861
911.489	15698
911.604	15629
911.718	15473
911.833	15519
911.947	15401
912.062	15363
912.176	15610
912.291	15450
912.405	15538
912.519	15686
912.633	15694
912.748	15519
912.862	15431
912.976	15291
913.09	15287
913.204	15336
913.318	15313
913.431	15447
913.545	15397
913.659	15325
913.772	15233
913.886	15169
914	15150
914.113	15252
914.226	15230
914.34	15173
914.453	15062
914.566	15188
914.68	14963
914.793	14902
914.906	14811
915.019	14735
915.132	14861
915.245	14773
915.358	14750
915.47	14800
915.583	14712
915.696	14678
915.809	14773
915.921	14944
916.034	14629
916.146	14621
916.259	14712
916.371	14724
916.483	14621
916.595	14629
916.708	14583
916.82	14670
916.932	14518
917.044	14492
917.156	14617
917.268	14454
917.38	14431
917.491	14454
917.603	14438
917.715	14499
917.826	14480
917.938	14320
918.049	14210
918.161	14286
918.272	14454
918.384	14492
918.495	14362
918.606	14225
918.717	13978
918.828	14202
918.939	14248
919.05	14107
919.161	14134
919.272	13982
919.383	14073
919.494	14123
919.604	14374
919.715	14126
919.826	14081
919.936	14138
920.047	14168
920.157	14161
920.267	14259
920.378	14161
920.488	14069
920.598	14351
920.708	14454
920.818	14225
920.928	14172
921.038	14533
921.148	14355
921.258	14142
921.368	14058
921.477	13860
921.587	13902
921.697	13708
921.806	13906
921.916	13731
922.025	13662
922.134	13552
922.244	13609
922.353	13552
922.462	13518
922.571	13396
922.68	13202
922.789	13175
922.898	13206
923.007	13126
923.116	13274
923.224	13194
923.333	13175
923.442	13042
923.55	13015
923.659	12935
923.767	13031
923.876	13008
923.984	13065
924.092	12996
924.201	12989
924.309	12989
924.417	12954
924.525	12886
924.633	12913
924.741	13647
924.849	12669
924.956	12817
925.064	12665
925.172	12563
925.279	12589
925.387	12616
925.494	12597
925.602	12715
925.709	12688
925.816	12528
925.924	12589
926.031	12616
926.138	12544
926.245	12547
926.352	12483
926.459	12650
926.566	12574
926.673	12502
926.779	12418
926.886	12323
926.993	12194
927.099	12243
927.206	12060
927.312	12155
927.419	12277
927.525	12121
927.631	12220
927.737	12129
927.843	12125
927.95	11965
928.056	12011
928.162	12030
928.267	12079
928.373	12536
928.479	12072
928.585	11893
928.69	12007
928.796	11996
928.901	11912
929.007	11767
929.112	11942
929.218	11836
929.323	11859
929.428	11821
929.533	11927
929.638	11668
929.743	11714
929.848	11824
929.953	11657
930.058	11592
930.163	11410
930.267	11509
930.372	11619
930.477	11402
930.581	11668
930.685	11539
930.79	11341
930.894	11318
930.998	11322
931.103	11421
931.207	11136
931.311	11010
931.415	11010
931.519	10721
931.623	10771
