Data from test_V78500241_3218.txt Node
Date: Fri Mar 25 15:32:16 CST 2022
User: usil
Spectrometer: V785-0024
Trigger mode: 0
Integration Time (sec): 4.000000E-1
Scans to average: 1
Nonlinearity correction enabled: false
Boxcar width: 0
Storing dark spectrum: false
XAxis mode: Wavelengths
Number of Pixels in Spectrum: 1024
>>>>>Begin Spectral Data<<<<<
801.071	27154
801.214	27104
801.356	26918
801.499	26872
801.641	26842
801.783	26796
801.926	26800
802.068	26815
802.211	26708
802.353	26571
802.496	26594
802.638	26419
802.78	26362
802.923	26309
803.065	26161
803.208	26358
803.35	26282
803.492	26507
803.635	26545
803.777	26400
803.919	26438
804.061	26891
804.204	26545
804.346	26495
804.488	26415
804.63	26511
804.773	26358
804.915	26408
805.057	26545
805.199	26461
805.341	26545
805.483	26644
805.626	26560
805.768	26503
805.91	26636
806.052	26678
806.194	26659
806.336	26918
806.478	26590
806.62	26545
806.762	26693
806.904	26823
807.046	27192
807.188	27070
807.33	26982
807.472	27104
807.614	26982
807.756	27043
807.898	26918
808.04	26838
808.182	26857
808.324	26842
808.465	27112
808.607	27161
808.749	27260
808.891	27291
809.033	27427
809.174	27424
809.316	27199
809.458	27222
809.6	27230
809.741	27348
809.883	27313
810.025	27469
810.166	27599
810.308	27435
810.45	27466
810.591	27462
810.733	27275
810.875	27192
811.016	27043
811.158	27051
811.299	27252
811.441	27291
811.582	27370
811.724	27112
811.865	27138
812.007	27287
812.148	27214
812.29	27184
812.431	27405
812.573	27427
812.714	27583
812.855	27759
812.997	27660
813.138	27899
813.279	27835
813.421	27759
813.562	27538
813.703	27549
813.845	27344
813.986	27154
814.127	26887
814.268	26937
814.41	26883
814.551	26773
814.692	26933
814.833	26769
814.974	26849
815.115	26872
815.256	26686
815.397	26689
815.539	26708
815.68	26689
815.821	26625
815.962	26663
816.103	26587
816.244	26514
816.385	26286
816.526	26377
816.666	26122
816.807	26024
816.948	26199
817.089	26206
817.23	26145
817.371	26210
817.512	26202
817.653	26172
817.793	26005
817.934	26081
818.075	26142
818.216	26187
818.356	26005
818.497	25944
818.638	25856
818.778	25894
818.919	25818
819.06	25791
819.2	25982
819.341	26024
819.481	26206
819.622	26199
819.762	26507
819.903	26400
820.043	26301
820.184	26252
820.324	26145
820.465	26301
820.605	26206
820.746	26305
820.886	26046
821.026	26237
821.167	26210
821.307	26244
821.447	26126
821.588	25982
821.728	25875
821.868	25772
822.008	25685
822.149	25571
822.289	25567
822.429	25343
822.569	25301
822.709	25232
822.849	25099
822.99	25103
823.13	25156
823.27	24992
823.41	24992
823.55	24757
823.69	24859
823.83	24977
823.97	24764
824.11	24772
824.25	24566
824.389	24764
824.529	24840
824.669	24711
824.809	24844
824.949	24814
825.089	24829
825.228	24711
825.368	24418
825.508	24582
825.648	24669
825.787	24692
825.927	24650
826.067	24486
826.206	24608
826.346	24654
826.485	24601
826.625	24661
826.765	24715
826.904	24665
827.044	24235
827.183	24391
827.323	24300
827.462	24327
827.601	24369
827.741	24232
827.88	24372
828.02	24159
828.159	24174
828.298	24273
828.437	24220
828.577	24197
828.716	24346
828.855	24216
828.994	23965
829.134	24007
829.273	24102
829.412	24003
829.551	23969
829.69	23893
829.829	24034
829.968	24106
830.107	23927
830.246	24121
830.385	23980
830.524	23973
830.663	23817
830.802	23809
830.941	23657
831.08	23551
831.219	23779
831.357	23729
831.496	23794
831.635	23657
831.774	23581
831.913	23581
832.051	23368
832.19	23254
832.329	23391
832.467	23277
832.606	23235
832.744	23254
832.883	23246
833.022	23216
833.16	23448
833.299	23398
833.437	23185
833.576	23501
833.714	23326
833.852	23376
833.991	23353
834.129	23330
834.267	23471
834.406	23349
834.544	23547
834.682	23387
834.821	23318
834.959	23566
835.097	23391
835.235	23383
835.373	23311
835.511	23474
835.65	23258
835.788	23231
835.926	23143
836.064	22987
836.202	23102
836.34	23235
836.478	23303
836.615	23227
836.753	23280
836.891	23288
837.029	23307
837.167	23143
837.305	23048
837.443	23193
837.58	23121
837.718	23166
837.856	23113
837.993	23037
838.131	23132
838.269	22961
838.406	23105
838.544	22881
838.681	22660
838.819	22596
838.956	22565
839.094	22599
839.231	22706
839.369	22653
839.506	22923
839.643	22927
839.781	22580
839.918	22409
840.055	22527
840.193	22493
840.33	22474
840.467	22478
840.604	22573
840.742	22892
840.879	22413
841.016	22512
841.153	22508
841.29	22550
841.427	22470
841.564	22462
841.701	22462
841.838	22360
841.975	22451
842.112	22451
842.249	22390
842.385	22306
842.522	22542
842.659	22265
842.796	22215
842.933	22314
843.069	22223
843.206	22207
843.343	22314
843.479	22268
843.616	22226
843.752	22128
843.889	22006
844.025	22242
844.162	21964
844.298	22097
844.435	21888
844.571	21945
844.708	22112
844.844	22234
844.98	22219
845.117	22128
845.253	22025
845.389	21934
845.525	21778
845.661	21766
845.798	21709
845.934	21907
846.07	21717
846.206	21743
846.342	21869
846.478	21751
846.614	21583
846.75	21466
846.886	21492
847.022	21572
847.158	21477
847.294	21545
847.429	21564
847.565	21576
847.701	21755
847.837	21283
847.972	21226
848.108	21359
848.244	21279
848.379	21192
848.515	21036
848.65	21058
848.786	21043
848.921	21062
849.057	21150
849.192	21180
849.328	21100
849.463	21077
849.598	21013
849.734	20967
849.869	20944
850.004	20853
850.14	21039
850.275	20773
850.41	20823
850.545	20880
850.68	20792
850.815	20986
850.95	20899
851.085	21047
851.22	21001
851.355	20914
851.49	20838
851.625	20887
851.76	20864
851.895	20796
852.03	20708
852.165	20792
852.299	20861
852.434	21062
852.569	20979
852.703	20906
852.838	20853
852.973	20944
853.107	20948
853.242	20849
853.376	20644
853.511	20629
853.645	20648
853.78	20788
853.914	20716
854.048	20613
854.183	20674
854.317	20724
854.451	20842
854.585	20773
854.72	20735
854.854	20743
854.988	20571
855.122	20689
855.256	20549
855.39	20788
855.524	20781
855.658	20724
855.792	20762
855.926	20758
856.06	20724
856.194	20663
856.327	20674
856.461	20545
856.595	20682
856.729	20651
856.862	20750
856.996	20705
857.13	20773
857.263	20807
857.397	20682
857.53	20655
857.664	20785
857.797	20796
857.931	20731
858.064	20861
858.197	20735
858.331	20667
858.464	20537
858.597	20655
858.731	20701
858.864	20686
858.997	20556
859.13	20804
859.263	20830
859.396	20716
859.529	20724
859.662	20606
859.795	20587
859.928	20682
860.061	20842
860.194	20872
860.327	20667
860.46	20777
860.592	20804
860.725	20811
860.858	20762
860.99	20689
861.123	20621
861.256	20499
861.388	20701
861.521	21131
861.653	20457
861.786	20415
861.918	20495
862.05	20533
862.183	20590
862.315	20682
862.447	20792
862.58	20560
862.712	20385
862.844	20332
862.976	20522
863.108	20492
863.24	20750
863.372	20267
863.504	20389
863.636	20355
863.768	20434
863.9	20511
864.032	20328
864.164	20294
864.296	20389
864.428	20575
864.559	20549
864.691	20434
864.823	20552
864.954	20381
865.086	20355
865.217	20259
865.349	20214
865.48	20290
865.612	20282
865.743	20396
865.875	20396
866.006	20229
866.137	20271
866.269	20267
866.4	20320
866.531	20244
866.662	20214
866.793	20259
866.924	20256
867.055	20343
867.186	20271
867.317	20282
867.448	20221
867.579	20225
867.71	20153
867.841	20214
867.972	20278
868.103	20149
868.233	20290
868.364	20259
868.495	20317
868.625	20446
868.756	20617
868.886	20415
869.017	20438
869.147	20541
869.278	20640
869.408	20568
869.539	20465
869.669	20564
869.799	20579
869.929	20648
870.06	20621
870.19	20872
870.32	20804
870.45	20758
870.58	20815
870.71	20956
870.84	20971
870.97	20861
871.1	20937
871.23	21104
871.36	21058
871.489	20994
871.619	20967
871.749	21070
871.879	21138
872.008	21207
872.138	21127
872.267	21169
872.397	21017
872.526	21013
872.656	20925
872.785	20979
872.915	21081
873.044	21207
873.173	21157
873.303	21096
873.432	21131
873.561	21367
873.69	21131
873.819	21135
873.948	21207
874.077	21230
874.206	21150
874.335	20975
874.464	21256
874.593	21416
874.722	21260
874.851	21393
874.979	21412
875.108	21302
875.237	21291
875.365	21283
875.494	21260
875.623	21348
875.751	21310
875.88	21496
876.008	21435
876.136	21587
876.265	21682
876.393	21869
876.521	21941
876.65	21743
876.778	21850
876.906	21671
877.034	21682
877.162	21781
877.29	21747
877.418	21701
877.546	21785
877.674	21694
877.802	21911
877.93	21690
878.058	21580
878.185	21591
878.313	21622
878.441	21720
878.568	21591
878.696	21823
878.824	21671
878.951	21774
879.079	21960
879.206	21968
879.333	21903
879.461	21701
879.588	21816
879.715	21876
879.842	22032
879.97	21785
880.097	21507
880.224	21542
880.351	21610
880.478	21549
880.605	21473
880.732	21492
880.859	21808
880.986	21526
881.112	21587
881.239	21386
881.366	21363
881.493	21150
881.619	21116
881.746	21131
881.872	21077
881.999	21058
882.125	21005
882.252	21119
882.378	21150
882.505	21192
882.631	20937
882.757	20906
882.883	20937
883.01	20929
883.136	20762
883.262	20663
883.388	20632
883.514	20750
883.64	20986
883.766	20697
883.892	20659
884.018	20492
884.143	20781
884.269	20872
884.395	20457
884.52	20488
884.646	20545
884.772	20526
884.897	20343
885.023	20549
885.148	20636
885.274	20648
885.399	20571
885.524	20473
885.65	20476
885.775	20423
885.9	20492
886.025	20621
886.15	20476
886.275	20457
886.4	20408
886.525	20495
886.65	20412
886.775	20355
886.9	20564
887.025	20686
887.149	20427
887.274	20377
887.399	20278
887.523	20221
887.648	20206
887.773	20157
887.897	20446
888.021	20320
888.146	20271
888.27	20278
888.395	20385
888.519	20294
888.643	20301
888.767	20381
888.891	20164
889.015	20008
889.139	20161
889.263	20020
889.387	20138
889.511	20324
889.635	20077
889.759	20012
889.883	20024
890.006	20130
890.13	20259
890.254	20020
890.377	20035
890.501	19780
890.624	19818
890.748	19898
890.871	19765
890.995	19727
891.118	19616
891.241	19578
891.364	19715
891.488	19742
891.611	19502
891.734	19738
891.857	19753
891.98	19635
892.103	19757
892.226	19628
892.349	19552
892.471	19392
892.594	19552
892.717	19605
892.839	19476
892.962	19571
893.085	19753
893.207	19552
893.33	19559
893.452	19548
893.575	19472
893.697	19544
893.819	19715
893.941	19772
894.064	19677
894.186	19529
894.308	19487
894.43	19670
894.552	19795
894.674	19563
894.796	19586
894.918	19457
895.04	19472
895.161	19616
895.283	19639
895.405	19510
895.526	19571
895.648	19506
895.769	19681
895.891	19651
896.012	19567
896.134	19613
896.255	19609
896.376	19529
896.498	19590
896.619	19734
896.74	19499
896.861	19647
896.982	19849
897.103	19940
897.224	19845
897.345	19753
897.466	19750
897.587	19826
897.708	19788
897.828	19780
897.949	19601
898.07	19674
898.19	19727
898.311	19947
898.431	19712
898.552	19936
898.672	19841
898.792	19898
898.913	19890
899.033	19700
899.153	19628
899.273	19441
899.393	19571
899.513	19563
899.633	19582
899.753	19441
899.873	19518
899.993	19540
900.113	19476
900.232	19567
900.352	19544
900.472	19316
900.591	19324
900.711	19282
900.83	19304
900.95	19263
901.069	19377
901.189	19255
901.308	18947
901.427	18829
901.546	18890
901.665	18863
901.784	19004
901.904	18719
902.023	18776
902.141	18498
902.26	18486
902.379	18616
902.498	18407
902.617	18407
902.735	18498
902.854	18350
902.973	18342
903.091	18194
903.21	18057
903.328	18079
903.446	18007
903.565	17931
903.683	18087
903.801	17821
903.919	17847
904.038	17889
904.156	17707
904.274	17748
904.392	17790
904.51	17649
904.627	17672
904.745	17775
904.863	17824
904.981	17512
905.098	17395
905.216	17376
905.334	17452
905.451	17349
905.569	17349
905.686	17417
905.803	17242
905.921	17200
906.038	17136
906.155	17136
906.272	17052
906.389	17117
906.506	16786
906.623	16961
906.74	16957
906.857	16729
906.974	16790
907.091	16869
907.208	16949
907.324	16915
907.441	16873
907.557	16778
907.674	16580
907.79	16599
907.907	16622
908.023	16618
908.139	16630
908.256	16569
908.372	16649
908.488	16538
908.604	16367
908.72	16398
908.836	16409
908.952	16371
909.068	16398
909.184	16447
909.3	16314
909.415	16348
909.531	16261
909.647	16185
909.762	16055
909.878	16029
909.993	16036
910.108	15972
910.224	16002
910.339	15998
910.454	16067
910.57	15903
910.685	15770
910.8	16150
910.915	16021
911.03	15865
911.145	15663
911.259	15637
911.374	15709
911.489	15629
911.604	15507
911.718	15420
911.833	15405
911.947	15329
912.062	15310
912.176	15439
912.291	15412
912.405	15447
912.519	15614
912.633	15694
912.748	15485
912.862	15401
912.976	15298
913.09	15100
913.204	15119
913.318	15214
913.431	15374
913.545	15264
913.659	15260
913.772	15135
913.886	14979
914	15039
914.113	15192
914.226	15180
914.34	15138
914.453	14937
914.566	15097
914.68	14925
914.793	14933
914.906	14682
915.019	14667
915.132	14613
915.245	14701
915.358	14674
915.47	14587
915.583	14583
915.696	14560
915.809	14724
915.921	14765
916.034	14598
916.146	14610
916.259	14568
916.371	14575
916.483	14682
916.595	14564
916.708	14488
916.82	14552
916.932	14400
917.044	14461
917.156	14499
917.268	14305
917.38	14355
917.491	14275
917.603	14412
917.715	14419
917.826	14400
917.938	14259
918.049	14153
918.161	14237
918.272	14320
918.384	14351
918.495	14199
918.606	14103
918.717	13959
918.828	14126
918.939	14084
919.05	14046
919.161	14020
919.272	13909
919.383	13902
919.494	14134
919.604	14343
919.715	14142
919.826	14058
919.936	14073
920.047	14073
920.157	14046
920.267	14282
920.378	14092
920.488	14081
920.598	14176
920.708	14396
920.818	14225
920.928	14237
921.038	14358
921.148	14301
921.258	13978
921.368	13894
921.477	13799
921.587	13868
921.697	13761
921.806	13860
921.916	13605
922.025	13449
922.134	13449
922.244	13453
922.353	13483
922.462	13324
922.571	13266
922.68	13095
922.789	13122
922.898	13171
923.007	13118
923.116	13141
923.224	13088
923.333	13057
923.442	13038
923.55	12977
923.659	12943
923.767	13015
923.876	12894
923.984	12970
924.092	12909
924.201	12905
924.309	12928
924.417	12863
924.525	12681
924.633	12787
924.741	13784
924.849	12593
924.956	12700
925.064	12570
925.172	12513
925.279	12589
925.387	12559
925.494	12650
925.602	12707
925.709	12589
925.816	12448
925.924	12525
926.031	12654
926.138	12521
926.245	12441
926.352	12467
926.459	12525
926.566	12578
926.673	12475
926.779	12384
926.886	12384
926.993	12186
927.099	12243
927.206	12144
927.312	12038
927.419	12216
927.525	12076
927.631	12095
927.737	12106
927.843	11942
927.95	11897
928.056	12026
928.162	11999
928.267	12049
928.373	12585
928.479	12053
928.585	11802
928.69	11904
928.796	11920
928.901	11851
929.007	11707
929.112	11798
929.218	11783
929.323	11752
929.428	11695
929.533	11756
929.638	11649
929.743	11676
929.848	11733
929.953	11653
930.058	11604
930.163	11349
930.267	11417
930.372	11497
930.477	11303
930.581	11551
930.685	11429
930.79	11280
930.894	11372
930.998	11254
931.103	11414
931.207	11018
931.311	10999
931.415	10873
931.519	10675
931.623	10733
