Data from test_V78500241_876.txt Node
Date: Fri Mar 25 15:15:57 CST 2022
User: usil
Spectrometer: V785-0024
Trigger mode: 0
Integration Time (sec): 4.000000E-1
Scans to average: 1
Nonlinearity correction enabled: false
Boxcar width: 0
Storing dark spectrum: false
XAxis mode: Wavelengths
Number of Pixels in Spectrum: 1024
>>>>>Begin Spectral Data<<<<<
801.071	28173
801.214	28086
801.356	27774
801.499	27709
801.641	27599
801.783	27534
801.926	27660
802.068	27694
802.211	27519
802.353	27447
802.496	27359
802.638	27230
802.78	27386
802.923	27302
803.065	27382
803.208	27291
803.35	27378
803.492	27439
803.635	27435
803.777	27481
803.919	27511
804.061	27850
804.204	27553
804.346	27488
804.488	27340
804.63	27504
804.773	27355
804.915	27447
805.057	27682
805.199	27447
805.341	27599
805.483	27542
805.626	27694
805.768	27507
805.91	27500
806.052	27549
806.194	27603
806.336	27770
806.478	27736
806.62	27603
806.762	27812
806.904	27850
807.046	28238
807.188	28036
807.33	28120
807.472	28303
807.614	28051
807.756	28078
807.898	27903
808.04	27956
808.182	27926
808.324	27972
808.465	28097
808.607	28150
808.749	28333
808.891	28306
809.033	28352
809.174	28405
809.316	28261
809.458	28314
809.6	28322
809.741	28421
809.883	28352
810.025	28656
810.166	28451
810.308	28679
810.45	28535
810.591	28527
810.733	28249
810.875	28295
811.016	28131
811.158	28101
811.299	28337
811.441	28394
811.582	28405
811.724	28238
811.865	28363
812.007	28379
812.148	28272
812.29	28417
812.431	28470
812.573	28622
812.714	28683
812.855	28927
812.997	28927
813.138	29060
813.279	28961
813.421	28854
813.562	28888
813.703	28584
813.845	28550
813.986	28409
814.127	28128
814.268	28055
814.41	28082
814.551	28082
814.692	28143
814.833	27953
814.974	27979
815.115	28044
815.256	27998
815.397	27884
815.539	27846
815.68	27835
815.821	27861
815.962	27888
816.103	27789
816.244	27724
816.385	27606
816.526	27504
816.666	27507
816.807	27397
816.948	27473
817.089	27526
817.23	27393
817.371	27336
817.512	27321
817.653	27332
817.793	27241
817.934	27389
818.075	27424
818.216	27378
818.356	27344
818.497	27233
818.638	27013
818.778	27112
818.919	27074
819.06	27218
819.2	27256
819.341	27226
819.481	27336
819.622	27412
819.762	27682
819.903	27557
820.043	27443
820.184	27477
820.324	27386
820.465	27488
820.605	27408
820.746	27405
820.886	27256
821.026	27477
821.167	27370
821.307	27485
821.447	27279
821.588	27272
821.728	27203
821.868	26971
822.008	26853
822.149	26899
822.289	26788
822.429	26537
822.569	26632
822.709	26507
822.849	26469
822.99	26419
823.13	26240
823.27	26389
823.41	26244
823.55	26081
823.69	26183
823.83	26275
823.97	26180
824.11	26008
824.25	26016
824.389	25887
824.529	26024
824.669	26058
824.809	26065
824.949	26031
825.089	26088
825.228	26077
825.368	25772
825.508	25780
825.648	25936
825.787	25940
825.927	25837
826.067	25784
826.206	25860
826.346	25894
826.485	25925
826.625	25734
826.765	25913
826.904	25974
827.044	25571
827.183	25674
827.323	25571
827.462	25643
827.601	25639
827.741	25658
827.88	25620
828.02	25430
828.159	25594
828.298	25575
828.437	25597
828.577	25381
828.716	25616
828.855	25506
828.994	25213
829.134	25247
829.273	25350
829.412	25270
829.551	25244
829.69	25304
829.829	25263
829.968	25247
830.107	25297
830.246	25308
830.385	25335
830.524	25145
830.663	25122
830.802	24996
830.941	24856
831.08	24837
831.219	25008
831.357	25004
831.496	25270
831.635	24852
831.774	24897
831.913	24787
832.051	24642
832.19	24639
832.329	24764
832.467	24582
832.606	24593
832.744	24505
832.883	24597
833.022	24604
833.16	24452
833.299	24734
833.437	24650
833.576	24757
833.714	24681
833.852	24665
833.991	24681
834.129	24791
834.267	24844
834.406	24623
834.544	24738
834.682	24509
834.821	24772
834.959	24791
835.097	24601
835.235	24669
835.373	24616
835.511	24494
835.65	24509
835.788	24418
835.926	24365
836.064	24251
836.202	24273
836.34	24502
836.478	24483
836.615	24532
836.753	24517
836.891	24528
837.029	24566
837.167	24513
837.305	24372
837.443	24433
837.58	24243
837.718	24292
837.856	24308
837.993	24159
838.131	24197
838.269	24152
838.406	24254
838.544	24140
838.681	23996
838.819	23927
838.956	23687
839.094	23767
839.231	23843
839.369	23950
839.506	24068
839.643	23927
839.781	23710
839.918	23752
840.055	23760
840.193	23699
840.33	23668
840.467	23672
840.604	23695
840.742	23904
840.879	23592
841.016	23608
841.153	23562
841.29	23805
841.427	23691
841.564	23642
841.701	23509
841.838	23543
841.975	23471
842.112	23570
842.249	23402
842.385	23417
842.522	23585
842.659	23524
842.796	23402
842.933	23398
843.069	23410
843.206	23341
843.343	23444
843.479	23444
843.616	23341
843.752	23216
843.889	23318
844.025	23436
844.162	23181
844.298	23124
844.435	23261
844.571	23166
844.708	23330
844.844	23410
844.98	23379
845.117	23395
845.253	23166
845.389	23094
845.525	22980
845.661	23048
845.798	22923
845.934	23010
846.07	23022
846.206	23044
846.342	23102
846.478	22987
846.614	22774
846.75	22599
846.886	22645
847.022	22706
847.158	22710
847.294	22615
847.429	22839
847.565	22683
847.701	22892
847.837	22508
847.972	22348
848.108	22504
848.244	22504
848.379	22360
848.515	22234
848.65	22158
848.786	22215
848.921	22249
849.057	22375
849.192	22428
849.328	22314
849.463	22276
849.598	22341
849.734	22211
849.869	22082
850.004	21994
850.14	21953
850.275	22185
850.41	22070
850.545	22010
850.68	21918
850.815	22090
850.95	22166
851.085	22044
851.22	22059
851.355	22109
851.49	21926
851.625	22010
851.76	21987
851.895	21979
852.03	21975
852.165	22032
852.299	22147
852.434	21994
852.569	22025
852.703	22086
852.838	21964
852.973	22154
853.107	22188
853.242	22029
853.376	21831
853.511	21728
853.645	21819
853.78	21857
853.914	21907
854.048	21778
854.183	21804
854.317	21785
854.451	22013
854.585	21884
854.72	21751
854.854	21846
854.988	21717
855.122	21793
855.256	21766
855.39	21759
855.524	21953
855.658	21892
855.792	21937
855.926	21797
856.06	21926
856.194	21926
856.327	21736
856.461	21854
856.595	21663
856.729	21861
856.862	22017
856.996	21869
857.13	21922
857.263	21926
857.397	21934
857.53	21808
857.664	21808
857.797	21918
857.931	22036
858.064	21812
858.197	21945
858.331	21793
858.464	21755
858.597	21759
858.731	21774
858.864	21785
858.997	21823
859.13	21823
859.263	21789
859.396	21968
859.529	21808
859.662	21774
859.795	21819
859.928	21869
860.061	22021
860.194	21983
860.327	21907
860.46	21876
860.592	21994
860.725	22063
860.858	21899
860.99	21903
861.123	21705
861.256	21759
861.388	21823
861.521	22592
861.653	21724
861.786	21606
861.918	21599
862.05	21599
862.183	21675
862.315	21762
862.447	21987
862.58	21759
862.712	21568
862.844	21367
862.976	21656
863.108	21648
863.24	21880
863.372	21485
863.504	21485
863.636	21633
863.768	21656
863.9	21492
864.032	21511
864.164	21454
864.296	21549
864.428	21762
864.559	21648
864.691	21610
864.823	21511
864.954	21511
865.086	21519
865.217	21481
865.349	21386
865.48	21367
865.612	21466
865.743	21534
865.875	21473
866.006	21321
866.137	21355
866.269	21405
866.4	21351
866.531	21370
866.662	21233
866.793	21447
866.924	21332
867.055	21431
867.186	21443
867.317	21351
867.448	21275
867.579	21355
867.71	21302
867.841	21245
867.972	21294
868.103	21302
868.233	21256
868.364	21332
868.495	21367
868.625	21545
868.756	21690
868.886	21606
869.017	21599
869.147	21663
869.278	21660
869.408	21595
869.539	21572
869.669	21690
869.799	21599
869.929	21709
870.06	21717
870.19	21880
870.32	21835
870.45	21850
870.58	22040
870.71	22105
870.84	22166
870.97	22067
871.1	22090
871.23	22128
871.36	22185
871.489	22067
871.619	22238
871.749	22105
871.879	22188
872.008	22246
872.138	22200
872.267	22200
872.397	22101
872.526	21915
872.656	21869
872.785	21972
872.915	22177
873.044	22382
873.173	22181
873.303	22360
873.432	22192
873.561	22341
873.69	22306
873.819	22139
873.948	22306
874.077	22078
874.206	22272
874.335	22082
874.464	22306
874.593	22523
874.722	22363
874.851	22413
874.979	22382
875.108	22421
875.237	22402
875.365	22363
875.494	22421
875.623	22474
875.751	22390
875.88	22394
876.008	22592
876.136	22519
876.265	22706
876.393	22961
876.521	22908
876.65	22839
876.778	22831
876.906	22618
877.034	22820
877.162	22755
877.29	22771
877.418	22755
877.546	22778
877.674	22828
877.802	22782
877.93	22809
878.058	22687
878.185	22645
878.313	22786
878.441	22733
878.568	22500
878.696	22767
878.824	22721
878.951	22797
879.079	22862
879.206	23094
879.333	22938
879.461	22854
879.588	22873
879.715	22957
879.842	22984
879.97	22721
880.097	22603
880.224	22588
880.351	22611
880.478	22687
880.605	22702
880.732	22596
880.859	22816
880.986	22542
881.112	22607
881.239	22546
881.366	22253
881.493	22249
881.619	22215
881.746	22200
881.872	22093
881.999	22116
882.125	22162
882.252	22147
882.378	22112
882.505	22268
882.631	21937
882.757	21827
882.883	21964
883.01	21884
883.136	21823
883.262	21701
883.388	21759
883.514	21778
883.64	21895
883.766	21698
883.892	21568
884.018	21625
884.143	21713
884.269	21785
884.395	21694
884.52	21466
884.646	21515
884.772	21412
884.897	21310
885.023	21401
885.148	21526
885.274	21644
885.399	21572
885.524	21488
885.65	21580
885.775	21481
885.9	21435
886.025	21473
886.15	21412
886.275	21340
886.4	21397
886.525	21443
886.65	21405
886.775	21408
886.9	21549
887.025	21629
887.149	21405
887.274	21329
887.399	21192
887.523	21214
887.648	21058
887.773	21142
887.897	21367
888.021	21252
888.146	21142
888.27	21367
888.395	21374
888.519	21252
888.643	21321
888.767	21332
888.891	21070
889.015	20845
889.139	21112
889.263	20990
889.387	21142
889.511	21241
889.635	21062
889.759	21070
889.883	20986
890.006	21085
890.13	21055
890.254	20998
890.377	21051
890.501	20792
890.624	20731
890.748	20845
890.871	20762
890.995	20533
891.118	20465
891.241	20663
891.364	20602
891.488	20735
891.611	20549
891.734	20609
891.857	20689
891.98	20537
892.103	20609
892.226	20541
892.349	20457
892.471	20423
892.594	20484
892.717	20598
892.839	20579
892.962	20434
893.085	20514
893.207	20583
893.33	20450
893.452	20347
893.575	20579
893.697	20427
893.819	20674
893.941	20773
894.064	20507
894.186	20484
894.308	20305
894.43	20484
894.552	20708
894.674	20568
894.796	20313
894.918	20431
895.04	20438
895.161	20571
895.283	20484
895.405	20366
895.526	20450
895.648	20469
895.769	20507
895.891	20476
896.012	20564
896.134	20533
896.255	20465
896.376	20438
896.498	20511
896.619	20446
896.74	20480
896.861	20629
896.982	20857
897.103	20967
897.224	20792
897.345	20765
897.466	20526
897.587	20590
897.708	20720
897.828	20857
897.949	20545
898.07	20541
898.19	20613
898.311	20708
898.431	20731
898.552	20754
898.672	20792
898.792	20864
898.913	20727
899.033	20511
899.153	20454
899.273	20381
899.393	20450
899.513	20457
899.633	20434
899.753	20396
899.873	20374
899.993	20499
900.113	20282
900.232	20374
900.352	20362
900.472	20214
900.591	20130
900.711	20309
900.83	20103
900.95	20355
901.069	20256
901.189	20149
901.308	19917
901.427	19677
901.546	19852
901.665	19666
901.784	19830
901.904	19537
902.023	19586
902.141	19377
902.26	19316
902.379	19400
902.498	19285
902.617	19202
902.735	19335
902.854	19217
902.973	19274
903.091	19057
903.21	18916
903.328	18928
903.446	18738
903.565	18741
903.683	18829
903.801	18570
903.919	18715
904.038	18734
904.156	18528
904.274	18589
904.392	18429
904.51	18429
904.627	18566
904.745	18551
904.863	18585
904.981	18319
905.098	18163
905.216	18159
905.334	18277
905.451	18262
905.569	18194
905.686	18201
905.803	18216
905.921	17973
906.038	18076
906.155	17988
906.272	17832
906.389	17878
906.506	17661
906.623	17832
906.74	17726
906.857	17649
906.974	17577
907.091	17691
907.208	17703
907.324	17733
907.441	17710
907.557	17398
907.674	17410
907.79	17376
907.907	17391
908.023	17551
908.139	17410
908.256	17455
908.372	17212
908.488	17372
908.604	17185
908.72	17094
908.836	17140
908.952	17235
909.068	17239
909.184	17204
909.3	17124
909.415	17193
909.531	17143
909.647	16942
909.762	16911
909.878	16927
909.993	16877
910.108	16828
910.224	16782
910.339	16748
910.454	16752
910.57	16774
910.685	16626
910.8	16892
910.915	16740
911.03	16675
911.145	16519
911.259	16394
911.374	16390
911.489	16352
911.604	16375
911.718	16185
911.833	16177
911.947	16139
912.062	15979
912.176	16131
912.291	16139
912.405	16158
912.519	16402
912.633	16382
912.748	16196
912.862	16147
912.976	15956
913.09	15888
913.204	15956
913.318	16105
913.431	16040
913.545	16040
913.659	16124
913.772	16013
913.886	15812
914	15797
914.113	15945
914.226	15808
914.34	15774
914.453	15603
914.566	15846
914.68	15770
914.793	15576
914.906	15606
915.019	15469
915.132	15382
915.245	15344
915.358	15424
915.47	15401
915.583	15412
915.696	15477
915.809	15606
915.921	15500
916.034	15382
916.146	15287
916.259	15230
916.371	15351
916.483	15302
916.595	15230
916.708	15222
916.82	15283
916.932	15230
917.044	15135
917.156	15127
917.268	15043
917.38	15001
917.491	14994
917.603	15039
917.715	15146
917.826	15165
917.938	14960
918.049	14819
918.161	15001
918.272	15009
918.384	15070
918.495	14921
918.606	14864
918.717	14762
918.828	14815
918.939	14796
919.05	14674
919.161	14739
919.272	14594
919.383	14651
919.494	14876
919.604	14952
919.715	14716
919.826	14644
919.936	14849
920.047	14849
920.157	14678
920.267	15066
920.378	14804
920.488	14640
920.598	14876
920.708	15032
920.818	14880
920.928	14830
921.038	15009
921.148	14986
921.258	14670
921.368	14545
921.477	14552
921.587	14412
921.697	14423
921.806	14514
921.916	14256
922.025	14130
922.134	14195
922.244	14058
922.353	14172
922.462	13982
922.571	13997
922.68	13700
922.789	13693
922.898	13906
923.007	13601
923.116	13807
923.224	13738
923.333	13731
923.442	13636
923.55	13563
923.659	13643
923.767	13548
923.876	13567
923.984	13666
924.092	13430
924.201	13525
924.309	13537
924.417	13525
924.525	13426
924.633	13445
924.741	14180
924.849	13270
924.956	13301
925.064	13164
925.172	13080
925.279	13187
925.387	13190
925.494	13213
925.602	13266
925.709	13198
925.816	12966
925.924	13122
926.031	13225
926.138	13110
926.245	13110
926.352	12981
926.459	13160
926.566	13141
926.673	13042
926.779	12977
926.886	12901
926.993	12825
927.099	12825
927.206	12696
927.312	12582
927.419	12844
927.525	12768
927.631	12650
927.737	12654
927.843	12597
927.95	12422
928.056	12502
928.162	12521
928.267	12532
928.373	13050
928.479	12703
928.585	12372
928.69	12433
928.796	12559
928.901	12452
929.007	12292
929.112	12456
929.218	12388
929.323	12296
929.428	12266
929.533	12334
929.638	12213
929.743	12228
929.848	12224
929.953	12213
930.058	12053
930.163	11931
930.267	11931
930.372	12083
930.477	11901
930.581	12136
930.685	11988
930.79	11832
930.894	11817
930.998	11764
931.103	11958
931.207	11623
931.311	11509
931.415	11368
931.519	11067
931.623	11235
