Data from test_V78500241_139.txt Node
Date: Fri Mar 25 15:10:49 CST 2022
User: usil
Spectrometer: V785-0024
Trigger mode: 0
Integration Time (sec): 4.000000E-1
Scans to average: 1
Nonlinearity correction enabled: false
Boxcar width: 0
Storing dark spectrum: false
XAxis mode: Wavelengths
Number of Pixels in Spectrum: 1024
>>>>>Begin Spectral Data<<<<<
801.071	28204
801.214	28139
801.356	27930
801.499	27888
801.641	27899
801.783	27842
801.926	27888
802.068	27705
802.211	27743
802.353	27599
802.496	27485
802.638	27325
802.78	27424
802.923	27283
803.065	27207
803.208	27283
803.35	27507
803.492	27545
803.635	27374
803.777	27488
803.919	27466
804.061	27831
804.204	27591
804.346	27340
804.488	27431
804.63	27382
804.773	27329
804.915	27401
805.057	27618
805.199	27523
805.341	27534
805.483	27622
805.626	27534
805.768	27454
805.91	27553
806.052	27583
806.194	27454
806.336	27717
806.478	27587
806.62	27431
806.762	27568
806.904	27785
807.046	27998
807.188	27914
807.33	27823
807.472	28063
807.614	27629
807.756	27854
807.898	27827
808.04	27686
808.182	27663
808.324	27800
808.465	27728
808.607	27838
808.749	27956
808.891	28101
809.033	28226
809.174	28204
809.316	27945
809.458	27979
809.6	28059
809.741	28120
809.883	28078
810.025	28344
810.166	28299
810.308	28405
810.45	28169
810.591	28120
810.733	28109
810.875	27888
811.016	27850
811.158	27918
811.299	28021
811.441	28120
811.582	28082
811.724	28006
811.865	28002
812.007	27968
812.148	27983
812.29	28112
812.431	28013
812.573	28249
812.714	28329
812.855	28489
812.997	28508
813.138	28664
813.279	28645
813.421	28542
813.562	28375
813.703	28432
813.845	28234
813.986	27911
814.127	27774
814.268	27450
814.41	27656
814.551	27675
814.692	27861
814.833	27667
814.974	27572
815.115	27606
815.256	27374
815.397	27427
815.539	27450
815.68	27355
815.821	27233
815.962	27294
816.103	27275
816.244	27154
816.385	26994
816.526	27043
816.666	26914
816.807	26735
816.948	26811
817.089	26880
817.23	26758
817.371	26800
817.512	26872
817.653	26727
817.793	26659
817.934	26701
818.075	26838
818.216	26648
818.356	26617
818.497	26583
818.638	26438
818.778	26351
818.919	26545
819.06	26514
819.2	26560
819.341	26655
819.481	26678
819.622	26902
819.762	26979
819.903	26918
820.043	26929
820.184	26731
820.324	26758
820.465	26982
820.605	26625
820.746	26792
820.886	26579
821.026	26636
821.167	26663
821.307	26781
821.447	26606
821.588	26514
821.728	26389
821.868	26282
822.008	26100
822.149	26107
822.289	26119
822.429	25864
822.569	25978
822.709	25818
822.849	25529
822.99	25677
823.13	25495
823.27	25563
823.41	25400
823.55	25304
823.69	25422
823.83	25415
823.97	25464
824.11	25145
824.25	25107
824.389	25274
824.529	25297
824.669	25168
824.809	25293
824.949	25278
825.089	25228
825.228	25198
825.368	25065
825.508	24992
825.648	25080
825.787	25015
825.927	25061
826.067	24943
826.206	24973
826.346	24951
826.485	25061
826.625	25012
826.765	24970
826.904	24981
827.044	24722
827.183	24589
827.323	24749
827.462	24764
827.601	24730
827.741	24639
827.88	24696
828.02	24494
828.159	24589
828.298	24738
828.437	24654
828.577	24505
828.716	24741
828.855	24585
828.994	24464
829.134	24266
829.273	24414
829.412	24395
829.551	24327
829.69	24388
829.829	24338
829.968	24464
830.107	24433
830.246	24441
830.385	24266
830.524	24110
830.663	24224
830.802	23935
830.941	23805
831.08	23874
831.219	23942
831.357	23992
831.496	24144
831.635	23863
831.774	23908
831.913	23634
832.051	23703
832.19	23684
832.329	23729
832.467	23786
832.606	23535
832.744	23455
832.883	23444
833.022	23433
833.16	23524
833.299	23535
833.437	23592
833.576	23566
833.714	23737
833.852	23608
833.991	23592
834.129	23684
834.267	23775
834.406	23646
834.544	23611
834.682	23516
834.821	23604
834.959	23551
835.097	23551
835.235	23577
835.373	23554
835.511	23524
835.65	23258
835.788	23448
835.926	23250
836.064	23170
836.202	23242
836.34	23311
836.478	23478
836.615	23368
836.753	23326
836.891	23372
837.029	23372
837.167	23326
837.305	23296
837.443	23170
837.58	23212
837.718	23204
837.856	23246
837.993	23075
838.131	23181
838.269	23121
838.406	23037
838.544	22835
838.681	22809
838.819	22790
838.956	22565
839.094	22535
839.231	22588
839.369	22854
839.506	23178
839.643	22755
839.781	22748
839.918	22565
840.055	22687
840.193	22561
840.33	22580
840.467	22656
840.604	22752
840.742	22782
840.879	22497
841.016	22504
841.153	22474
841.29	22729
841.427	22398
841.564	22603
841.701	22603
841.838	22493
841.975	22398
842.112	22432
842.249	22322
842.385	22306
842.522	22421
842.659	22242
842.796	22211
842.933	22356
843.069	22303
843.206	22166
843.343	22207
843.479	22253
843.616	22242
843.752	22048
843.889	22139
844.025	22204
844.162	21899
844.298	22093
844.435	22051
844.571	21918
844.708	22078
844.844	22128
844.98	22150
845.117	22147
845.253	21888
845.389	21857
845.525	21934
845.661	21789
845.798	21751
845.934	21781
846.07	21648
846.206	21755
846.342	21812
846.478	21736
846.614	21511
846.75	21405
846.886	21397
847.022	21629
847.158	21477
847.294	21526
847.429	21481
847.565	21534
847.701	21785
847.837	21154
847.972	21108
848.108	21207
848.244	21184
848.379	21123
848.515	20948
848.65	20906
848.786	21081
848.921	21001
849.057	21093
849.192	21150
849.328	21138
849.463	20979
849.598	21051
849.734	20990
849.869	20804
850.004	20838
850.14	20819
850.275	20765
850.41	20720
850.545	20785
850.68	20754
850.815	20804
850.95	20792
851.085	20990
851.22	20864
851.355	20743
851.49	20594
851.625	20708
851.76	20758
851.895	20735
852.03	20575
852.165	20667
852.299	20686
852.434	20815
852.569	20811
852.703	20777
852.838	20777
852.973	20872
853.107	20944
853.242	20636
853.376	20541
853.511	20473
853.645	20492
853.78	20678
853.914	20571
854.048	20617
854.183	20499
854.317	20571
854.451	20819
854.585	20533
854.72	20503
854.854	20571
854.988	20434
855.122	20579
855.256	20442
855.39	20461
855.524	20552
855.658	20503
855.792	20564
855.926	20613
856.06	20465
856.194	20545
856.327	20587
856.461	20621
856.595	20568
856.729	20526
856.862	20579
856.996	20587
857.13	20689
857.263	20785
857.397	20731
857.53	20625
857.664	20465
857.797	20579
857.931	20682
858.064	20632
858.197	20678
858.331	20480
858.464	20476
858.597	20370
858.731	20503
858.864	20552
858.997	20419
859.13	20366
859.263	20492
859.396	20526
859.529	20454
859.662	20473
859.795	20434
859.928	20549
860.061	20640
860.194	20674
860.327	20568
860.46	20457
860.592	20545
860.725	20701
860.858	20617
860.99	20415
861.123	20320
861.256	20526
861.388	20431
861.521	21211
861.653	20294
861.786	20298
861.918	20400
862.05	20427
862.183	20450
862.315	20568
862.447	20632
862.58	20488
862.712	20347
862.844	20149
862.976	20320
863.108	20332
863.24	20575
863.372	20172
863.504	20195
863.636	20233
863.768	20168
863.9	20115
864.032	20046
864.164	20058
864.296	20187
864.428	20317
864.559	20267
864.691	20183
864.823	20259
864.954	20210
865.086	20202
865.217	20126
865.349	19963
865.48	19993
865.612	20103
865.743	20126
865.875	20043
866.006	20020
866.137	20088
866.269	20077
866.4	20210
866.531	20107
866.662	19967
866.793	20046
866.924	20058
867.055	20035
867.186	19967
867.317	19940
867.448	19967
867.579	20039
867.71	19921
867.841	19902
867.972	20058
868.103	20012
868.233	20088
868.364	19951
868.495	20050
868.625	20298
868.756	20221
868.886	20176
869.017	20252
869.147	20259
869.278	20271
869.408	20233
869.539	20282
869.669	20385
869.799	20206
869.929	20301
870.06	20431
870.19	20598
870.32	20537
870.45	20575
870.58	20682
870.71	20788
870.84	20739
870.97	20750
871.1	20613
871.23	20800
871.36	20914
871.489	20720
871.619	20876
871.749	20830
871.879	20826
872.008	20990
872.138	20891
872.267	20857
872.397	20872
872.526	20651
872.656	20587
872.785	20674
872.915	20880
873.044	21009
873.173	20906
873.303	20883
873.432	21001
873.561	21047
873.69	20815
873.819	20902
873.948	21009
874.077	20883
874.206	20823
874.335	20887
874.464	21013
874.593	21104
874.722	21165
874.851	21138
874.979	21184
875.108	21161
875.237	21066
875.365	21020
875.494	21032
875.623	21188
875.751	21119
875.88	21123
876.008	21233
876.136	21431
876.265	21545
876.393	21610
876.521	21587
876.65	21652
876.778	21408
876.906	21549
877.034	21363
877.162	21351
877.29	21412
877.418	21447
877.546	21431
877.674	21469
877.802	21492
877.93	21568
878.058	21534
878.185	21359
878.313	21397
878.441	21469
878.568	21431
878.696	21488
878.824	21340
878.951	21511
879.079	21686
879.206	21800
879.333	21720
879.461	21641
879.588	21572
879.715	21599
879.842	21899
879.97	21633
880.097	21249
880.224	21370
880.351	21359
880.478	21237
880.605	21291
880.732	21310
880.859	21500
880.986	21313
881.112	21367
881.239	21195
881.366	21017
881.493	20925
881.619	20937
881.746	20880
881.872	20971
881.999	20796
882.125	20861
882.252	20956
882.378	20963
882.505	21024
882.631	20788
882.757	20613
882.883	20727
883.01	20617
883.136	20492
883.262	20495
883.388	20503
883.514	20625
883.64	20583
883.766	20609
883.892	20358
884.018	20469
884.143	20545
884.269	20678
884.395	20366
884.52	20252
884.646	20278
884.772	20233
884.897	20157
885.023	20180
885.148	20374
885.274	20256
885.399	20438
885.524	20294
885.65	20286
885.775	20157
885.9	20119
886.025	20415
886.15	20389
886.275	20237
886.4	20149
886.525	20278
886.65	20176
886.775	20256
886.9	20233
887.025	20438
887.149	20229
887.274	20214
887.399	19944
887.523	20062
887.648	19951
887.773	20043
887.897	20077
888.021	20005
888.146	19917
888.27	20157
888.395	20153
888.519	20020
888.643	20012
888.767	20130
888.891	20035
889.015	19807
889.139	19917
889.263	19799
889.387	19902
889.511	20100
889.635	19944
889.759	19776
889.883	19845
890.006	19791
890.13	19951
890.254	19655
890.377	19700
890.501	19643
890.624	19544
890.748	19670
890.871	19453
890.995	19392
891.118	19324
891.241	19362
891.364	19487
891.488	19518
891.611	19354
891.734	19506
891.857	19529
891.98	19419
892.103	19422
892.226	19445
892.349	19422
892.471	19209
892.594	19388
892.717	19301
892.839	19285
892.962	19415
893.085	19445
893.207	19278
893.33	19228
893.452	19129
893.575	19381
893.697	19301
893.819	19411
893.941	19540
894.064	19384
894.186	19289
894.308	19175
894.43	19358
894.552	19586
894.674	19403
894.796	19346
894.918	19327
895.04	19244
895.161	19415
895.283	19495
895.405	19297
895.526	19324
895.648	19244
895.769	19308
895.891	19384
896.012	19358
896.134	19320
896.255	19365
896.376	19266
896.498	19415
896.619	19407
896.74	19373
896.861	19411
896.982	19841
897.103	19860
897.224	19731
897.345	19575
897.466	19563
897.587	19559
897.708	19719
897.828	19681
897.949	19422
898.07	19373
898.19	19472
898.311	19655
898.431	19586
898.552	19556
898.672	19544
898.792	19616
898.913	19552
899.033	19453
899.153	19270
899.273	19190
899.393	19308
899.513	19350
899.633	19232
899.753	19244
899.873	19339
899.993	19388
900.113	19194
900.232	19217
900.352	19228
900.472	19179
900.591	18928
900.711	19164
900.83	19088
900.95	19190
901.069	19103
901.189	19050
901.308	18779
901.427	18722
901.546	18692
901.665	18700
901.784	18700
901.904	18604
902.023	18475
902.141	18190
902.26	18197
902.379	18232
902.498	18144
902.617	18114
902.735	18254
902.854	18178
902.973	18072
903.091	17874
903.21	17866
903.328	17832
903.446	17824
903.565	17672
903.683	17828
903.801	17509
903.919	17718
904.038	17638
904.156	17566
904.274	17585
904.392	17440
904.51	17455
904.627	17414
904.745	17421
904.863	17562
904.981	17235
905.098	17147
905.216	17143
905.334	17121
905.451	17162
905.569	17052
905.686	17124
905.803	17052
905.921	16961
906.038	16976
906.155	16900
906.272	16782
906.389	16869
906.506	16508
906.623	16733
906.74	16698
906.857	16538
906.974	16527
907.091	16774
907.208	16782
907.324	16710
907.441	16409
907.557	16356
907.674	16348
907.79	16257
907.907	16226
908.023	16417
908.139	16379
908.256	16265
908.372	16261
908.488	16173
908.604	16097
908.72	15998
908.836	16055
908.952	16055
909.068	16029
909.184	16207
909.3	16055
909.415	16074
909.531	16071
909.647	15918
909.762	15759
909.878	15713
909.993	15823
910.108	15789
910.224	15713
910.339	15732
910.454	15587
910.57	15587
910.685	15542
910.8	15732
910.915	15698
911.03	15614
911.145	15408
911.259	15329
911.374	15351
911.489	15275
911.604	15192
911.718	15085
911.833	15043
911.947	14960
912.062	14887
912.176	15127
912.291	15097
912.405	15066
912.519	15275
912.633	15192
912.748	15154
912.862	15024
912.976	14887
913.09	14861
913.204	14868
913.318	14811
913.431	15017
913.545	14906
913.659	15020
913.772	14891
913.886	14746
914	14613
914.113	14781
914.226	14849
914.34	14743
914.453	14640
914.566	14811
914.68	14617
914.793	14682
914.906	14495
915.019	14400
915.132	14332
915.245	14282
915.358	14419
915.47	14423
915.583	14423
915.696	14366
915.809	14537
915.921	14476
916.034	14389
916.146	14195
916.259	14294
916.371	14374
916.483	14377
916.595	14225
916.708	14229
916.82	14214
916.932	14164
917.044	14172
917.156	14084
917.268	14039
917.38	14077
917.491	14027
917.603	14077
917.715	14229
917.826	14157
917.938	14008
918.049	13883
918.161	13944
918.272	14111
918.384	14092
918.495	14065
918.606	13902
918.717	13784
918.828	13814
918.939	13769
919.05	13643
919.161	13780
919.272	13548
919.383	13662
919.494	13860
919.604	13909
919.715	13647
919.826	13677
919.936	13788
920.047	13856
920.157	13761
920.267	14035
920.378	13890
920.488	13750
920.598	13959
920.708	13997
920.818	13864
920.928	13913
921.038	14008
921.148	13978
921.258	13772
921.368	13601
921.477	13548
921.587	13491
921.697	13247
921.806	13457
921.916	13327
922.025	13266
922.134	13168
922.244	13000
922.353	13221
922.462	12985
922.571	12905
922.68	12814
922.789	12802
922.898	12878
923.007	12753
923.116	12817
923.224	12810
923.333	12711
923.442	12627
923.55	12684
923.659	12601
923.767	12692
923.876	12646
923.984	12715
924.092	12498
924.201	12582
924.309	12544
924.417	12563
924.525	12563
924.633	12525
924.741	13343
924.849	12300
924.956	12433
925.064	12327
925.172	12190
925.279	12243
925.387	12224
925.494	12224
925.602	12357
925.709	12327
925.816	12159
925.924	12254
926.031	12311
926.138	12175
926.245	12277
926.352	12064
926.459	12262
926.566	12311
926.673	12110
926.779	12007
926.886	11946
926.993	11946
927.099	11843
927.206	11718
927.312	11855
927.419	11855
927.525	11863
927.631	11882
927.737	11714
927.843	11668
927.95	11520
928.056	11668
928.162	11729
928.267	11653
928.373	12273
928.479	11722
928.585	11505
928.69	11623
928.796	11638
928.901	11539
929.007	11417
929.112	11501
929.218	11509
929.323	11368
929.428	11417
929.533	11554
929.638	11296
929.743	11356
929.848	11341
929.953	11341
930.058	11242
930.163	11041
930.267	11170
930.372	11223
930.477	10991
930.581	11280
930.685	11121
930.79	11018
930.894	10987
930.998	10930
931.103	11075
931.207	10702
931.311	10698
931.415	10554
931.519	10409
931.623	10405
