Data from test_V78500241_2204.txt Node
Date: Fri Mar 25 15:25:12 CST 2022
User: usil
Spectrometer: V785-0024
Trigger mode: 0
Integration Time (sec): 4.000000E-1
Scans to average: 1
Nonlinearity correction enabled: false
Boxcar width: 0
Storing dark spectrum: false
XAxis mode: Wavelengths
Number of Pixels in Spectrum: 1024
>>>>>Begin Spectral Data<<<<<
801.071	27911
801.214	27865
801.356	27507
801.499	27534
801.641	27298
801.783	27363
801.926	27382
802.068	27447
802.211	27268
802.353	27199
802.496	27001
802.638	27112
802.78	27051
802.923	26910
803.065	26921
803.208	26910
803.35	26967
803.492	27142
803.635	27226
803.777	27112
803.919	27230
804.061	27545
804.204	27287
804.346	27135
804.488	27173
804.63	27237
804.773	27222
804.915	27203
805.057	27416
805.199	27264
805.341	27252
805.483	27374
805.626	27408
805.768	27287
805.91	27473
806.052	27310
806.194	27302
806.336	27439
806.478	27340
806.62	27332
806.762	27466
806.904	27606
807.046	27778
807.188	27717
807.33	27888
807.472	27743
807.614	27736
807.756	27789
807.898	27568
808.04	27800
808.182	27538
808.324	27682
808.465	27576
808.607	27949
808.749	27937
808.891	28116
809.033	28010
809.174	27968
809.316	27934
809.458	27918
809.6	27865
809.741	28070
809.883	28078
810.025	28242
810.166	28192
810.308	28188
810.45	28238
810.591	28078
810.733	28010
810.875	27914
811.016	27808
811.158	27819
811.299	28025
811.441	28070
811.582	27991
811.724	27930
811.865	27968
812.007	28006
812.148	27975
812.29	28086
812.431	28116
812.573	28325
812.714	28238
812.855	28577
812.997	28535
813.138	28759
813.279	28694
813.421	28512
813.562	28440
813.703	28238
813.845	28131
813.986	27972
814.127	27686
814.268	27736
814.41	27644
814.551	27778
814.692	27728
814.833	27603
814.974	27515
815.115	27728
815.256	27500
815.397	27507
815.539	27454
815.68	27492
815.821	27447
815.962	27458
816.103	27424
816.244	27272
816.385	27260
816.526	27180
816.666	26868
816.807	26883
816.948	26944
817.089	27036
817.23	27001
817.371	26906
817.512	27104
817.653	26838
817.793	26754
817.934	26914
818.075	27032
818.216	26929
818.356	26940
818.497	26830
818.638	26857
818.778	26640
818.919	26632
819.06	26750
819.2	26777
819.341	26933
819.481	26967
819.622	27020
819.762	27252
819.903	27199
820.043	27089
820.184	27032
820.324	27055
820.465	27112
820.605	27028
820.746	27055
820.886	26956
821.026	26948
821.167	26971
821.307	26914
821.447	26998
821.588	26887
821.728	26625
821.868	26602
822.008	26278
822.149	26343
822.289	26332
822.429	26145
822.569	26073
822.709	26073
822.849	25860
822.99	25898
823.13	25925
823.27	25887
823.41	25822
823.55	25601
823.69	25765
823.83	25670
823.97	25525
824.11	25491
824.25	25499
824.389	25483
824.529	25708
824.669	25582
824.809	25464
824.949	25761
825.089	25525
825.228	25559
825.368	25388
825.508	25346
825.648	25362
825.787	25468
825.927	25301
826.067	25426
826.206	25324
826.346	25396
826.485	25445
826.625	25430
826.765	25472
826.904	25441
827.044	25069
827.183	25141
827.323	25038
827.462	25133
827.601	25053
827.741	25088
827.88	25099
828.02	25091
828.159	25148
828.298	25114
828.437	25228
828.577	25069
828.716	25034
828.855	24947
828.994	24863
829.134	24852
829.273	24798
829.412	24814
829.551	24585
829.69	24810
829.829	24901
829.968	24772
830.107	24833
830.246	24776
830.385	24677
830.524	24654
830.663	24707
830.802	24532
830.941	24437
831.08	24437
831.219	24498
831.357	24570
831.496	24673
831.635	24338
831.774	24277
831.913	24247
832.051	24296
832.19	24182
832.329	24235
832.467	24133
832.606	24076
832.744	24015
832.883	24209
833.022	24091
833.16	24091
833.299	23999
833.437	24129
833.576	24026
833.714	24117
833.852	24060
833.991	24098
834.129	24144
834.267	24182
834.406	24125
834.544	24182
834.682	24079
834.821	24201
834.959	24190
835.097	24060
835.235	24102
835.373	24076
835.511	24144
835.65	23923
835.788	23977
835.926	23901
836.064	23695
836.202	23707
836.34	23939
836.478	23996
836.615	23870
836.753	23893
836.891	23984
837.029	24053
837.167	23874
837.305	23958
837.443	23863
837.58	23897
837.718	23863
837.856	23866
837.993	23710
838.131	23813
838.269	23691
838.406	23718
838.544	23558
838.681	23581
838.819	23250
838.956	23299
839.094	23231
839.231	23368
839.369	23410
839.506	23630
839.643	23505
839.781	23284
839.918	23109
840.055	23208
840.193	23231
840.33	23117
840.467	23185
840.604	23292
840.742	23429
840.879	23056
841.016	23014
841.153	23033
841.29	23277
841.427	23284
841.564	23212
841.701	23033
841.838	23102
841.975	23037
842.112	23079
842.249	23048
842.385	22900
842.522	23033
842.659	22911
842.796	22752
842.933	22908
843.069	22885
843.206	22923
843.343	23018
843.479	22820
843.616	22938
843.752	22713
843.889	22721
844.025	22923
844.162	22599
844.298	22664
844.435	22908
844.571	22641
844.708	22744
844.844	22911
844.98	22885
845.117	22706
845.253	22649
845.389	22577
845.525	22569
845.661	22535
845.798	22318
845.934	22379
846.07	22356
846.206	22481
846.342	22485
846.478	22500
846.614	22348
846.75	22048
846.886	22276
847.022	22246
847.158	22192
847.294	22215
847.429	22120
847.565	22116
847.701	22390
847.837	21857
847.972	21785
848.108	21972
848.244	22074
848.379	21800
848.515	21682
848.65	21583
848.786	21728
848.921	21724
849.057	21880
849.192	21930
849.328	21766
849.463	21781
849.598	21675
849.734	21728
849.869	21511
850.004	21485
850.14	21523
850.275	21526
850.41	21382
850.545	21420
850.68	21454
850.815	21633
850.95	21488
851.085	21762
851.22	21587
851.355	21561
851.49	21420
851.625	21481
851.76	21435
851.895	21557
852.03	21481
852.165	21439
852.299	21454
852.434	21523
852.569	21523
852.703	21549
852.838	21587
852.973	21576
853.107	21485
853.242	21386
853.376	21344
853.511	21211
853.645	21195
853.78	21473
853.914	21321
854.048	21291
854.183	21298
854.317	21367
854.451	21443
854.585	21287
854.72	21161
854.854	21416
854.988	21302
855.122	21363
855.256	21294
855.39	21367
855.524	21408
855.658	21435
855.792	21435
855.926	21336
856.06	21408
856.194	21450
856.327	21268
856.461	21203
856.595	21211
856.729	21245
856.862	21492
856.996	21321
857.13	21424
857.263	21534
857.397	21283
857.53	21431
857.664	21443
857.797	21332
857.931	21408
858.064	21344
858.197	21325
858.331	21150
858.464	21249
858.597	21249
858.731	21302
858.864	21218
858.997	21233
859.13	21306
859.263	21431
859.396	21462
859.529	21332
859.662	21306
859.795	21306
859.928	21275
860.061	21561
860.194	21595
860.327	21344
860.46	21401
860.592	21336
860.725	21416
860.858	21473
860.99	21298
861.123	21275
861.256	21359
861.388	21317
861.521	22120
861.653	21135
861.786	21207
861.918	21112
862.05	21222
862.183	21173
862.315	21302
862.447	21294
862.58	21211
862.712	21009
862.844	21039
862.976	21138
863.108	21207
863.24	21378
863.372	20967
863.504	20910
863.636	21066
863.768	21165
863.9	21051
864.032	21047
864.164	21024
864.296	20971
864.428	21100
864.559	21195
864.691	21116
864.823	21066
864.954	20941
865.086	21036
865.217	20948
865.349	20765
865.48	20845
865.612	20937
865.743	21013
865.875	20941
866.006	20883
866.137	20849
866.269	21024
866.4	20880
866.531	20777
866.662	20872
866.793	20963
866.924	20921
867.055	20823
867.186	20853
867.317	20880
867.448	20724
867.579	20849
867.71	20781
867.841	20743
867.972	20842
868.103	20876
868.233	20933
868.364	20834
868.495	20910
868.625	21108
868.756	21112
868.886	21074
869.017	21074
869.147	21180
869.278	21199
869.408	21184
869.539	21131
869.669	21093
869.799	21051
869.929	21173
870.06	21211
870.19	21462
870.32	21306
870.45	21526
870.58	21523
870.71	21580
870.84	21500
870.97	21428
871.1	21496
871.23	21709
871.36	21720
871.489	21629
871.619	21698
871.749	21728
871.879	21698
872.008	21766
872.138	21679
872.267	21732
872.397	21610
872.526	21530
872.656	21561
872.785	21431
872.915	21774
873.044	21732
873.173	21732
873.303	21709
873.432	21804
873.561	21728
873.69	21603
873.819	21823
873.948	21770
874.077	21663
874.206	21701
874.335	21656
874.464	21724
874.593	21941
874.722	21850
874.851	21994
874.979	21953
875.108	22059
875.237	21979
875.365	21835
875.494	21800
875.623	21846
875.751	21926
875.88	21915
876.008	22010
876.136	22059
876.265	22363
876.393	22379
876.521	22363
876.65	22421
876.778	22333
876.906	22166
877.034	22360
877.162	22322
877.29	22291
877.418	22219
877.546	22356
877.674	22268
877.802	22352
877.93	22223
878.058	22219
878.185	22181
878.313	22257
878.441	22242
878.568	22169
878.696	22200
878.824	22265
878.951	22390
879.079	22413
879.206	22584
879.333	22405
879.461	22272
879.588	22432
879.715	22519
879.842	22603
879.97	22379
880.097	22082
880.224	22090
880.351	22230
880.478	22150
880.605	22101
880.732	22078
880.859	22462
880.986	22181
881.112	22017
881.239	21979
881.366	21804
881.493	21709
881.619	21732
881.746	21838
881.872	21739
881.999	21591
882.125	21564
882.252	21663
882.378	21622
882.505	21675
882.631	21568
882.757	21370
882.883	21500
883.01	21454
883.136	21332
883.262	21218
883.388	21233
883.514	21367
883.64	21386
883.766	21230
883.892	21146
884.018	21169
884.143	21264
884.269	21526
884.395	21085
884.52	20941
884.646	21039
884.772	20925
884.897	20918
885.023	21081
885.148	21074
885.274	21127
885.399	21211
885.524	20937
885.65	20971
885.775	21070
885.9	21009
886.025	21013
886.15	21085
886.275	20929
886.4	20861
886.525	20960
886.65	20918
886.775	20929
886.9	21138
887.025	21180
887.149	20956
887.274	20906
887.399	20727
887.523	20777
887.648	20701
887.773	20689
887.897	20891
888.021	20838
888.146	20842
888.27	20773
888.395	20857
888.519	20785
888.643	20819
888.767	20739
888.891	20746
889.015	20545
889.139	20686
889.263	20579
889.387	20746
889.511	20834
889.635	20746
889.759	20476
889.883	20651
890.006	20636
890.13	20682
890.254	20526
890.377	20454
890.501	20454
890.624	20214
890.748	20408
890.871	20237
890.995	20237
891.118	20046
891.241	20240
891.364	20191
891.488	20267
891.611	20130
891.734	20206
891.857	20210
891.98	20050
892.103	20248
892.226	20183
892.349	20100
892.471	19947
892.594	20065
892.717	20035
892.839	20058
892.962	20100
893.085	20126
893.207	20081
893.33	19925
893.452	19970
893.575	20134
893.697	20088
893.819	20244
893.941	20199
894.064	20119
894.186	20020
894.308	20012
894.43	20149
894.552	20259
894.674	20142
894.796	19989
894.918	20054
895.04	20035
895.161	20149
895.283	20084
895.405	19913
895.526	20008
895.648	19974
895.769	20145
895.891	20168
896.012	20122
896.134	20084
896.255	20122
896.376	19963
896.498	20172
896.619	20092
896.74	20084
896.861	20077
896.982	20320
897.103	20537
897.224	20286
897.345	20290
897.466	20218
897.587	20267
897.708	20442
897.828	20309
897.949	20145
898.07	20149
898.19	20229
898.311	20389
898.431	20119
898.552	20301
898.672	20377
898.792	20404
898.913	20248
899.033	20263
899.153	20111
899.273	19989
899.393	19959
899.513	20134
899.633	20069
899.753	20024
899.873	20039
899.993	20092
900.113	19967
900.232	20153
900.352	19978
900.472	19841
900.591	19772
900.711	19913
900.83	19830
900.95	19932
901.069	20012
901.189	19788
901.308	19487
901.427	19502
901.546	19369
901.665	19434
901.784	19331
901.904	19240
902.023	19137
902.141	19099
902.26	18894
902.379	19034
902.498	18939
902.617	18833
902.735	18852
902.854	18913
902.973	18764
903.091	18669
903.21	18635
903.328	18486
903.446	18471
903.565	18372
903.683	18448
903.801	18346
903.919	18346
904.038	18190
904.156	18194
904.274	18254
904.392	18114
904.51	18106
904.627	18091
904.745	18182
904.863	18178
904.981	17935
905.098	17783
905.216	17840
905.334	17889
905.451	17821
905.569	17764
905.686	17954
905.803	17813
905.921	17718
906.038	17630
906.155	17699
906.272	17543
906.389	17608
906.506	17455
906.623	17368
906.74	17337
906.857	17341
906.974	17334
907.091	17402
907.208	17433
907.324	17417
907.441	17265
907.557	17216
907.674	17102
907.79	17029
907.907	16987
908.023	17113
908.139	17060
908.256	17159
908.372	16858
908.488	17025
908.604	16934
908.72	16869
908.836	16805
908.952	16733
909.068	16892
909.184	16862
909.3	16869
909.415	16790
909.531	16763
909.647	16569
909.762	16550
909.878	16508
909.993	16462
910.108	16455
910.224	16421
910.339	16481
910.454	16348
910.57	16382
910.685	16234
910.8	16592
910.915	16470
911.03	16322
911.145	16147
911.259	16055
911.374	16036
911.489	16097
911.604	15991
911.718	15842
911.833	15762
911.947	15804
912.062	15614
912.176	15846
912.291	15876
912.405	15838
912.519	16021
912.633	16032
912.748	15854
912.862	15797
912.976	15599
913.09	15538
913.204	15564
913.318	15679
913.431	15694
913.545	15747
913.659	15747
913.772	15614
913.886	15507
914	15405
914.113	15622
914.226	15599
914.34	15553
914.453	15336
914.566	15424
914.68	15386
914.793	15351
914.906	15184
915.019	15032
915.132	15032
915.245	15028
915.358	15127
915.47	15047
915.583	15051
915.696	15116
915.809	15142
915.921	15218
916.034	15009
916.146	14952
916.259	14971
916.371	15047
916.483	14967
916.595	14800
916.708	14868
916.82	14864
916.932	14918
917.044	14887
917.156	14872
917.268	14697
917.38	14777
917.491	14735
917.603	14800
917.715	14792
917.826	14792
917.938	14606
918.049	14579
918.161	14568
918.272	14773
918.384	14712
918.495	14686
918.606	14530
918.717	14400
918.828	14412
918.939	14415
919.05	14317
919.161	14412
919.272	14278
919.383	14336
919.494	14419
919.604	14670
919.715	14434
919.826	14301
919.936	14419
920.047	14465
920.157	14488
920.267	14701
920.378	14427
920.488	14434
920.598	14537
920.708	14792
920.818	14617
920.928	14610
921.038	14727
921.148	14693
921.258	14389
921.368	14343
921.477	14233
921.587	14168
921.697	14115
921.806	14252
921.916	14016
922.025	13902
922.134	13860
922.244	13791
922.353	13849
922.462	13685
922.571	13670
922.68	13464
922.789	13392
922.898	13426
923.007	13350
923.116	13441
923.224	13529
923.333	13480
923.442	13373
923.55	13324
923.659	13415
923.767	13320
923.876	13198
923.984	13259
924.092	13232
924.201	13126
924.309	13179
924.417	13312
924.525	13198
924.633	13129
924.741	13955
924.849	12996
924.956	12993
925.064	12985
925.172	12779
925.279	12859
925.387	12905
925.494	12863
925.602	13019
925.709	12875
925.816	12787
925.924	12844
926.031	12916
926.138	12840
926.245	12856
926.352	12776
926.459	12821
926.566	12916
926.673	12669
926.779	12700
926.886	12715
926.993	12517
927.099	12407
927.206	12452
927.312	12460
927.419	12494
927.525	12498
927.631	12467
927.737	12311
927.843	12285
927.95	12228
928.056	12262
928.162	12289
928.267	12300
928.373	12939
928.479	12315
928.585	12114
928.69	12254
928.796	12296
928.901	12095
929.007	12026
929.112	12235
929.218	12026
929.323	12030
929.428	11954
929.533	12102
929.638	11988
929.743	11882
929.848	12026
929.953	12011
930.058	11832
930.163	11714
930.267	11726
930.372	11840
930.477	11779
930.581	11885
930.685	11775
930.79	11566
930.894	11589
930.998	11615
931.103	11615
931.207	11326
931.311	11258
931.415	11235
931.519	11014
931.623	10957
