Data from test_V78500241_326.txt Node
Date: Fri Mar 25 15:12:07 CST 2022
User: usil
Spectrometer: V785-0024
Trigger mode: 0
Integration Time (sec): 4.000000E-1
Scans to average: 1
Nonlinearity correction enabled: false
Boxcar width: 0
Storing dark spectrum: false
XAxis mode: Wavelengths
Number of Pixels in Spectrum: 1024
>>>>>Begin Spectral Data<<<<<
801.071	28055
801.214	27884
801.356	27831
801.499	27694
801.641	27530
801.783	27736
801.926	27705
802.068	27545
802.211	27351
802.353	27412
802.496	27294
802.638	27226
802.78	27275
802.923	27123
803.065	27176
803.208	27138
803.35	27127
803.492	27317
803.635	27405
803.777	27310
803.919	27424
804.061	27618
804.204	27363
804.346	27283
804.488	27321
804.63	27294
804.773	27275
804.915	27424
805.057	27496
805.199	27431
805.341	27447
805.483	27386
805.626	27359
805.768	27435
805.91	27389
806.052	27427
806.194	27427
806.336	27705
806.478	27363
806.62	27298
806.762	27488
806.904	27739
807.046	27800
807.188	27816
807.33	27831
807.472	28078
807.614	27835
807.756	27728
807.898	27686
808.04	27625
808.182	27663
808.324	27701
808.465	27591
808.607	27732
808.749	28105
808.891	28055
809.033	28036
809.174	28246
809.316	28211
809.458	27964
809.6	27941
809.741	28131
809.883	28253
810.025	28303
810.166	28325
810.308	28409
810.45	28265
810.591	28223
810.733	28093
810.875	28010
811.016	28006
811.158	27812
811.299	28265
811.441	28173
811.582	28188
811.724	28040
811.865	27895
812.007	28086
812.148	27869
812.29	27972
812.431	28242
812.573	28519
812.714	28382
812.855	28497
812.997	28592
813.138	28915
813.279	28660
813.421	28672
813.562	28580
813.703	28481
813.845	28219
813.986	27956
814.127	27732
814.268	27781
814.41	27694
814.551	27542
814.692	27599
814.833	27466
814.974	27538
815.115	27682
815.256	27576
815.397	27523
815.539	27545
815.68	27481
815.821	27397
815.962	27435
816.103	27515
816.244	27332
816.385	27363
816.526	27310
816.666	27089
816.807	26940
816.948	27077
817.089	27043
817.23	26948
817.371	26842
817.512	26887
817.653	26956
817.793	26895
817.934	26895
818.075	26914
818.216	26857
818.356	26876
818.497	26857
818.638	26537
818.778	26594
818.919	26731
819.06	26739
819.2	26712
819.341	26838
819.481	26906
819.622	26937
819.762	27157
819.903	27237
820.043	27135
820.184	27001
820.324	26906
820.465	26921
820.605	27203
820.746	26956
820.886	26834
821.026	26982
821.167	26937
821.307	26967
821.447	26868
821.588	26834
821.728	26701
821.868	26453
822.008	26237
822.149	26393
822.289	26347
822.429	26046
822.569	25986
822.709	25913
822.849	25925
822.99	25830
823.13	25837
823.27	25772
823.41	25784
823.55	25605
823.69	25696
823.83	25681
823.97	25590
824.11	25609
824.25	25327
824.389	25552
824.529	25502
824.669	25434
824.809	25685
824.949	25609
825.089	25468
825.228	25537
825.368	25263
825.508	25343
825.648	25316
825.787	25266
825.927	25400
826.067	25324
826.206	25297
826.346	25362
826.485	25362
826.625	25293
826.765	25426
826.904	25324
827.044	25133
827.183	24992
827.323	25046
827.462	25091
827.601	25103
827.741	24954
827.88	25168
828.02	24890
828.159	24981
828.298	24973
828.437	25065
828.577	25069
828.716	25110
828.855	24856
828.994	24764
829.134	24703
829.273	24688
829.412	24745
829.551	24627
829.69	24741
829.829	24798
829.968	24700
830.107	24852
830.246	24787
830.385	24559
830.524	24631
830.663	24517
830.802	24456
830.941	24228
831.08	24285
831.219	24475
831.357	24384
831.496	24467
831.635	24346
831.774	24365
831.913	24201
832.051	24079
832.19	24102
832.329	24129
832.467	23999
832.606	23973
832.744	23946
832.883	23973
833.022	23931
833.16	23999
833.299	24091
833.437	24034
833.576	24110
833.714	24057
833.852	24171
833.991	24144
834.129	24072
834.267	24098
834.406	23992
834.544	24091
834.682	24091
834.821	23988
834.959	24136
835.097	23939
835.235	24011
835.373	24106
835.511	23973
835.65	23931
835.788	23878
835.926	23794
836.064	23767
836.202	23714
836.34	23840
836.478	24190
836.615	23904
836.753	23897
836.891	23927
837.029	23916
837.167	23798
837.305	23786
837.443	23783
837.58	23737
837.718	23764
837.856	23695
837.993	23741
838.131	23771
838.269	23497
838.406	23543
838.544	23455
838.681	23512
838.819	23433
838.956	23124
839.094	23124
839.231	23254
839.369	23345
839.506	23535
839.643	23398
839.781	23155
839.918	23109
840.055	23109
840.193	23064
840.33	23136
840.467	23090
840.604	23181
840.742	23383
840.879	22995
841.016	23079
841.153	22965
841.29	23102
841.427	23029
841.564	23094
841.701	23079
841.838	22968
841.975	22976
842.112	22980
842.249	22850
842.385	22820
842.522	22938
842.659	22812
842.796	22835
842.933	22793
843.069	22706
843.206	22816
843.343	22892
843.479	22767
843.616	22843
843.752	22615
843.889	22596
844.025	22786
844.162	22565
844.298	22672
844.435	22592
844.571	22508
844.708	22634
844.844	22706
844.98	22744
845.117	22660
845.253	22470
845.389	22462
845.525	22542
845.661	22432
845.798	22386
845.934	22436
846.07	22211
846.206	22432
846.342	22405
846.478	22257
846.614	22063
846.75	22006
846.886	21998
847.022	22017
847.158	21983
847.294	22082
847.429	22032
847.565	22082
847.701	22325
847.837	21846
847.972	21732
848.108	21930
848.244	21816
848.379	21698
848.515	21717
848.65	21682
848.786	21713
848.921	21675
849.057	21850
849.192	21709
849.328	21724
849.463	21568
849.598	21568
849.734	21682
849.869	21336
850.004	21340
850.14	21344
850.275	21420
850.41	21329
850.545	21462
850.68	21294
850.815	21408
850.95	21275
851.085	21530
851.22	21469
851.355	21428
851.49	21252
851.625	21393
851.76	21370
851.895	21287
852.03	21310
852.165	21378
852.299	21378
852.434	21515
852.569	21428
852.703	21416
852.838	21450
852.973	21564
853.107	21492
853.242	21408
853.376	21272
853.511	20921
853.645	21287
853.78	21249
853.914	21222
854.048	21154
854.183	21195
854.317	21268
854.451	21412
854.585	21241
854.72	21184
854.854	21359
854.988	21108
855.122	21230
855.256	21089
855.39	21302
855.524	21317
855.658	21348
855.792	21222
855.926	21256
856.06	21252
856.194	21272
856.327	21256
856.461	21264
856.595	21138
856.729	21230
856.862	21268
856.996	21302
857.13	21294
857.263	21279
857.397	21294
857.53	21161
857.664	21302
857.797	21287
857.931	21207
858.064	21226
858.197	21283
858.331	21157
858.464	21085
858.597	21096
858.731	21222
858.864	21306
858.997	21062
859.13	21325
859.263	21329
859.396	21245
859.529	21203
859.662	21100
859.795	21127
859.928	21302
860.061	21313
860.194	21428
860.327	21157
860.46	21131
860.592	21294
860.725	21310
860.858	21245
860.99	21157
861.123	21287
861.256	21131
861.388	21245
861.521	21850
861.653	21135
861.786	21100
861.918	21104
862.05	21108
862.183	21138
862.315	21203
862.447	21291
862.58	21119
862.712	20994
862.844	20887
862.976	21032
863.108	21009
863.24	21496
863.372	20864
863.504	20861
863.636	20796
863.768	20868
863.9	20765
864.032	20853
864.164	20754
864.296	20937
864.428	20998
864.559	20963
864.691	20921
864.823	20902
864.954	20838
865.086	20849
865.217	20864
865.349	20727
865.48	20697
865.612	20861
865.743	20979
865.875	20864
866.006	20769
866.137	20777
866.269	20883
866.4	20857
866.531	20754
866.662	20701
866.793	20743
866.924	20735
867.055	20724
867.186	20720
867.317	20716
867.448	20556
867.579	20724
867.71	20667
867.841	20644
867.972	20777
868.103	20735
868.233	20739
868.364	20746
868.495	20880
868.625	20982
868.756	21119
868.886	20918
869.017	20975
869.147	21127
869.278	21024
869.408	20990
869.539	20929
869.669	21131
869.799	20967
869.929	21081
870.06	21077
870.19	21351
870.32	21218
870.45	21386
870.58	21321
870.71	21428
870.84	21458
870.97	21370
871.1	21389
871.23	21530
871.36	21530
871.489	21561
871.619	21610
871.749	21530
871.879	21507
872.008	21675
872.138	21500
872.267	21603
872.397	21439
872.526	21401
872.656	21348
872.785	21393
872.915	21519
873.044	21599
873.173	21545
873.303	21591
873.432	21576
873.561	21774
873.69	21561
873.819	21595
873.948	21641
874.077	21663
874.206	21485
874.335	21561
874.464	21720
874.593	21835
874.722	21785
874.851	21888
874.979	21774
875.108	21911
875.237	21667
875.365	21720
875.494	21903
875.623	21865
875.751	21827
875.88	21907
876.008	21964
876.136	22078
876.265	22272
876.393	22352
876.521	22226
876.65	22287
876.778	22204
876.906	22139
877.034	22040
877.162	22215
877.29	22120
877.418	22196
877.546	22147
877.674	22226
877.802	22177
877.93	22166
878.058	22265
878.185	22192
878.313	22067
878.441	22143
878.568	21941
878.696	22082
878.824	22226
878.951	22162
879.079	22329
879.206	22462
879.333	22424
879.461	22257
879.588	22249
879.715	22337
879.842	22508
879.97	22360
880.097	21968
880.224	22002
880.351	21956
880.478	21960
880.605	21972
880.732	22105
880.859	22234
880.986	22002
881.112	22044
881.239	21854
881.366	21743
881.493	21606
881.619	21778
881.746	21637
881.872	21526
881.999	21576
882.125	21458
882.252	21732
882.378	21572
882.505	21545
882.631	21428
882.757	21382
882.883	21443
883.01	21294
883.136	21241
883.262	21222
883.388	21154
883.514	21279
883.64	21325
883.766	21268
883.892	21180
884.018	21165
884.143	21268
884.269	21420
884.395	21005
884.52	20864
884.646	20918
884.772	20800
884.897	20910
885.023	20910
885.148	21051
885.274	21051
885.399	21043
885.524	20941
885.65	20971
885.775	21028
885.9	20960
886.025	20979
886.15	20967
886.275	20895
886.4	20819
886.525	20883
886.65	20826
886.775	20849
886.9	21024
887.025	21070
887.149	20918
887.274	20788
887.399	20648
887.523	20670
887.648	20640
887.773	20545
887.897	20739
888.021	20640
888.146	20579
888.27	20823
888.395	20796
888.519	20697
888.643	20705
888.767	20568
888.891	20579
889.015	20503
889.139	20545
889.263	20541
889.387	20537
889.511	20769
889.635	20476
889.759	20313
889.883	20476
890.006	20457
890.13	20640
890.254	20374
890.377	20366
890.501	20267
890.624	20176
890.748	20225
890.871	20122
890.995	19955
891.118	20046
891.241	20001
891.364	19917
891.488	20153
891.611	20065
891.734	20115
891.857	20103
891.98	20050
892.103	20008
892.226	19989
892.349	19989
892.471	19811
892.594	19879
892.717	19974
892.839	19951
892.962	19963
893.085	19955
893.207	19932
893.33	19841
893.452	19765
893.575	19959
893.697	19917
893.819	20031
893.941	20176
894.064	20054
894.186	19959
894.308	19909
894.43	20092
894.552	19951
894.674	19967
894.796	19811
894.918	19951
895.04	19928
895.161	20054
895.283	19955
895.405	19906
895.526	19955
895.648	19913
895.769	19944
895.891	20008
896.012	20073
896.134	19982
896.255	20020
896.376	19887
896.498	19944
896.619	20073
896.74	19921
896.861	20054
896.982	20355
897.103	20446
897.224	20275
897.345	20134
897.466	20191
897.587	20187
897.708	20267
897.828	20157
897.949	20119
898.07	19932
898.19	20206
898.311	20157
898.431	20100
898.552	20195
898.672	20168
898.792	20237
898.913	20187
899.033	20081
899.153	19936
899.273	19803
899.393	19928
899.513	20005
899.633	19940
899.753	19951
899.873	19818
899.993	19811
900.113	19830
900.232	19750
900.352	19791
900.472	19696
900.591	19670
900.711	19685
900.83	19666
900.95	19780
901.069	19700
901.189	19499
901.308	19324
901.427	19236
901.546	19206
901.665	19289
901.784	19365
901.904	19031
902.023	19069
902.141	18882
902.26	18852
902.379	18863
902.498	18829
902.617	18814
902.735	18821
902.854	18768
902.973	18677
903.091	18490
903.21	18464
903.328	18544
903.446	18391
903.565	18174
903.683	18296
903.801	18174
903.919	18091
904.038	18178
904.156	18026
904.274	18098
904.392	18030
904.51	18003
904.627	18064
904.745	18098
904.863	18140
904.981	17817
905.098	17703
905.216	17794
905.334	17726
905.451	17847
905.569	17638
905.686	17642
905.803	17661
905.921	17417
906.038	17649
906.155	17600
906.272	17440
906.389	17395
906.506	17265
906.623	17326
906.74	17227
906.857	17102
906.974	17109
907.091	17246
907.208	17417
907.324	17307
907.441	17178
907.557	16915
907.674	16968
907.79	16904
907.907	16896
908.023	16953
908.139	16835
908.256	16835
908.372	16854
908.488	16774
908.604	16660
908.72	16656
908.836	16653
908.952	16577
909.068	16626
909.184	16740
909.3	16626
909.415	16660
909.531	16641
909.647	16379
909.762	16424
909.878	16318
909.993	16360
910.108	16322
910.224	16280
910.339	16261
910.454	16280
910.57	16234
910.685	16082
910.8	16413
910.915	16265
911.03	16059
911.145	15968
911.259	15903
911.374	15884
911.489	15857
911.604	15804
911.718	15656
911.833	15648
911.947	15492
912.062	15496
912.176	15682
912.291	15705
912.405	15603
912.519	15854
912.633	15884
912.748	15720
912.862	15595
912.976	15622
913.09	15351
913.204	15424
913.318	15538
913.431	15637
913.545	15534
913.659	15481
913.772	15644
913.886	15351
914	15275
914.113	15336
914.226	15492
914.34	15416
914.453	15226
914.566	15374
914.68	15207
914.793	15211
914.906	15039
915.019	15024
915.132	14785
915.245	14971
915.358	14941
915.47	14944
915.583	14895
915.696	14914
915.809	15028
915.921	15077
916.034	14765
916.146	14849
916.259	14834
916.371	14899
916.483	15020
916.595	14720
916.708	14746
916.82	14701
916.932	14754
917.044	14670
917.156	14758
917.268	14610
917.38	14511
917.491	14514
917.603	14556
917.715	14689
917.826	14644
917.938	14564
918.049	14431
918.161	14492
918.272	14743
918.384	14514
918.495	14446
918.606	14404
918.717	14286
918.828	14298
918.939	14351
919.05	14339
919.161	14431
919.272	14164
919.383	14176
919.494	14355
919.604	14488
919.715	14358
919.826	14214
919.936	14336
920.047	14347
920.157	14358
920.267	14442
920.378	14290
920.488	14343
920.598	14484
920.708	14571
920.818	14389
920.928	14461
921.038	14583
921.148	14571
921.258	14244
921.368	14240
921.477	14115
921.587	14012
921.697	13890
921.806	14008
921.916	13936
922.025	13811
922.134	13712
922.244	13578
922.353	13719
922.462	13578
922.571	13483
922.68	13403
922.789	13282
922.898	13217
923.007	13266
923.116	13308
923.224	13331
923.333	13278
923.442	13206
923.55	13145
923.659	13141
923.767	13251
923.876	13061
923.984	13149
924.092	13091
924.201	13027
924.309	13027
924.417	13156
924.525	13042
924.633	12947
924.741	13860
924.849	12844
924.956	12867
925.064	12814
925.172	12776
925.279	12768
925.387	12829
925.494	12791
925.602	12890
925.709	12814
925.816	12688
925.924	12650
926.031	12730
926.138	12749
926.245	12730
926.352	12642
926.459	12749
926.566	12715
926.673	12521
926.779	12547
926.886	12441
926.993	12357
927.099	12388
927.206	12281
927.312	12281
927.419	12285
927.525	12266
927.631	12365
927.737	12216
927.843	12175
927.95	12091
928.056	12110
928.162	12171
928.267	12148
928.373	12760
928.479	12228
928.585	12007
928.69	12159
928.796	12186
928.901	11969
929.007	11836
929.112	11999
929.218	12011
929.323	11851
929.428	11847
929.533	11999
929.638	11821
929.743	11897
929.848	11813
929.953	11775
930.058	11680
930.163	11581
930.267	11627
930.372	11680
930.477	11547
930.581	11718
930.685	11604
930.79	11448
930.894	11497
930.998	11398
931.103	11570
931.207	11227
931.311	11151
931.415	11041
931.519	10812
931.623	10858
