Data from test_V78500241_953.txt Node
Date: Fri Mar 25 15:16:29 CST 2022
User: usil
Spectrometer: V785-0024
Trigger mode: 0
Integration Time (sec): 4.000000E-1
Scans to average: 1
Nonlinearity correction enabled: false
Boxcar width: 0
Storing dark spectrum: false
XAxis mode: Wavelengths
Number of Pixels in Spectrum: 1024
>>>>>Begin Spectral Data<<<<<
801.071	27949
801.214	27842
801.356	27488
801.499	27504
801.641	27458
801.783	27454
801.926	27561
802.068	27317
802.211	27359
802.353	27351
802.496	27116
802.638	27096
802.78	27089
802.923	27055
803.065	27089
803.208	27093
803.35	26944
803.492	27233
803.635	27386
803.777	27302
803.919	27351
804.061	27572
804.204	27370
804.346	27226
804.488	27070
804.63	27241
804.773	27142
804.915	27256
805.057	27218
805.199	27317
805.341	27374
805.483	27458
805.626	27485
805.768	27370
805.91	27382
806.052	27481
806.194	27329
806.336	27530
806.478	27557
806.62	27427
806.762	27614
806.904	27766
807.046	27861
807.188	27857
807.33	27781
807.472	27785
807.614	27823
807.756	27743
807.898	27648
808.04	27667
808.182	27675
808.324	27675
808.465	27808
808.607	27861
808.749	27876
808.891	28063
809.033	28109
809.174	28139
809.316	27983
809.458	27979
809.6	28055
809.741	28112
809.883	28215
810.025	28390
810.166	28363
810.308	28322
810.45	28386
810.591	28291
810.733	28177
810.875	27956
811.016	27937
811.158	27922
811.299	28147
811.441	28314
811.582	28128
811.724	27994
811.865	28059
812.007	28090
812.148	28017
812.29	28219
812.431	28284
812.573	28478
812.714	28421
812.855	28580
812.997	28698
813.138	28900
813.279	28717
813.421	28599
813.562	28584
813.703	28253
813.845	28394
813.986	27816
814.127	27819
814.268	27800
814.41	27743
814.551	27667
814.692	27827
814.833	27713
814.974	27675
815.115	27804
815.256	27705
815.397	27614
815.539	27595
815.68	27450
815.821	27648
815.962	27538
816.103	27614
816.244	27321
816.385	27317
816.526	27268
816.666	27138
816.807	26937
816.948	27169
817.089	27211
817.23	27127
817.371	27188
817.512	27058
817.653	27066
817.793	27028
817.934	27184
818.075	27195
818.216	27184
818.356	27013
818.497	26960
818.638	26811
818.778	26674
818.919	26807
819.06	26921
819.2	26933
819.341	27100
819.481	26982
819.622	27081
819.762	27401
819.903	27279
820.043	27188
820.184	27161
820.324	27146
820.465	27195
820.605	27268
820.746	27241
820.886	27169
821.026	27211
821.167	26967
821.307	27173
821.447	27096
821.588	26944
821.728	26765
821.868	26655
822.008	26514
822.149	26427
822.289	26469
822.429	26298
822.569	26206
822.709	26271
822.849	26069
822.99	26126
823.13	26008
823.27	25989
823.41	25780
823.55	25887
823.69	25898
823.83	25856
823.97	25772
824.11	25601
824.25	25651
824.389	25685
824.529	25765
824.669	25712
824.809	25772
824.949	25822
825.089	25894
825.228	25765
825.368	25540
825.508	25594
825.648	25468
825.787	25658
825.927	25601
826.067	25647
826.206	25552
826.346	25605
826.485	25677
826.625	25518
826.765	25578
826.904	25552
827.044	25320
827.183	25343
827.323	25282
827.462	25247
827.601	25365
827.741	25343
827.88	25263
828.02	25099
828.159	25244
828.298	25324
828.437	25415
828.577	25354
828.716	25472
828.855	25240
828.994	24977
829.134	24966
829.273	25118
829.412	25008
829.551	24916
829.69	25023
829.829	24985
829.968	25065
830.107	24951
830.246	25042
830.385	24840
830.524	24753
830.663	24795
830.802	24817
830.941	24570
831.08	24460
831.219	24738
831.357	24738
831.496	24749
831.635	24616
831.774	24532
831.913	24467
832.051	24452
832.19	24376
832.329	24452
832.467	24308
832.606	24140
832.744	24220
832.883	24258
833.022	24182
833.16	24296
833.299	24323
833.437	24334
833.576	24475
833.714	24216
833.852	24403
833.991	24460
834.129	24407
834.267	24544
834.406	24399
834.544	24422
834.682	24372
834.821	24376
834.959	24479
835.097	24247
835.235	24452
835.373	24342
835.511	24350
835.65	24239
835.788	24235
835.926	24121
836.064	23992
836.202	23992
836.34	24235
836.478	24388
836.615	24087
836.753	24228
836.891	24232
837.029	24197
837.167	24129
837.305	24015
837.443	24152
837.58	23931
837.718	24152
837.856	23977
837.993	23958
838.131	23912
838.269	23927
838.406	23805
838.544	23779
838.681	23691
838.819	23634
838.956	23467
839.094	23376
839.231	23551
839.369	23592
839.506	23897
839.643	23638
839.781	23528
839.918	23391
840.055	23421
840.193	23391
840.33	23395
840.467	23337
840.604	23440
840.742	23699
840.879	23387
841.016	23372
841.153	23143
841.29	23490
841.427	23376
841.564	23402
841.701	23410
841.838	23364
841.975	23204
842.112	23296
842.249	23117
842.385	23121
842.522	23349
842.659	23174
842.796	23136
842.933	23193
843.069	23025
843.206	23208
843.343	23170
843.479	23166
843.616	23044
843.752	22999
843.889	22995
844.025	23178
844.162	22953
844.298	22987
844.435	22972
844.571	22942
844.708	23014
844.844	22987
844.98	23128
845.117	22927
845.253	22850
845.389	22896
845.525	22858
845.661	22767
845.798	22687
845.934	22729
846.07	22664
846.206	22702
846.342	22752
846.478	22752
846.614	22421
846.75	22379
846.886	22443
847.022	22607
847.158	22478
847.294	22462
847.429	22382
847.565	22466
847.701	22611
847.837	22276
847.972	21968
848.108	22371
848.244	22223
848.379	22002
848.515	22006
848.65	22002
848.786	22036
848.921	21934
849.057	21987
849.192	21972
849.328	22032
849.463	22082
849.598	21949
849.734	21804
849.869	21827
850.004	21869
850.14	21838
850.275	21804
850.41	21770
850.545	21644
850.68	21736
850.815	21926
850.95	21709
851.085	21800
851.22	21762
851.355	21819
851.49	21618
851.625	21690
851.76	21747
851.895	21603
852.03	21591
852.165	21785
852.299	21838
852.434	21869
852.569	21899
852.703	21774
852.838	21873
852.973	21857
853.107	21812
853.242	21663
853.376	21530
853.511	21519
853.645	21511
853.78	21660
853.914	21656
854.048	21439
854.183	21500
854.317	21576
854.451	21800
854.585	21561
854.72	21534
854.854	21644
854.988	21561
855.122	21587
855.256	21466
855.39	21549
855.524	21694
855.658	21450
855.792	21572
855.926	21591
856.06	21622
856.194	21591
856.327	21519
856.461	21519
856.595	21439
856.729	21481
856.862	21679
856.996	21618
857.13	21682
857.263	21564
857.397	21663
857.53	21538
857.664	21644
857.797	21705
857.931	21564
858.064	21526
858.197	21732
858.331	21633
858.464	21610
858.597	21542
858.731	21591
858.864	21485
858.997	21511
859.13	21511
859.263	21515
859.396	21625
859.529	21694
859.662	21564
859.795	21507
859.928	21507
860.061	21732
860.194	21660
860.327	21660
860.46	21519
860.592	21667
860.725	21789
860.858	21736
860.99	21625
861.123	21580
861.256	21443
861.388	21530
861.521	22242
861.653	21458
861.786	21420
861.918	21374
862.05	21450
862.183	21507
862.315	21500
862.447	21519
862.58	21523
862.712	21279
862.844	21329
862.976	21401
863.108	21294
863.24	21633
863.372	21226
863.504	21275
863.636	21199
863.768	21317
863.9	21230
864.032	21294
864.164	21241
864.296	21230
864.428	21226
864.559	21329
864.691	21325
864.823	21367
864.954	21279
865.086	21157
865.217	21218
865.349	21096
865.48	21108
865.612	21180
865.743	21313
865.875	21203
866.006	21180
866.137	21169
866.269	21203
866.4	21192
866.531	21032
866.662	21066
866.793	21176
866.924	21070
867.055	21127
867.186	21127
867.317	20990
867.448	20975
867.579	21070
867.71	20944
867.841	20952
867.972	21047
868.103	21135
868.233	21074
868.364	21157
868.495	21176
868.625	21302
868.756	21306
868.886	21351
869.017	21291
869.147	21408
869.278	21431
869.408	21287
869.539	21233
869.669	21462
869.799	21439
869.929	21420
870.06	21466
870.19	21633
870.32	21766
870.45	21781
870.58	21816
870.71	21892
870.84	21873
870.97	21690
871.1	21778
871.23	22017
871.36	21964
871.489	21861
871.619	21964
871.749	21941
871.879	21968
872.008	21964
872.138	21880
872.267	21918
872.397	21793
872.526	21671
872.656	21751
872.785	21846
872.915	21911
873.044	22044
873.173	21850
873.303	22032
873.432	21949
873.561	21975
873.69	21960
873.819	21926
873.948	21949
874.077	21956
874.206	21926
874.335	21850
874.464	22017
874.593	22124
874.722	22196
874.851	22135
874.979	22280
875.108	22318
875.237	22135
875.365	22021
875.494	22097
875.623	22188
875.751	22029
875.88	22215
876.008	22192
876.136	22375
876.265	22481
876.393	22573
876.521	22531
876.65	22611
876.778	22432
876.906	22470
877.034	22512
877.162	22508
877.29	22455
877.418	22508
877.546	22497
877.674	22550
877.802	22443
877.93	22390
878.058	22512
878.185	22508
878.313	22523
878.441	22489
878.568	22287
878.696	22516
878.824	22451
878.951	22557
879.079	22702
879.206	22687
879.333	22698
879.461	22546
879.588	22546
879.715	22599
879.842	22694
879.97	22649
880.097	22375
880.224	22272
880.351	22413
880.478	22474
880.605	22333
880.732	22306
880.859	22580
880.986	22485
881.112	22352
881.239	22219
881.366	22078
881.493	21911
881.619	21975
881.746	21895
881.872	21937
881.999	21915
882.125	21728
882.252	21918
882.378	21812
882.505	22029
882.631	21766
882.757	21637
882.883	21701
883.01	21583
883.136	21542
883.262	21603
883.388	21450
883.514	21618
883.64	21682
883.766	21488
883.892	21534
884.018	21412
884.143	21648
884.269	21606
884.395	21302
884.52	21233
884.646	21249
884.772	21268
884.897	21028
885.023	21310
885.148	21367
885.274	21359
885.399	21245
885.524	21230
885.65	21298
885.775	21165
885.9	21180
886.025	21245
886.15	21325
886.275	21298
886.4	21203
886.525	21165
886.65	21222
886.775	21062
886.9	21408
887.025	21519
887.149	21245
887.274	21043
887.399	21058
887.523	21013
887.648	20967
887.773	20967
887.897	21142
888.021	21154
888.146	20933
888.27	21039
888.395	21116
888.519	20967
888.643	21081
888.767	20990
888.891	20834
889.015	20823
889.139	20853
889.263	20788
889.387	20838
889.511	21028
889.635	20941
889.759	20735
889.883	20712
890.006	20796
890.13	20815
890.254	20838
890.377	20693
890.501	20708
890.624	20465
890.748	20560
890.871	20434
890.995	20332
891.118	20336
891.241	20324
891.364	20358
891.488	20469
891.611	20381
891.734	20473
891.857	20541
891.98	20423
892.103	20385
892.226	20396
892.349	20282
892.471	20126
892.594	20168
892.717	20412
892.839	20233
892.962	20195
893.085	20259
893.207	20195
893.33	20214
893.452	20119
893.575	20278
893.697	20248
893.819	20480
893.941	20465
894.064	20389
894.186	20309
894.308	20240
894.43	20396
894.552	20488
894.674	20317
894.796	20164
894.918	20275
895.04	20275
895.161	20244
895.283	20263
895.405	20290
895.526	20294
895.648	20218
895.769	20229
895.891	20324
896.012	20393
896.134	20328
896.255	20218
896.376	20248
896.498	20294
896.619	20286
896.74	20187
896.861	20263
896.982	20674
897.103	20545
897.224	20575
897.345	20488
897.466	20408
897.587	20514
897.708	20625
897.828	20541
897.949	20370
898.07	20286
898.19	20457
898.311	20579
898.431	20374
898.552	20434
898.672	20530
898.792	20594
898.913	20583
899.033	20343
899.153	20282
899.273	20145
899.393	20187
899.513	20271
899.633	20210
899.753	20305
899.873	20073
899.993	20282
900.113	20149
900.232	20088
900.352	20168
900.472	20084
900.591	20039
900.711	20050
900.83	19856
900.95	19989
901.069	19947
901.189	19845
901.308	19689
901.427	19712
901.546	19616
901.665	19575
901.784	19605
901.904	19559
902.023	19369
902.141	19152
902.26	19198
902.379	19129
902.498	19129
902.617	19012
902.735	19187
902.854	19148
902.973	19046
903.091	18768
903.21	18764
903.328	18741
903.446	18700
903.565	18589
903.683	18608
903.801	18437
903.919	18502
904.038	18483
904.156	18319
904.274	18433
904.392	18308
904.51	18372
904.627	18239
904.745	18338
904.863	18426
904.981	18057
905.098	17980
905.216	17999
905.334	18110
905.451	17996
905.569	17984
905.686	18057
905.803	18083
905.921	17920
906.038	17916
906.155	17802
906.272	17687
906.389	17729
906.506	17570
906.623	17642
906.74	17642
906.857	17395
906.974	17444
907.091	17638
907.208	17657
907.324	17589
907.441	17433
907.557	17250
907.674	17250
907.79	17242
907.907	17204
908.023	17250
908.139	17292
908.256	17086
908.372	17181
908.488	17109
908.604	17060
908.72	16961
908.836	16942
908.952	16965
909.068	17037
909.184	17117
909.3	16961
909.415	16980
909.531	16976
909.647	16759
909.762	16675
909.878	16660
909.993	16694
910.108	16550
910.224	16577
910.339	16618
910.454	16599
910.57	16535
910.685	16402
910.8	16721
910.915	16611
911.03	16417
911.145	16314
911.259	16390
911.374	16249
911.489	16253
911.604	16128
911.718	16002
911.833	16158
911.947	15945
912.062	15778
912.176	15979
912.291	16036
912.405	15991
912.519	16059
912.633	16230
912.748	15991
912.862	15998
912.976	15922
913.09	15755
913.204	15755
913.318	15899
913.431	15880
913.545	15922
913.659	15876
913.772	15781
913.886	15591
914	15618
914.113	15713
914.226	15816
914.34	15701
914.453	15462
914.566	15675
914.68	15477
914.793	15462
914.906	15393
915.019	15264
915.132	15169
915.245	15173
915.358	15272
915.47	15222
915.583	15192
915.696	15233
915.809	15348
915.921	15245
916.034	15142
916.146	15150
916.259	15157
916.371	15207
916.483	15180
916.595	15142
916.708	15043
916.82	15097
916.932	14952
917.044	14971
917.156	15055
917.268	14872
917.38	14929
917.491	14960
917.603	14895
917.715	14960
917.826	14925
917.938	14811
918.049	14781
918.161	14788
918.272	14933
918.384	14941
918.495	14815
918.606	14674
918.717	14674
918.828	14708
918.939	14678
919.05	14549
919.161	14575
919.272	14377
919.383	14583
919.494	14701
919.604	14792
919.715	14651
919.826	14568
919.936	14644
920.047	14670
920.157	14613
920.267	14769
920.378	14613
920.488	14587
920.598	14705
920.708	14864
920.818	14724
920.928	14842
921.038	14895
921.148	14826
921.258	14514
921.368	14442
921.477	14431
921.587	14305
921.697	14202
921.806	14351
921.916	14149
922.025	13989
922.134	13982
922.244	13951
922.353	13890
922.462	13917
922.571	13784
922.68	13731
922.789	13655
922.898	13620
923.007	13575
923.116	13639
923.224	13666
923.333	13647
923.442	13487
923.55	13457
923.659	13441
923.767	13472
923.876	13388
923.984	13476
924.092	13324
924.201	13392
924.309	13301
924.417	13343
924.525	13255
924.633	13263
924.741	14176
924.849	13129
924.956	13362
925.064	13118
925.172	12996
925.279	12989
925.387	13190
925.494	13031
925.602	13110
925.709	13129
925.816	12897
925.924	12947
926.031	13050
926.138	13015
926.245	13050
926.352	12856
926.459	12928
926.566	13019
926.673	12844
926.779	12760
926.886	12711
926.993	12650
927.099	12585
927.206	12509
927.312	12563
927.419	12601
927.525	12650
927.631	12589
927.737	12494
927.843	12369
927.95	12319
928.056	12376
928.162	12376
928.267	12490
928.373	13114
928.479	12536
928.585	12254
928.69	12350
928.796	12391
928.901	12277
929.007	12186
929.112	12190
929.218	12258
929.323	12201
929.428	12079
929.533	12220
929.638	12110
929.743	12186
929.848	12129
929.953	12060
930.058	11958
930.163	11786
930.267	11828
930.372	11946
930.477	11805
930.581	11977
930.685	11897
930.79	11745
930.894	11771
930.998	11695
931.103	11794
931.207	11512
931.311	11410
931.415	11326
931.519	11041
931.623	11037
