Data from test_V78500241_831.txt Node
Date: Fri Mar 25 15:15:38 CST 2022
User: usil
Spectrometer: V785-0024
Trigger mode: 0
Integration Time (sec): 4.000000E-1
Scans to average: 1
Nonlinearity correction enabled: false
Boxcar width: 0
Storing dark spectrum: false
XAxis mode: Wavelengths
Number of Pixels in Spectrum: 1024
>>>>>Begin Spectral Data<<<<<
801.071	28375
801.214	28131
801.356	27892
801.499	27937
801.641	28002
801.783	27869
801.926	27884
802.068	27876
802.211	27903
802.353	27663
802.496	27629
802.638	27542
802.78	27625
802.923	27618
803.065	27485
803.208	27633
803.35	27675
803.492	27580
803.635	27686
803.777	27572
803.919	27766
804.061	28021
804.204	27876
804.346	27732
804.488	27549
804.63	27682
804.773	27545
804.915	27682
805.057	27907
805.199	27625
805.341	27869
805.483	27869
805.626	27861
805.768	27755
805.91	27812
806.052	27907
806.194	27842
806.336	28074
806.478	28013
806.62	28010
806.762	28074
806.904	28200
807.046	28390
807.188	28382
807.33	28291
807.472	28348
807.614	28257
807.756	28470
807.898	28242
808.04	28116
808.182	28192
808.324	28169
808.465	28204
808.607	28329
808.749	28607
808.891	28622
809.033	28725
809.174	28660
809.316	28542
809.458	28710
809.6	28584
809.741	28744
809.883	28622
810.025	28881
810.166	28850
810.308	28828
810.45	28790
810.591	28862
810.733	28596
810.875	28443
811.016	28409
811.158	28390
811.299	28580
811.441	28767
811.582	28729
811.724	28497
811.865	28375
812.007	28478
812.148	28512
812.29	28656
812.431	28733
812.573	28980
812.714	29029
812.855	29121
812.997	29288
813.138	29520
813.279	29261
813.421	29041
813.562	29178
813.703	29048
813.845	28820
813.986	28493
814.127	28462
814.268	28238
814.41	28409
814.551	28310
814.692	28314
814.833	28363
814.974	28230
815.115	28386
815.256	28188
815.397	28070
815.539	28143
815.68	27975
815.821	28055
815.962	28131
816.103	28124
816.244	27953
816.385	27903
816.526	27892
816.666	27747
816.807	27587
816.948	27709
817.089	27595
817.23	27542
817.371	27682
817.512	27667
817.653	27705
817.793	27660
817.934	27622
818.075	27629
818.216	27755
818.356	27526
818.497	27427
818.638	27298
818.778	27386
818.919	27340
819.06	27431
819.2	27450
819.341	27728
819.481	27492
819.622	27606
819.762	27789
819.903	27869
820.043	27949
820.184	27739
820.324	27701
820.465	27854
820.605	27770
820.746	27644
820.886	27561
821.026	27694
821.167	27770
821.307	27743
821.447	27698
821.588	27519
821.728	27382
821.868	27203
822.008	27127
822.149	26952
822.289	27043
822.429	26807
822.569	26731
822.709	26716
822.849	26697
822.99	26701
823.13	26606
823.27	26537
823.41	26431
823.55	26396
823.69	26313
823.83	26423
823.97	26396
824.11	26153
824.25	26100
824.389	26176
824.529	26339
824.669	26138
824.809	26332
824.949	26298
825.089	26438
825.228	26168
825.368	26161
825.508	25928
825.648	26176
825.787	26100
825.927	26347
826.067	26191
826.206	26054
826.346	26214
826.485	26149
826.625	26145
826.765	26332
826.904	26191
827.044	25932
827.183	25879
827.323	25780
827.462	25974
827.601	25894
827.741	25780
827.88	25826
828.02	25518
828.159	25734
828.298	25936
828.437	25803
828.577	25776
828.716	25959
828.855	25811
828.994	25655
829.134	25438
829.273	25453
829.412	25643
829.551	25548
829.69	25449
829.829	25540
829.968	25582
830.107	25445
830.246	25506
830.385	25502
830.524	25506
830.663	25365
830.802	25270
830.941	25206
831.08	24996
831.219	25198
831.357	25270
831.496	25388
831.635	25213
831.774	25107
831.913	25175
832.051	24973
832.19	24989
832.329	25027
832.467	24989
832.606	24703
832.744	24726
832.883	24928
833.022	24760
833.16	24859
833.299	24821
833.437	24806
833.576	24890
833.714	24928
833.852	25031
833.991	24954
834.129	24958
834.267	24920
834.406	24981
834.544	24890
834.682	24772
834.821	24837
834.959	25004
835.097	24878
835.235	24852
835.373	24871
835.511	24814
835.65	24703
835.788	24776
835.926	24544
836.064	24673
836.202	24505
836.34	24783
836.478	24890
836.615	24566
836.753	24719
836.891	24840
837.029	24722
837.167	24772
837.305	24612
837.443	24631
837.58	24566
837.718	24604
837.856	24528
837.993	24433
838.131	24494
838.269	24353
838.406	24414
838.544	24369
838.681	24197
838.819	24072
838.956	24057
839.094	24057
839.231	24083
839.369	24072
839.506	24452
839.643	24178
839.781	24045
839.918	23817
840.055	24045
840.193	24026
840.33	23821
840.467	23920
840.604	23958
840.742	24087
840.879	23623
841.016	23859
841.153	23798
841.29	23988
841.427	23965
841.564	23828
841.701	23870
841.838	23779
841.975	23786
842.112	23843
842.249	23764
842.385	23642
842.522	23847
842.659	23718
842.796	23649
842.933	23710
843.069	23630
843.206	23600
843.343	23760
843.479	23718
843.616	23687
843.752	23570
843.889	23501
844.025	23630
844.162	23497
844.298	23520
844.435	23623
844.571	23448
844.708	23539
844.844	23452
844.98	23703
845.117	23600
845.253	23459
845.389	23322
845.525	23368
845.661	23204
845.798	23098
845.934	23269
846.07	23242
846.206	23147
846.342	23269
846.478	23094
846.614	22946
846.75	22930
846.886	22869
847.022	22919
847.158	22991
847.294	22850
847.429	22908
847.565	22900
847.701	23109
847.837	22691
847.972	22561
848.108	22736
848.244	22641
848.379	22634
848.515	22599
848.65	22474
848.786	22516
848.921	22554
849.057	22580
849.192	22542
849.328	22405
849.463	22474
849.598	22569
849.734	22405
849.869	22386
850.004	22223
850.14	22295
850.275	22257
850.41	22177
850.545	22246
850.68	22207
850.815	22268
850.95	22234
851.085	22424
851.22	22440
851.355	22124
851.49	22303
851.625	22341
851.76	22238
851.895	22188
852.03	22234
852.165	22196
852.299	22371
852.434	22337
852.569	22310
852.703	22097
852.838	22280
852.973	22272
853.107	22360
853.242	22230
853.376	22105
853.511	21930
853.645	22044
853.78	22139
853.914	22128
854.048	21972
854.183	22002
854.317	22211
854.451	22265
854.585	22120
854.72	22002
854.854	22086
854.988	22006
855.122	22078
855.256	21975
855.39	21972
855.524	22078
855.658	22032
855.792	22063
855.926	22147
856.06	22143
856.194	22143
856.327	22063
856.461	21964
856.595	22059
856.729	22048
856.862	22048
856.996	22105
857.13	22196
857.263	22162
857.397	22090
857.53	22078
857.664	21953
857.797	22097
857.931	22169
858.064	22147
858.197	22112
858.331	22181
858.464	22002
858.597	21983
858.731	22112
858.864	21983
858.997	22051
859.13	22128
859.263	22078
859.396	22109
859.529	21964
859.662	22036
859.795	21960
859.928	22124
860.061	22211
860.194	22230
860.327	22116
860.46	22021
860.592	22261
860.725	22196
860.858	22265
860.99	22086
861.123	21945
861.256	22070
861.388	22040
861.521	22885
861.653	21899
861.786	21747
861.918	21945
862.05	21979
862.183	21975
862.315	21930
862.447	22124
862.58	22002
862.712	21686
862.844	21812
862.976	21827
863.108	21717
863.24	22188
863.372	21778
863.504	21663
863.636	21724
863.768	21781
863.9	21686
864.032	21774
864.164	21728
864.296	21819
864.428	21823
864.559	21797
864.691	21698
864.823	21766
864.954	21759
865.086	21728
865.217	21774
865.349	21412
865.48	21720
865.612	21648
865.743	21671
865.875	21614
866.006	21663
866.137	21629
866.269	21793
866.4	21656
866.531	21576
866.662	21644
866.793	21591
866.924	21743
867.055	21603
867.186	21553
867.317	21477
867.448	21553
867.579	21504
867.71	21401
867.841	21519
867.972	21629
868.103	21511
868.233	21656
868.364	21644
868.495	21679
868.625	21831
868.756	21854
868.886	21869
869.017	21930
869.147	21945
869.278	21941
869.408	21892
869.539	21846
869.669	21975
869.799	22002
869.929	21941
870.06	22017
870.19	22207
870.32	22162
870.45	22177
870.58	22215
870.71	22284
870.84	22329
870.97	22382
871.1	22238
871.23	22386
871.36	22485
871.489	22371
871.619	22417
871.749	22409
871.879	22462
872.008	22481
872.138	22390
872.267	22375
872.397	22356
872.526	22196
872.656	22360
872.785	22192
872.915	22459
873.044	22424
873.173	22466
873.303	22580
873.432	22512
873.561	22500
873.69	22440
873.819	22405
873.948	22615
874.077	22485
874.206	22466
874.335	22470
874.464	22546
874.593	22736
874.722	22675
874.851	22584
874.979	22630
875.108	22736
875.237	22611
875.365	22481
875.494	22554
875.623	22618
875.751	22630
875.88	22767
876.008	22778
876.136	22866
876.265	23052
876.393	23117
876.521	23140
876.65	23029
876.778	23003
876.906	22957
877.034	22938
877.162	23010
877.29	23048
877.418	23056
877.546	23124
877.674	23003
877.802	22919
877.93	23018
878.058	23014
878.185	22854
878.313	22957
878.441	23029
878.568	22729
878.696	22831
878.824	22957
878.951	23094
879.079	23147
879.206	23223
879.333	23212
879.461	23086
879.588	23170
879.715	23151
879.842	23239
879.97	23033
880.097	22927
880.224	22782
880.351	22873
880.478	22915
880.605	22858
880.732	22839
880.859	23044
880.986	22805
881.112	22850
881.239	22748
881.366	22546
881.493	22447
881.619	22402
881.746	22447
881.872	22356
881.999	22299
882.125	22257
882.252	22337
882.378	22341
882.505	22428
882.631	22265
882.757	22169
882.883	22268
883.01	22192
883.136	22051
883.262	21880
883.388	21903
883.514	22070
883.64	22135
883.766	21975
883.892	21857
884.018	21804
884.143	21941
884.269	22013
884.395	21819
884.52	21713
884.646	21751
884.772	21713
884.897	21622
885.023	21724
885.148	21812
885.274	21895
885.399	21808
885.524	21690
885.65	21743
885.775	21762
885.9	21549
886.025	21884
886.15	21789
886.275	21618
886.4	21637
886.525	21762
886.65	21663
886.775	21667
886.9	21808
887.025	21861
887.149	21637
887.274	21416
887.399	21462
887.523	21450
887.648	21405
887.773	21511
887.897	21462
888.021	21397
888.146	21408
888.27	21534
888.395	21538
888.519	21450
888.643	21515
888.767	21553
888.891	21386
889.015	21264
889.139	21283
889.263	21245
889.387	21397
889.511	21496
889.635	21408
889.759	21302
889.883	21211
890.006	21245
890.13	21355
890.254	21176
890.377	21203
890.501	21001
890.624	20880
890.748	21154
890.871	20830
890.995	20788
891.118	20781
891.241	20838
891.364	20883
891.488	20933
891.611	20925
891.734	20769
891.857	20906
891.98	20830
892.103	20769
892.226	20929
892.349	20716
892.471	20769
892.594	20781
892.717	20750
892.839	20720
892.962	20788
893.085	20716
893.207	20693
893.33	20644
893.452	20682
893.575	20746
893.697	20678
893.819	20769
893.941	20956
894.064	20857
894.186	20663
894.308	20693
894.43	20834
894.552	20853
894.674	20800
894.796	20587
894.918	20655
895.04	20674
895.161	20678
895.283	20785
895.405	20705
895.526	20663
895.648	20678
895.769	20659
895.891	20674
896.012	20899
896.134	20796
896.255	20724
896.376	20716
896.498	20842
896.619	20750
896.74	20648
896.861	20682
896.982	21047
897.103	21077
897.224	20891
897.345	20876
897.466	20868
897.587	20941
897.708	21032
897.828	20982
897.949	20876
898.07	20765
898.19	20796
898.311	20941
898.431	20918
898.552	20830
898.672	20971
898.792	20937
898.913	20826
899.033	20883
899.153	20644
899.273	20659
899.393	20746
899.513	20724
899.633	20621
899.753	20621
899.873	20507
899.993	20678
900.113	20514
900.232	20503
900.352	20484
900.472	20492
900.591	20415
900.711	20457
900.83	20370
900.95	20560
901.069	20492
901.189	20294
901.308	20065
901.427	19963
901.546	19970
901.665	19955
901.784	20027
901.904	19928
902.023	19731
902.141	19544
902.26	19552
902.379	19590
902.498	19476
902.617	19419
902.735	19495
902.854	19521
902.973	19403
903.091	19194
903.21	19099
903.328	19160
903.446	19057
903.565	18993
903.683	19069
903.801	18951
903.919	18989
904.038	18981
904.156	18711
904.274	18829
904.392	18578
904.51	18734
904.627	18658
904.745	18760
904.863	18867
904.981	18494
905.098	18407
905.216	18380
905.334	18536
905.451	18407
905.569	18323
905.686	18467
905.803	18327
905.921	18224
906.038	18327
906.155	18277
906.272	18125
906.389	18076
906.506	17946
906.623	17920
906.74	18041
906.857	17680
906.974	17843
907.091	18011
907.208	18072
907.324	17855
907.441	17813
907.557	17627
907.674	17657
907.79	17600
907.907	17661
908.023	17562
908.139	17547
908.256	17589
908.372	17535
908.488	17554
908.604	17387
908.72	17307
908.836	17356
908.952	17284
909.068	17341
909.184	17493
909.3	17425
909.415	17406
909.531	17402
909.647	17117
909.762	17056
909.878	17060
909.993	17037
910.108	17045
910.224	17048
910.339	17079
910.454	16869
910.57	16862
910.685	16736
910.8	17052
910.915	17052
911.03	16915
911.145	16675
911.259	16637
911.374	16668
911.489	16588
911.604	16508
911.718	16360
911.833	16337
911.947	16280
912.062	16150
912.176	16257
912.291	16318
912.405	16379
912.519	16615
912.633	16485
912.748	16352
912.862	16348
912.976	16166
913.09	16059
913.204	16181
913.318	16276
913.431	16280
913.545	16329
913.659	16303
913.772	16188
913.886	15937
914	16040
914.113	16059
914.226	16067
914.34	16090
914.453	15926
914.566	16013
914.68	15800
914.793	15850
914.906	15526
915.019	15705
915.132	15580
915.245	15576
915.358	15675
915.47	15561
915.583	15606
915.696	15492
915.809	15701
915.921	15781
916.034	15542
916.146	15389
916.259	15424
916.371	15549
916.483	15504
916.595	15485
916.708	15428
916.82	15481
916.932	15298
917.044	15321
917.156	15245
917.268	15173
917.38	15214
917.491	15169
917.603	15203
917.715	15287
917.826	15268
917.938	15135
918.049	15028
918.161	15233
918.272	15283
918.384	15275
918.495	15150
918.606	14937
918.717	14975
918.828	14956
918.939	15058
919.05	14864
919.161	14952
919.272	14731
919.383	14864
919.494	14998
919.604	15199
919.715	14960
919.826	14838
919.936	14960
920.047	15066
920.157	14902
920.267	15100
920.378	14887
920.488	14899
920.598	15036
920.708	15203
920.818	15032
920.928	15062
921.038	15165
921.148	15116
921.258	14781
921.368	14739
921.477	14655
921.587	14560
921.697	14518
921.806	14674
921.916	14431
922.025	14404
922.134	14362
922.244	14244
922.353	14309
922.462	14202
922.571	14103
922.68	13955
922.789	13982
922.898	13913
923.007	13902
923.116	13959
923.224	13997
923.333	13826
923.442	13852
923.55	13719
923.659	13712
923.767	13822
923.876	13620
923.984	13601
924.092	13723
924.201	13597
924.309	13639
924.417	13681
924.525	13624
924.633	13578
924.741	14366
924.849	13339
924.956	13445
925.064	13327
925.172	13346
925.279	13392
925.387	13335
925.494	13289
925.602	13407
925.709	13285
925.816	13236
925.924	13301
926.031	13304
926.138	13175
926.245	13232
926.352	13095
926.459	13225
926.566	13240
926.673	13149
926.779	12970
926.886	13084
926.993	12878
927.099	12901
927.206	12863
927.312	12810
927.419	12825
927.525	12901
927.631	12897
927.737	12700
927.843	12696
927.95	12604
928.056	12612
928.162	12711
928.267	12738
928.373	13369
928.479	12688
928.585	12540
928.69	12631
928.796	12722
928.901	12570
929.007	12399
929.112	12544
929.218	12528
929.323	12448
929.428	12384
929.533	12551
929.638	12376
929.743	12357
929.848	12350
929.953	12399
930.058	12216
930.163	12060
930.267	12064
930.372	12175
930.477	12091
930.581	12289
930.685	12114
930.79	11950
930.894	11927
930.998	11961
931.103	12041
931.207	11657
931.311	11611
931.415	11547
931.519	11387
931.623	11311
