Data from test_V78500241_327.txt Node
Date: Fri Mar 25 15:12:08 CST 2022
User: usil
Spectrometer: V785-0024
Trigger mode: 0
Integration Time (sec): 4.000000E-1
Scans to average: 1
Nonlinearity correction enabled: false
Boxcar width: 0
Storing dark spectrum: false
XAxis mode: Wavelengths
Number of Pixels in Spectrum: 1024
>>>>>Begin Spectral Data<<<<<
801.071	28093
801.214	27937
801.356	27599
801.499	27709
801.641	27500
801.783	27572
801.926	27671
802.068	27644
802.211	27466
802.353	27412
802.496	27298
802.638	27344
802.78	27226
802.923	27112
803.065	26975
803.208	27252
803.35	27230
803.492	27420
803.635	27329
803.777	27359
803.919	27450
804.061	27572
804.204	27378
804.346	27157
804.488	27047
804.63	27313
804.773	27192
804.915	27329
805.057	27496
805.199	27329
805.341	27275
805.483	27427
805.626	27473
805.768	27374
805.91	27405
806.052	27485
806.194	27344
806.336	27698
806.478	27545
806.62	27545
806.762	27622
806.904	27660
807.046	27899
807.188	27736
807.33	27751
807.472	27838
807.614	27797
807.756	27804
807.898	27804
808.04	27583
808.182	27629
808.324	27564
808.465	27800
808.607	27831
808.749	27972
808.891	28101
809.033	28093
809.174	28177
809.316	28063
809.458	28036
809.6	28090
809.741	28105
809.883	28242
810.025	28344
810.166	28432
810.308	28261
810.45	28318
810.591	28310
810.733	28158
810.875	28048
811.016	27857
811.158	27907
811.299	28017
811.441	28048
811.582	28169
811.724	28013
811.865	27934
812.007	28059
812.148	27983
812.29	28055
812.431	28120
812.573	28295
812.714	28523
812.855	28516
812.997	28645
813.138	28774
813.279	28580
813.421	28618
813.562	28546
813.703	28417
813.845	28333
813.986	28017
814.127	27835
814.268	27705
814.41	27625
814.551	27682
814.692	27698
814.833	27663
814.974	27583
815.115	27591
815.256	27580
815.397	27530
815.539	27587
815.68	27443
815.821	27424
815.962	27427
816.103	27450
816.244	27184
816.385	27154
816.526	27313
816.666	26910
816.807	26891
816.948	27081
817.089	27020
817.23	27009
817.371	26979
817.512	26940
817.653	26956
817.793	26804
817.934	26902
818.075	26842
818.216	26925
818.356	26845
818.497	26868
818.638	26530
818.778	26731
818.919	26720
819.06	26655
819.2	26697
819.341	26788
819.481	26948
819.622	27005
819.762	27226
819.903	27062
820.043	27157
820.184	27055
820.324	27017
820.465	27024
820.605	27066
820.746	26967
820.886	26785
821.026	27039
821.167	27024
821.307	27043
821.447	26883
821.588	26735
821.728	26708
821.868	26438
822.008	26366
822.149	26374
822.289	26317
822.429	26157
822.569	26103
822.709	26103
822.849	25738
822.99	25909
823.13	25818
823.27	25723
823.41	25757
823.55	25723
823.69	25708
823.83	25712
823.97	25575
824.11	25449
824.25	25396
824.389	25441
824.529	25556
824.669	25502
824.809	25567
824.949	25540
825.089	25628
825.228	25441
825.368	25259
825.508	25438
825.648	25274
825.787	25289
825.927	25373
826.067	25202
826.206	25274
826.346	25339
826.485	25259
826.625	25217
826.765	25278
826.904	25270
827.044	25042
827.183	25213
827.323	24970
827.462	25069
827.601	25080
827.741	25057
827.88	25072
828.02	24909
828.159	25122
828.298	25065
828.437	24951
828.577	25008
828.716	25156
828.855	24878
828.994	24715
829.134	24757
829.273	24741
829.412	24589
829.551	24722
829.69	24798
829.829	24760
829.968	24791
830.107	24837
830.246	24730
830.385	24700
830.524	24673
830.663	24460
830.802	24456
830.941	24414
831.08	24171
831.219	24369
831.357	24467
831.496	24597
831.635	24334
831.774	24270
831.913	24251
832.051	24159
832.19	24106
832.329	24163
832.467	23988
832.606	23946
832.744	24041
832.883	24083
833.022	23912
833.16	24007
833.299	24121
833.437	24091
833.576	23980
833.714	24068
833.852	23999
833.991	24228
834.129	24114
834.267	24163
834.406	24053
834.544	24152
834.682	24133
834.821	23977
834.959	24254
835.097	23863
835.235	24018
835.373	24053
835.511	24057
835.65	23855
835.788	23977
835.926	23809
836.064	23661
836.202	23798
836.34	23832
836.478	23893
836.615	23908
836.753	23984
836.891	23984
837.029	23901
837.167	23840
837.305	23805
837.443	23794
837.58	23771
837.718	23828
837.856	23623
837.993	23608
838.131	23779
838.269	23611
838.406	23615
838.544	23543
838.681	23406
838.819	23391
838.956	23178
839.094	23147
839.231	23227
839.369	23402
839.506	23551
839.643	23463
839.781	23254
839.918	23048
840.055	23151
840.193	23235
840.33	23048
840.467	23147
840.604	23231
840.742	23250
840.879	22900
841.016	23044
841.153	22900
841.29	23105
841.427	23094
841.564	23094
841.701	23185
841.838	23151
841.975	22911
842.112	22896
842.249	22961
842.385	22850
842.522	23044
842.659	22965
842.796	22896
842.933	22927
843.069	22778
843.206	22729
843.343	22877
843.479	22782
843.616	22869
843.752	22664
843.889	22516
844.025	22679
844.162	22550
844.298	22740
844.435	22641
844.571	22611
844.708	22637
844.844	22869
844.98	22755
845.117	22740
845.253	22504
845.389	22455
845.525	22565
845.661	22413
845.798	22348
845.934	22379
846.07	22382
846.206	22432
846.342	22542
846.478	22303
846.614	22147
846.75	22032
846.886	22021
847.022	22101
847.158	22090
847.294	22074
847.429	22086
847.565	22086
847.701	22295
847.837	21812
847.972	21736
848.108	21850
848.244	21774
848.379	21656
848.515	21728
848.65	21622
848.786	21614
848.921	21606
849.057	21698
849.192	21819
849.328	21690
849.463	21675
849.598	21587
849.734	21549
849.869	21447
850.004	21454
850.14	21397
850.275	21382
850.41	21264
850.545	21325
850.68	21283
850.815	21412
850.95	21332
851.085	21576
851.22	21469
851.355	21393
851.49	21477
851.625	21424
851.76	21386
851.895	21184
852.03	21370
852.165	21397
852.299	21447
852.434	21530
852.569	21466
852.703	21287
852.838	21389
852.973	21557
853.107	21610
853.242	21393
853.376	21214
853.511	21169
853.645	21176
853.78	21306
853.914	21272
854.048	21245
854.183	21108
854.317	21176
854.451	21317
854.585	21272
854.72	21294
854.854	21336
854.988	21146
855.122	21287
855.256	21104
855.39	21142
855.524	21298
855.658	21321
855.792	21272
855.926	21233
856.06	21264
856.194	21302
856.327	21199
856.461	21203
856.595	21066
856.729	21127
856.862	21268
856.996	21291
857.13	21241
857.263	21230
857.397	21355
857.53	21104
857.664	21245
857.797	21367
857.931	21199
858.064	21218
858.197	21256
858.331	21192
858.464	21154
858.597	21104
858.731	21173
858.864	21138
858.997	21245
859.13	21218
859.263	21188
859.396	21306
859.529	21135
859.662	21096
859.795	21154
859.928	21195
860.061	21306
860.194	21382
860.327	21275
860.46	21199
860.592	21287
860.725	21302
860.858	21283
860.99	21260
861.123	21070
861.256	21077
861.388	21207
861.521	21739
861.653	21051
861.786	21017
861.918	21104
862.05	21013
862.183	21192
862.315	21211
862.447	21176
862.58	21157
862.712	20937
862.844	20849
862.976	20990
863.108	21074
863.24	21389
863.372	20887
863.504	20918
863.636	20876
863.768	20826
863.9	20914
864.032	20731
864.164	20853
864.296	20762
864.428	21001
864.559	20948
864.691	20963
864.823	20876
864.954	20937
865.086	20929
865.217	20792
865.349	20781
865.48	20857
865.612	20872
865.743	20842
865.875	20777
866.006	20849
866.137	20857
866.269	20800
866.4	20792
866.531	20769
866.662	20640
866.793	20735
866.924	20731
867.055	20758
867.186	20720
867.317	20701
867.448	20712
867.579	20590
867.71	20613
867.841	20621
867.972	20746
868.103	20636
868.233	20655
868.364	20716
868.495	20811
868.625	20998
868.756	21142
868.886	20880
869.017	20982
869.147	20986
869.278	21150
869.408	21036
869.539	20830
869.669	21024
869.799	21074
869.929	21211
870.06	21150
870.19	21264
870.32	21233
870.45	21348
870.58	21424
870.71	21374
870.84	21416
870.97	21439
871.1	21458
871.23	21488
871.36	21591
871.489	21374
871.619	21481
871.749	21576
871.879	21599
872.008	21724
872.138	21568
872.267	21488
872.397	21363
872.526	21416
872.656	21431
872.785	21431
872.915	21648
873.044	21724
873.173	21447
873.303	21553
873.432	21686
873.561	21614
873.69	21564
873.819	21568
873.948	21717
874.077	21629
874.206	21591
874.335	21519
874.464	21713
874.593	21899
874.722	21736
874.851	21808
874.979	21800
875.108	21861
875.237	21838
875.365	21739
875.494	21865
875.623	22059
875.751	21888
875.88	21736
876.008	21865
876.136	21987
876.265	22154
876.393	22394
876.521	22409
876.65	22230
876.778	22257
876.906	22093
877.034	22120
877.162	22139
877.29	22143
877.418	22105
877.546	22257
877.674	22105
877.802	22112
877.93	22154
878.058	22173
878.185	22135
878.313	22097
878.441	22158
878.568	22044
878.696	22116
878.824	22226
878.951	22261
879.079	22424
879.206	22512
879.333	22367
879.461	22318
879.588	22223
879.715	22337
879.842	22402
879.97	22181
880.097	22093
880.224	21987
880.351	22002
880.478	21975
880.605	21819
880.732	22044
880.859	22188
880.986	21949
881.112	21972
881.239	21899
881.366	21785
881.493	21629
881.619	21572
881.746	21526
881.872	21526
881.999	21519
882.125	21511
882.252	21572
882.378	21469
882.505	21690
882.631	21492
882.757	21279
882.883	21321
883.01	21310
883.136	21222
883.262	21211
883.388	21070
883.514	21279
883.64	21272
883.766	21096
883.892	21043
884.018	21180
884.143	21230
884.269	21222
884.395	21024
884.52	20857
884.646	20975
884.772	20796
884.897	20773
885.023	20887
885.148	21001
885.274	21051
885.399	20971
885.524	21005
885.65	20941
885.775	20906
885.9	20811
886.025	20952
886.15	20998
886.275	20842
886.4	20746
886.525	20815
886.65	20906
886.775	20826
886.9	21020
887.025	21028
887.149	20891
887.274	20743
887.399	20746
887.523	20644
887.648	20682
887.773	20651
887.897	20834
888.021	20781
888.146	20754
888.27	20762
888.395	20701
888.519	20644
888.643	20838
888.767	20731
888.891	20587
889.015	20434
889.139	20670
889.263	20412
889.387	20564
889.511	20731
889.635	20701
889.759	20393
889.883	20476
890.006	20473
890.13	20602
890.254	20511
890.377	20400
890.501	20111
890.624	20153
890.748	20218
890.871	20161
890.995	20092
891.118	19974
891.241	20024
891.364	20001
891.488	20130
891.611	20062
891.734	20020
891.857	20115
891.98	20020
892.103	20065
892.226	19967
892.349	19997
892.471	19788
892.594	20039
892.717	19986
892.839	19947
892.962	19982
893.085	20016
893.207	19906
893.33	19898
893.452	19791
893.575	19936
893.697	19799
893.819	20122
893.941	20138
894.064	20119
894.186	19906
894.308	19944
894.43	19909
894.552	20027
894.674	19959
894.796	19833
894.918	20016
895.04	19837
895.161	19978
895.283	19978
895.405	19875
895.526	20005
895.648	19951
895.769	20008
895.891	19940
896.012	20054
896.134	19940
896.255	20092
896.376	19864
896.498	19906
896.619	19974
896.74	19944
896.861	20058
896.982	20298
897.103	20355
897.224	20221
897.345	20199
897.466	20058
897.587	20191
897.708	20267
897.828	20130
897.949	20172
898.07	20046
898.19	20077
898.311	20206
898.431	19997
898.552	20027
898.672	20115
898.792	20202
898.913	20157
899.033	20012
899.153	19913
899.273	19928
899.393	19944
899.513	19970
899.633	19936
899.753	19932
899.873	19883
899.993	19982
900.113	19944
900.232	19750
900.352	19845
900.472	19765
900.591	19765
900.711	19674
900.83	19689
900.95	19894
901.069	19723
901.189	19670
901.308	19518
901.427	19320
901.546	19255
901.665	19312
901.784	19369
901.904	19110
902.023	19053
902.141	18833
902.26	18795
902.379	18787
902.498	18776
902.617	18696
902.735	18817
902.854	18726
902.973	18757
903.091	18464
903.21	18327
903.328	18494
903.446	18350
903.565	18220
903.683	18365
903.801	18117
903.919	18243
904.038	18110
904.156	18087
904.274	18136
904.392	18003
904.51	18041
904.627	17999
904.745	18091
904.863	18209
904.981	17847
905.098	17615
905.216	17707
905.334	17748
905.451	17665
905.569	17615
905.686	17756
905.803	17615
905.921	17467
906.038	17703
906.155	17478
906.272	17345
906.389	17379
906.506	17242
906.623	17254
906.74	17250
906.857	17140
906.974	17147
907.091	17242
907.208	17402
907.324	17246
907.441	17113
907.557	16984
907.674	17010
907.79	16885
907.907	16854
908.023	16904
908.139	16965
908.256	16938
908.372	16824
908.488	16786
908.604	16729
908.72	16694
908.836	16637
908.952	16565
909.068	16675
909.184	16710
909.3	16485
909.415	16664
909.531	16588
909.647	16413
909.762	16413
909.878	16314
909.993	16485
910.108	16363
910.224	16417
910.339	16310
910.454	16223
910.57	16234
910.685	16120
910.8	16436
910.915	16363
911.03	16223
911.145	16093
911.259	15926
911.374	15972
911.489	15888
911.604	15823
911.718	15622
911.833	15686
911.947	15496
912.062	15439
912.176	15743
912.291	15694
912.405	15511
912.519	15797
912.633	15751
912.748	15682
912.862	15629
912.976	15500
913.09	15481
913.204	15625
913.318	15614
913.431	15694
913.545	15500
913.659	15500
913.772	15469
913.886	15340
914	15332
914.113	15462
914.226	15336
914.34	15382
914.453	15192
914.566	15386
914.68	15138
914.793	15195
914.906	14975
915.019	14956
915.132	14902
915.245	14842
915.358	14994
915.47	14929
915.583	14998
915.696	14979
915.809	15024
915.921	15001
916.034	14895
916.146	14807
916.259	14724
916.371	14956
916.483	14902
916.595	14800
916.708	14746
916.82	14750
916.932	14724
917.044	14826
917.156	14625
917.268	14465
917.38	14663
917.491	14499
917.603	14636
917.715	14629
917.826	14640
917.938	14583
918.049	14427
918.161	14526
918.272	14587
918.384	14560
918.495	14450
918.606	14362
918.717	14377
918.828	14358
918.939	14412
919.05	14221
919.161	14305
919.272	14126
919.383	14123
919.494	14370
919.604	14610
919.715	14332
919.826	14221
919.936	14252
920.047	14366
920.157	14355
920.267	14476
920.378	14347
920.488	14328
920.598	14530
920.708	14526
920.818	14339
920.928	14358
921.038	14571
921.148	14488
921.258	14263
921.368	14176
921.477	14077
921.587	14096
921.697	13913
921.806	14107
921.916	13921
922.025	13757
922.134	13734
922.244	13658
922.353	13727
922.462	13480
922.571	13468
922.68	13377
922.789	13327
922.898	13293
923.007	13175
923.116	13339
923.224	13373
923.333	13232
923.442	13240
923.55	13156
923.659	13209
923.767	13232
923.876	13084
923.984	13225
924.092	13118
924.201	13000
924.309	13053
924.417	13034
924.525	12951
924.633	13057
924.741	13715
924.849	12867
924.956	12935
925.064	12772
925.172	12654
925.279	12692
925.387	12798
925.494	12791
925.602	12886
925.709	12806
925.816	12673
925.924	12711
926.031	12757
926.138	12608
926.245	12711
926.352	12673
926.459	12791
926.566	12696
926.673	12563
926.779	12460
926.886	12502
926.993	12456
927.099	12350
927.206	12334
927.312	12224
927.419	12327
927.525	12403
927.631	12334
927.737	12163
927.843	12178
927.95	12095
928.056	12178
928.162	12152
928.267	12266
928.373	12871
928.479	12224
928.585	11984
928.69	12159
928.796	12102
928.901	11984
929.007	11958
929.112	11942
929.218	11954
929.323	11893
929.428	11809
929.533	12072
929.638	11783
929.743	11836
929.848	11927
929.953	11828
930.058	11653
930.163	11581
930.267	11570
930.372	11695
930.477	11558
930.581	11760
930.685	11627
930.79	11414
930.894	11455
930.998	11440
931.103	11581
931.207	11155
931.311	11067
931.415	11124
931.519	10809
931.623	10896
