Data from test_V78500241_1826.txt Node
Date: Fri Mar 25 15:22:34 CST 2022
User: usil
Spectrometer: V785-0024
Trigger mode: 0
Integration Time (sec): 4.000000E-1
Scans to average: 1
Nonlinearity correction enabled: false
Boxcar width: 0
Storing dark spectrum: false
XAxis mode: Wavelengths
Number of Pixels in Spectrum: 1024
>>>>>Begin Spectral Data<<<<<
801.071	27914
801.214	27717
801.356	27469
801.499	27526
801.641	27302
801.783	27279
801.926	27386
802.068	27386
802.211	27260
802.353	27222
802.496	27131
802.638	27043
802.78	27036
802.923	26967
803.065	26918
803.208	26796
803.35	27074
803.492	27150
803.635	27055
803.777	26975
803.919	27226
804.061	27450
804.204	27279
804.346	27108
804.488	27351
804.63	27218
804.773	27135
804.915	27199
805.057	27287
805.199	27329
805.341	27294
805.483	27332
805.626	27348
805.768	27264
805.91	27325
806.052	27348
806.194	27310
806.336	27625
806.478	27359
806.62	27317
806.762	27568
806.904	27679
807.046	27953
807.188	27789
807.33	27713
807.472	27804
807.614	27561
807.756	27694
807.898	27591
808.04	27641
808.182	27603
808.324	27720
808.465	27709
808.607	27914
808.749	28074
808.891	28048
809.033	28158
809.174	28101
809.316	27888
809.458	27979
809.6	27895
809.741	28280
809.883	28097
810.025	28192
810.166	28295
810.308	28204
810.45	28295
810.591	28093
810.733	28029
810.875	28040
811.016	27880
811.158	27747
811.299	28090
811.441	28067
811.582	27888
811.724	27895
811.865	27911
812.007	27918
812.148	27846
812.29	28032
812.431	28230
812.573	28401
812.714	28413
812.855	28398
812.997	28542
813.138	28740
813.279	28611
813.421	28508
813.562	28363
813.703	28234
813.845	28200
813.986	27945
814.127	27892
814.268	27759
814.41	27865
814.551	27633
814.692	27850
814.833	27587
814.974	27629
815.115	27717
815.256	27523
815.397	27603
815.539	27458
815.68	27363
815.821	27454
815.962	27564
816.103	27351
816.244	27351
816.385	27283
816.526	27264
816.666	27032
816.807	26960
816.948	27081
817.089	27184
817.23	26906
817.371	26952
817.512	27070
817.653	26948
817.793	26971
817.934	26994
818.075	26872
818.216	27066
818.356	26914
818.497	26644
818.638	26724
818.778	26701
818.919	26708
819.06	26952
819.2	26765
819.341	26880
819.481	26861
819.622	27009
819.762	27294
819.903	27268
820.043	27195
820.184	27085
820.324	27013
820.465	27100
820.605	27108
820.746	27055
820.886	27074
821.026	27020
821.167	27093
821.307	27150
821.447	27058
821.588	27036
821.728	26765
821.868	26503
822.008	26484
822.149	26453
822.289	26514
822.429	26153
822.569	26157
822.709	26294
822.849	25970
822.99	26058
823.13	25932
823.27	25830
823.41	25860
823.55	25605
823.69	25715
823.83	25894
823.97	25818
824.11	25597
824.25	25464
824.389	25518
824.529	25681
824.669	25628
824.809	25655
824.949	25712
825.089	25658
825.228	25616
825.368	25556
825.508	25487
825.648	25601
825.787	25495
825.927	25468
826.067	25350
826.206	25571
826.346	25662
826.485	25407
826.625	25468
826.765	25632
826.904	25422
827.044	25354
827.183	25255
827.323	25263
827.462	25381
827.601	25316
827.741	25217
827.88	25316
828.02	25061
828.159	25145
828.298	25088
828.437	25346
828.577	25038
828.716	25251
828.855	25168
828.994	24890
829.134	24970
829.273	24821
829.412	24760
829.551	24909
829.69	25042
829.829	25031
829.968	24943
830.107	25053
830.246	25004
830.385	24810
830.524	24741
830.663	24764
830.802	24589
830.941	24555
831.08	24471
831.219	24471
831.357	24612
831.496	24703
831.635	24547
831.774	24369
831.913	24346
832.051	24410
832.19	24281
832.329	24308
832.467	24235
832.606	24136
832.744	24152
832.883	24308
833.022	24167
833.16	24068
833.299	24285
833.437	24277
833.576	24178
833.714	24270
833.852	24220
833.991	24296
834.129	24376
834.267	24365
834.406	24152
834.544	24235
834.682	24186
834.821	24194
834.959	24414
835.097	24372
835.235	24323
835.373	24121
835.511	24391
835.65	24159
835.788	24015
835.926	23988
836.064	23794
836.202	24003
836.34	24003
836.478	24235
836.615	24140
836.753	24026
836.891	24159
837.029	24064
837.167	24079
837.305	23984
837.443	23931
837.58	23939
837.718	23969
837.856	23904
837.993	23931
838.131	23958
838.269	23878
838.406	23821
838.544	23767
838.681	23687
838.819	23531
838.956	23455
839.094	23429
839.231	23452
839.369	23535
839.506	23729
839.643	23638
839.781	23524
839.918	23440
840.055	23356
840.193	23391
840.33	23296
840.467	23242
840.604	23330
840.742	23608
840.879	23311
841.016	23315
841.153	23197
841.29	23436
841.427	23258
841.564	23334
841.701	23436
841.838	23292
841.975	23197
842.112	23216
842.249	23128
842.385	23147
842.522	23246
842.659	23189
842.796	23071
842.933	23060
843.069	23128
843.206	23064
843.343	23117
843.479	23296
843.616	23056
843.752	22889
843.889	22942
844.025	23052
844.162	22927
844.298	23052
844.435	22828
844.571	22778
844.708	22919
844.844	23010
844.98	22938
845.117	22995
845.253	22812
845.389	22771
845.525	22831
845.661	22729
845.798	22535
845.934	22546
846.07	22569
846.206	22588
846.342	22713
846.478	22546
846.614	22428
846.75	22257
846.886	22352
847.022	22493
847.158	22371
847.294	22405
847.429	22402
847.565	22230
847.701	22653
847.837	22109
847.972	22029
848.108	22234
848.244	22158
848.379	22021
848.515	21850
848.65	21869
848.786	21937
848.921	21983
849.057	22029
849.192	22036
849.328	21949
849.463	21979
849.598	21907
849.734	21816
849.869	21762
850.004	21827
850.14	21633
850.275	21644
850.41	21717
850.545	21564
850.68	21580
850.815	21800
850.95	21682
851.085	21812
851.22	21717
851.355	21549
851.49	21549
851.625	21698
851.76	21732
851.895	21481
852.03	21557
852.165	21759
852.299	21804
852.434	21781
852.569	21663
852.703	21675
852.838	21705
852.973	21816
853.107	21941
853.242	21568
853.376	21606
853.511	21496
853.645	21431
853.78	21667
853.914	21542
854.048	21564
854.183	21462
854.317	21523
854.451	21751
854.585	21591
854.72	21473
854.854	21675
854.988	21408
855.122	21439
855.256	21454
855.39	21443
855.524	21530
855.658	21526
855.792	21473
855.926	21481
856.06	21538
856.194	21625
856.327	21469
856.461	21496
856.595	21500
856.729	21477
856.862	21564
856.996	21603
857.13	21603
857.263	21591
857.397	21603
857.53	21526
857.664	21450
857.797	21553
857.931	21618
858.064	21545
858.197	21652
858.331	21412
858.464	21416
858.597	21439
858.731	21473
858.864	21538
858.997	21416
859.13	21519
859.263	21526
859.396	21572
859.529	21545
859.662	21435
859.795	21477
859.928	21572
860.061	21667
860.194	21720
860.327	21515
860.46	21488
860.592	21660
860.725	21656
860.858	21534
860.99	21553
861.123	21549
861.256	21485
861.388	21435
861.521	22215
861.653	21302
861.786	21310
861.918	21268
862.05	21454
862.183	21481
862.315	21412
862.447	21447
862.58	21428
862.712	21313
862.844	21165
862.976	21291
863.108	21321
863.24	21656
863.372	21123
863.504	21249
863.636	21203
863.768	21226
863.9	21241
864.032	21066
864.164	21203
864.296	21188
864.428	21447
864.559	21256
864.691	21230
864.823	21150
864.954	21302
865.086	21176
865.217	21032
865.349	21093
865.48	21218
865.612	21154
865.743	21416
865.875	21051
866.006	21142
866.137	21256
866.269	21161
866.4	21043
866.531	21138
866.662	20998
866.793	21074
866.924	20971
867.055	21135
867.186	21108
867.317	21142
867.448	20960
867.579	21055
867.71	20975
867.841	20986
867.972	21070
868.103	20960
868.233	21020
868.364	21066
868.495	21100
868.625	21241
868.756	21294
868.886	21306
869.017	21294
869.147	21275
869.278	21241
869.408	21431
869.539	21283
869.669	21405
869.799	21279
869.929	21507
870.06	21393
870.19	21549
870.32	21500
870.45	21568
870.58	21591
870.71	21694
870.84	21694
870.97	21667
871.1	21724
871.23	21713
871.36	21766
871.489	21793
871.619	21816
871.749	21895
871.879	21979
872.008	21873
872.138	21770
872.267	21964
872.397	21831
872.526	21690
872.656	21663
872.785	21831
872.915	21907
873.044	22021
873.173	21835
873.303	21949
873.432	21979
873.561	22051
873.69	21926
873.819	21808
873.948	21922
874.077	21926
874.206	21899
874.335	21850
874.464	21968
874.593	22162
874.722	22139
874.851	22173
874.979	22181
875.108	22188
875.237	22131
875.365	22059
875.494	22097
875.623	22215
875.751	22150
875.88	22120
876.008	22333
876.136	22466
876.265	22554
876.393	22664
876.521	22546
876.65	22607
876.778	22531
876.906	22424
877.034	22428
877.162	22470
877.29	22470
877.418	22531
877.546	22603
877.674	22519
877.802	22626
877.93	22409
878.058	22341
878.185	22337
878.313	22341
878.441	22497
878.568	22329
878.696	22417
878.824	22379
878.951	22504
879.079	22569
879.206	22736
879.333	22577
879.461	22440
879.588	22523
879.715	22717
879.842	22725
879.97	22493
880.097	22363
880.224	22265
880.351	22249
880.478	22287
880.605	22295
880.732	22356
880.859	22462
880.986	22268
881.112	22299
881.239	22325
881.366	22059
881.493	21953
881.619	21865
881.746	21797
881.872	21956
881.999	21785
882.125	21770
882.252	21998
882.378	21789
882.505	21930
882.631	21641
882.757	21633
882.883	21701
883.01	21496
883.136	21603
883.262	21526
883.388	21450
883.514	21481
883.64	21523
883.766	21443
883.892	21272
884.018	21408
884.143	21500
884.269	21663
884.395	21408
884.52	21123
884.646	21203
884.772	21203
884.897	21161
885.023	21268
885.148	21367
885.274	21237
885.399	21195
885.524	21146
885.65	21157
885.775	21252
885.9	21150
886.025	21374
886.15	21294
886.275	21310
886.4	21074
886.525	21287
886.65	21017
886.775	21165
886.9	21218
887.025	21412
887.149	21100
887.274	21036
887.399	20880
887.523	20952
887.648	20899
887.773	20845
887.897	20948
888.021	21100
888.146	21062
888.27	20944
888.395	21066
888.519	21005
888.643	21043
888.767	20948
888.891	20933
889.015	20796
889.139	20918
889.263	20727
889.387	20769
889.511	20925
889.635	20891
889.759	20716
889.883	20826
890.006	20800
890.13	20895
890.254	20750
890.377	20663
890.501	20499
890.624	20336
890.748	20556
890.871	20377
890.995	20290
891.118	20267
891.241	20355
891.364	20355
891.488	20465
891.611	20305
891.734	20351
891.857	20343
891.98	20317
892.103	20271
892.226	20339
892.349	20252
892.471	20130
892.594	20126
892.717	20309
892.839	20191
892.962	20225
893.085	20256
893.207	20324
893.33	20244
893.452	20195
893.575	20317
893.697	20317
893.819	20389
893.941	20286
894.064	20221
894.186	20168
894.308	20214
894.43	20282
894.552	20332
894.674	20282
894.796	20187
894.918	20210
895.04	20168
895.161	20336
895.283	20263
895.405	20050
895.526	20214
895.648	20240
895.769	20294
895.891	20275
896.012	20309
896.134	20320
896.255	20073
896.376	20168
896.498	20214
896.619	20229
896.74	20199
896.861	20286
896.982	20480
897.103	20609
897.224	20571
897.345	20328
897.466	20282
897.587	20454
897.708	20514
897.828	20495
897.949	20286
898.07	20336
898.19	20370
898.311	20351
898.431	20438
898.552	20434
898.672	20427
898.792	20492
898.913	20385
899.033	20347
899.153	20161
899.273	20195
899.393	20221
899.513	20244
899.633	20100
899.753	20206
899.873	20161
899.993	20180
900.113	20130
900.232	20077
900.352	20142
900.472	19997
900.591	19860
900.711	20016
900.83	19909
900.95	19940
901.069	20050
901.189	19830
901.308	19540
901.427	19476
901.546	19525
901.665	19518
901.784	19502
901.904	19396
902.023	19209
902.141	19145
902.26	19065
902.379	19057
902.498	18981
902.617	19004
902.735	19141
902.854	19084
902.973	18943
903.091	18757
903.21	18700
903.328	18688
903.446	18593
903.565	18551
903.683	18536
903.801	18338
903.919	18483
904.038	18418
904.156	18323
904.274	18391
904.392	18277
904.51	18163
904.627	18330
904.745	18369
904.863	18292
904.981	18091
905.098	18076
905.216	17984
905.334	18064
905.451	17946
905.569	17855
905.686	18034
905.803	17939
905.921	17729
906.038	17859
906.155	17824
906.272	17695
906.389	17623
906.506	17547
906.623	17486
906.74	17433
906.857	17379
906.974	17429
907.091	17528
907.208	17630
907.324	17554
907.441	17345
907.557	17193
907.674	17273
907.79	17170
907.907	17200
908.023	17273
908.139	17254
908.256	17170
908.372	17098
908.488	17060
908.604	16968
908.72	16942
908.836	16965
908.952	16812
909.068	16828
909.184	16965
909.3	16953
909.415	17003
909.531	16873
909.647	16588
909.762	16645
909.878	16615
909.993	16679
910.108	16607
910.224	16626
910.339	16691
910.454	16504
910.57	16413
910.685	16386
910.8	16649
910.915	16542
911.03	16455
911.145	16207
911.259	16246
911.374	16242
911.489	16200
911.604	16090
911.718	15861
911.833	15911
911.947	15979
912.062	15804
912.176	15911
912.291	15926
912.405	16032
912.519	16082
912.633	16082
912.748	16017
912.862	15926
912.976	15884
913.09	15667
913.204	15759
913.318	15747
913.431	16032
913.545	15823
913.659	15949
913.772	15679
913.886	15732
914	15530
914.113	15717
914.226	15625
914.34	15637
914.453	15363
914.566	15530
914.68	15496
914.793	15412
914.906	15283
915.019	15089
915.132	15135
915.245	15165
915.358	15165
915.47	15192
915.583	15222
915.696	15233
915.809	15279
915.921	15237
916.034	15089
916.146	15112
916.259	15058
916.371	15161
916.483	15135
916.595	15058
916.708	15150
916.82	14982
916.932	14990
917.044	15020
917.156	14921
917.268	14880
917.38	14792
917.491	14792
917.603	14754
917.715	14895
917.826	14952
917.938	14758
918.049	14731
918.161	14762
918.272	14769
918.384	14826
918.495	14800
918.606	14632
918.717	14530
918.828	14667
918.939	14613
919.05	14522
919.161	14480
919.272	14415
919.383	14492
919.494	14571
919.604	14800
919.715	14564
919.826	14423
919.936	14587
920.047	14648
920.157	14541
920.267	14735
920.378	14640
920.488	14465
920.598	14712
920.708	14815
920.818	14731
920.928	14735
921.038	14792
921.148	14826
921.258	14625
921.368	14396
921.477	14332
921.587	14343
921.697	14073
921.806	14301
921.916	14069
922.025	14046
922.134	13928
922.244	13951
922.353	13902
922.462	13784
922.571	13799
922.68	13540
922.789	13639
922.898	13605
923.007	13449
923.116	13643
923.224	13483
923.333	13563
923.442	13335
923.55	13441
923.659	13464
923.767	13487
923.876	13441
923.984	13426
924.092	13278
924.201	13285
924.309	13343
924.417	13365
924.525	13221
924.633	13278
924.741	14259
924.849	13031
924.956	13137
925.064	13065
925.172	12958
925.279	12977
925.387	13099
925.494	12958
925.602	13057
925.709	13000
925.816	12844
925.924	12935
926.031	13034
926.138	12924
926.245	12970
926.352	12863
926.459	13008
926.566	13023
926.673	12856
926.779	12768
926.886	12764
926.993	12555
927.099	12544
927.206	12502
927.312	12528
927.419	12547
927.525	12582
927.631	12623
927.737	12475
927.843	12410
927.95	12346
928.056	12376
928.162	12384
928.267	12380
928.373	13107
928.479	12429
928.585	12216
928.69	12327
928.796	12460
928.901	12247
929.007	12098
929.112	12285
929.218	12232
929.323	12136
929.428	12072
929.533	12144
929.638	12007
929.743	11961
929.848	12057
929.953	12030
930.058	11946
930.163	11866
930.267	11790
930.372	11942
930.477	11707
930.581	12007
930.685	11840
930.79	11611
930.894	11733
930.998	11615
931.103	11756
931.207	11417
931.311	11334
931.415	11311
931.519	11086
931.623	11041
