Data from test_V78500241_117.txt Node
Date: Fri Mar 25 15:10:40 CST 2022
User: usil
Spectrometer: V785-0024
Trigger mode: 0
Integration Time (sec): 4.000000E-1
Scans to average: 1
Nonlinearity correction enabled: false
Boxcar width: 0
Storing dark spectrum: false
XAxis mode: Wavelengths
Number of Pixels in Spectrum: 1024
>>>>>Begin Spectral Data<<<<<
801.071	28040
801.214	28013
801.356	27610
801.499	27812
801.641	27568
801.783	27462
801.926	27656
802.068	27431
802.211	27306
802.353	27325
802.496	27329
802.638	27195
802.78	27294
802.923	26891
803.065	26895
803.208	27001
803.35	27154
803.492	27313
803.635	27351
803.777	27226
803.919	27275
804.061	27644
804.204	27176
804.346	27005
804.488	27249
804.63	27226
804.773	27013
804.915	27313
805.057	27207
805.199	27252
805.341	27302
805.483	27329
805.626	27355
805.768	27154
805.91	27199
806.052	27222
806.194	27176
806.336	27348
806.478	27237
806.62	27348
806.762	27370
806.904	27473
807.046	27827
807.188	27656
807.33	27663
807.472	27679
807.614	27580
807.756	27610
807.898	27397
808.04	27397
808.182	27469
808.324	27412
808.465	27557
808.607	27652
808.749	27774
808.891	27736
809.033	27770
809.174	27816
809.316	27736
809.458	27720
809.6	27770
809.741	27949
809.883	27743
810.025	28070
810.166	27979
810.308	27937
810.45	27930
810.591	27876
810.733	27751
810.875	27663
811.016	27679
811.158	27591
811.299	27850
811.441	27895
811.582	27701
811.724	27751
811.865	27747
812.007	27743
812.148	27660
812.29	27724
812.431	28067
812.573	28078
812.714	28040
812.855	28196
812.997	28261
813.138	28234
813.279	28360
813.421	28207
813.562	28135
813.703	27964
813.845	27880
813.986	27557
814.127	27496
814.268	27233
814.41	27378
814.551	27302
814.692	27332
814.833	27211
814.974	27275
815.115	27408
815.256	27199
815.397	27195
815.539	27165
815.68	27036
815.821	27146
815.962	27070
816.103	27112
816.244	26929
816.385	26788
816.526	26804
816.666	26724
816.807	26457
816.948	26579
817.089	26663
817.23	26492
817.371	26476
817.512	26427
817.653	26404
817.793	26450
817.934	26492
818.075	26358
818.216	26587
818.356	26351
818.497	26370
818.638	26199
818.778	26130
818.919	26225
819.06	26065
819.2	26256
819.341	26431
819.481	26324
819.622	26480
819.762	26788
819.903	26564
820.043	26545
820.184	26503
820.324	26343
820.465	26492
820.605	26461
820.746	26351
820.886	26282
821.026	26473
821.167	26419
821.307	26499
821.447	26339
821.588	26278
821.728	26195
821.868	26020
822.008	25742
822.149	25761
822.289	25906
822.429	25613
822.569	25453
822.709	25521
822.849	25320
822.99	25244
823.13	25217
823.27	25373
823.41	25057
823.55	24962
823.69	25160
823.83	25179
823.97	25126
824.11	24844
824.25	24901
824.389	24776
824.529	24840
824.669	24867
824.809	24973
824.949	24943
825.089	24932
825.228	24939
825.368	24776
825.508	24768
825.648	24734
825.787	24688
825.927	24802
826.067	24547
826.206	24738
826.346	24677
826.485	24802
826.625	24677
826.765	24867
826.904	24753
827.044	24296
827.183	24456
827.323	24414
827.462	24483
827.601	24338
827.741	24403
827.88	24315
828.02	24254
828.159	24388
828.298	24285
828.437	24521
828.577	24277
828.716	24467
828.855	24201
828.994	24155
829.134	24064
829.273	24072
829.412	23939
829.551	23946
829.69	23950
829.829	24026
829.968	24121
830.107	24205
830.246	24079
830.385	23847
830.524	23882
830.663	23718
830.802	23592
830.941	23596
831.08	23592
831.219	23741
831.357	23657
831.496	23809
831.635	23570
831.774	23444
831.913	23509
832.051	23349
832.19	23410
832.329	23318
832.467	23322
832.606	23155
832.744	23197
832.883	23254
833.022	23334
833.16	23159
833.299	23315
833.437	23353
833.576	23353
833.714	23258
833.852	23311
833.991	23326
834.129	23459
834.267	23364
834.406	23311
834.544	23349
834.682	23315
834.821	23296
834.959	23425
835.097	23102
835.235	23368
835.373	23204
835.511	23231
835.65	22976
835.788	23090
835.926	22889
836.064	22881
836.202	22957
836.34	22987
836.478	23212
836.615	23037
836.753	23102
836.891	23151
837.029	23113
837.167	22896
837.305	22984
837.443	22961
837.58	22881
837.718	23071
837.856	22976
837.993	22885
838.131	22889
838.269	22797
838.406	22892
838.544	22683
838.681	22561
838.819	22535
838.956	22421
839.094	22405
839.231	22329
839.369	22535
839.506	22778
839.643	22497
839.781	22417
839.918	22268
840.055	22261
840.193	22226
840.33	22421
840.467	22284
840.604	22379
840.742	22790
840.879	22150
841.016	22181
841.153	22154
841.29	22371
841.427	22261
841.564	22261
841.701	22284
841.838	22234
841.975	22177
842.112	22158
842.249	22036
842.385	21983
842.522	22128
842.659	21949
842.796	21926
842.933	22017
843.069	21915
843.206	21888
843.343	21994
843.479	21899
843.616	21922
843.752	21941
843.889	21705
844.025	21785
844.162	21751
844.298	21888
844.435	21618
844.571	21644
844.708	21785
844.844	21869
844.98	21888
845.117	21876
845.253	21656
845.389	21504
845.525	21564
845.661	21580
845.798	21405
845.934	21435
846.07	21439
846.206	21443
846.342	21450
846.478	21435
846.614	21264
846.75	21043
846.886	21077
847.022	21127
847.158	21146
847.294	21096
847.429	21169
847.565	21165
847.701	21367
847.837	20807
847.972	20895
848.108	20986
848.244	20895
848.379	20739
848.515	20731
848.65	20670
848.786	20788
848.921	20800
849.057	20861
849.192	20765
849.328	20655
849.463	20693
849.598	20826
849.734	20663
849.869	20617
850.004	20522
850.14	20518
850.275	20568
850.41	20358
850.545	20377
850.68	20465
850.815	20438
850.95	20499
851.085	20762
851.22	20488
851.355	20503
851.49	20343
851.625	20438
851.76	20370
851.895	20278
852.03	20347
852.165	20290
852.299	20560
852.434	20454
852.569	20533
852.703	20393
852.838	20480
852.973	20613
853.107	20594
853.242	20408
853.376	20305
853.511	20210
853.645	20286
853.78	20442
853.914	20393
854.048	20199
854.183	20218
854.317	20301
854.451	20332
854.585	20214
854.72	20180
854.854	20374
854.988	20221
855.122	20313
855.256	20149
855.39	20206
855.524	20355
855.658	20294
855.792	20237
855.926	20225
856.06	20256
856.194	20343
856.327	20195
856.461	20214
856.595	20153
856.729	20282
856.862	20381
856.996	20244
857.13	20259
857.263	20366
857.397	20263
857.53	20320
857.664	20309
857.797	20298
857.931	20396
858.064	20259
858.197	20370
858.331	20301
858.464	20214
858.597	20088
858.731	20229
858.864	20191
858.997	20183
859.13	20275
859.263	20244
859.396	20347
859.529	20069
859.662	20153
859.795	20191
859.928	20259
860.061	20278
860.194	20290
860.327	20256
860.46	20176
860.592	20400
860.725	20374
860.858	20446
860.99	20214
861.123	20130
861.256	20145
861.388	20103
861.521	20838
861.653	20142
861.786	20035
861.918	20088
862.05	20206
862.183	20149
862.315	20278
862.447	20256
862.58	20301
862.712	19887
862.844	19947
862.976	19936
863.108	20058
863.24	20423
863.372	19917
863.504	19913
863.636	19951
863.768	19845
863.9	19887
864.032	19731
864.164	19894
864.296	19940
864.428	20092
864.559	19875
864.691	19906
864.823	19898
864.954	19940
865.086	19906
865.217	19814
865.349	19761
865.48	19681
865.612	19936
865.743	19955
865.875	19871
866.006	19780
866.137	19776
866.269	19875
866.4	19883
866.531	19715
866.662	19807
866.793	19864
866.924	19765
867.055	19772
867.186	19719
867.317	19837
867.448	19693
867.579	19662
867.71	19704
867.841	19601
867.972	19742
868.103	19750
868.233	19712
868.364	19708
868.495	19917
868.625	19894
868.756	20073
868.886	19826
869.017	20043
869.147	20050
869.278	20005
869.408	20058
869.539	19928
869.669	20157
869.799	20027
869.929	20031
870.06	20001
870.19	20377
870.32	20271
870.45	20320
870.58	20423
870.71	20488
870.84	20484
870.97	20457
871.1	20450
871.23	20488
871.36	20541
871.489	20412
871.619	20537
871.749	20590
871.879	20625
872.008	20629
872.138	20594
872.267	20587
872.397	20526
872.526	20396
872.656	20423
872.785	20366
872.915	20594
873.044	20754
873.173	20537
873.303	20511
873.432	20640
873.561	20693
873.69	20579
873.819	20385
873.948	20670
874.077	20598
874.206	20640
874.335	20746
874.464	20670
874.593	20845
874.722	20788
874.851	20842
874.979	20804
875.108	20872
875.237	20876
875.365	20792
875.494	20819
875.623	20979
875.751	20853
875.88	20807
876.008	20819
876.136	21066
876.265	21401
876.393	21389
876.521	21291
876.65	21332
876.778	21268
876.906	21180
877.034	21173
877.162	21230
877.29	21199
877.418	21359
877.546	21313
877.674	21321
877.802	21218
877.93	21275
878.058	21116
878.185	21146
878.313	21176
878.441	21184
878.568	21028
878.696	21085
878.824	21260
878.951	21298
879.079	21466
879.206	21469
879.333	21370
879.461	21279
879.588	21348
879.715	21488
879.842	21526
879.97	21321
880.097	20998
880.224	21116
880.351	21055
880.478	21066
880.605	21017
880.732	21093
880.859	21279
880.986	21020
881.112	21108
881.239	21005
881.366	20944
881.493	20746
881.619	20625
881.746	20720
881.872	20602
881.999	20640
882.125	20480
882.252	20693
882.378	20697
882.505	20785
882.631	20598
882.757	20549
882.883	20495
883.01	20355
883.136	20377
883.262	20294
883.388	20244
883.514	20377
883.64	20404
883.766	20450
883.892	20180
884.018	20256
884.143	20328
884.269	20457
884.395	20115
884.52	20069
884.646	20157
884.772	20081
884.897	20050
885.023	20100
885.148	20225
885.274	20187
885.399	20111
885.524	20020
885.65	20058
885.775	20092
885.9	20142
886.025	20168
886.15	20092
886.275	19932
886.4	19913
886.525	19974
886.65	20012
886.775	19860
886.9	20084
887.025	20271
887.149	19963
887.274	19750
887.399	19849
887.523	19822
887.648	19719
887.773	19658
887.897	19807
888.021	19830
888.146	19670
888.27	19833
888.395	19902
888.519	19757
888.643	19909
888.767	19864
888.891	19769
889.015	19559
889.139	19689
889.263	19521
889.387	19731
889.511	19860
889.635	19719
889.759	19502
889.883	19712
890.006	19525
890.13	19635
890.254	19567
890.377	19320
890.501	19335
890.624	19259
890.748	19400
890.871	19274
890.995	19171
891.118	19137
891.241	19183
891.364	19213
891.488	19247
891.611	19145
891.734	19183
891.857	19373
891.98	19289
892.103	19324
892.226	19202
892.349	19156
892.471	18970
892.594	19107
892.717	19175
892.839	19133
892.962	19103
893.085	19141
893.207	19118
893.33	18962
893.452	19000
893.575	19179
893.697	19008
893.819	19202
893.941	19240
894.064	19221
894.186	19057
894.308	19046
894.43	19213
894.552	19213
894.674	19133
894.796	18993
894.918	19065
895.04	19118
895.161	19274
895.283	19053
895.405	19141
895.526	18996
895.648	19084
895.769	19175
895.891	19137
896.012	19168
896.134	19179
896.255	19126
896.376	19088
896.498	19187
896.619	19240
896.74	19095
896.861	19217
896.982	19594
897.103	19616
897.224	19419
897.345	19407
897.466	19362
897.587	19487
897.708	19499
897.828	19480
897.949	19388
898.07	19175
898.19	19335
898.311	19460
898.431	19232
898.552	19381
898.672	19388
898.792	19434
898.913	19202
899.033	19365
899.153	19183
899.273	19069
899.393	19053
899.513	19145
899.633	19152
899.753	19156
899.873	19046
899.993	19225
900.113	19122
900.232	19183
900.352	18981
900.472	18920
900.591	18829
900.711	19004
900.83	18856
900.95	18947
901.069	18993
901.189	18916
901.308	18631
901.427	18410
901.546	18521
901.665	18551
901.784	18414
901.904	18327
902.023	18220
902.141	18030
902.26	17961
902.379	18057
902.498	18022
902.617	17954
902.735	17980
902.854	17893
902.973	17939
903.091	17756
903.21	17619
903.328	17577
903.446	17524
903.565	17463
903.683	17444
903.801	17455
903.919	17501
904.038	17482
904.156	17318
904.274	17299
904.392	17288
904.51	17200
904.627	17250
904.745	17292
904.863	17345
904.981	17056
905.098	16949
905.216	16892
905.334	17006
905.451	16934
905.569	16854
905.686	17006
905.803	16934
905.921	16607
906.038	16835
906.155	16702
906.272	16679
906.389	16702
906.506	16500
906.623	16527
906.74	16516
906.857	16386
906.974	16470
907.091	16485
907.208	16592
907.324	16459
907.441	16322
907.557	16238
907.674	16196
907.79	16147
907.907	16128
908.023	16139
908.139	16181
908.256	16040
908.372	16143
908.488	16044
908.604	15918
908.72	15804
908.836	15854
908.952	15816
909.068	15926
909.184	15907
909.3	15819
909.415	15880
909.531	15797
909.647	15549
909.762	15511
909.878	15591
909.993	15530
910.108	15584
910.224	15576
910.339	15633
910.454	15469
910.57	15435
910.685	15359
910.8	15530
910.915	15485
911.03	15363
911.145	15192
911.259	15142
911.374	15081
911.489	15146
911.604	15036
911.718	15036
911.833	14967
911.947	14887
912.062	14644
912.176	14906
912.291	14876
912.405	14956
912.519	15043
912.633	15039
912.748	14902
912.862	14891
912.976	14727
913.09	14579
913.204	14686
913.318	14823
913.431	14800
913.545	14792
913.659	14880
913.772	14686
913.886	14667
914	14560
914.113	14651
914.226	14629
914.34	14533
914.453	14473
914.566	14674
914.68	14427
914.793	14328
914.906	14225
915.019	14195
915.132	14202
915.245	14259
915.358	14256
915.47	14278
915.583	14267
915.696	14313
915.809	14393
915.921	14404
916.034	14195
916.146	14145
916.259	13993
916.371	14164
916.483	14088
916.595	13986
916.708	14016
916.82	13982
916.932	14035
917.044	14001
917.156	14035
917.268	13860
917.38	13868
917.491	13887
917.603	13860
917.715	13928
917.826	13894
917.938	13753
918.049	13666
918.161	13799
918.272	13917
918.384	13856
918.495	13776
918.606	13750
918.717	13499
918.828	13651
918.939	13693
919.05	13514
919.161	13590
919.272	13449
919.383	13472
919.494	13681
919.604	13833
919.715	13636
919.826	13521
919.936	13548
920.047	13620
920.157	13696
920.267	13712
920.378	13567
920.488	13601
920.598	13845
920.708	13822
920.818	13734
920.928	13677
921.038	13791
921.148	13849
921.258	13556
921.368	13457
921.477	13381
921.587	13289
921.697	13240
921.806	13320
921.916	13133
922.025	13015
922.134	13046
922.244	12939
922.353	13019
922.462	12863
922.571	12741
922.68	12726
922.789	12665
922.898	12635
923.007	12555
923.116	12654
923.224	12650
923.333	12544
923.442	12536
923.55	12460
923.659	12441
923.767	12585
923.876	12323
923.984	12574
924.092	12384
924.201	12448
924.309	12422
924.417	12414
924.525	12338
924.633	12369
924.741	13050
924.849	12102
924.956	12239
925.064	12102
925.172	12064
925.279	12220
925.387	12064
925.494	12175
925.602	12216
925.709	12243
925.816	11961
925.924	12117
926.031	12155
926.138	12076
926.245	12041
926.352	11935
926.459	12079
926.566	12117
926.673	12049
926.779	11870
926.886	11828
926.993	11707
927.099	11668
927.206	11604
927.312	11630
927.419	11703
927.525	11611
927.631	11710
927.737	11562
927.843	11551
927.95	11429
928.056	11589
928.162	11535
928.267	11535
928.373	12125
928.479	11505
928.585	11376
928.69	11433
928.796	11535
928.901	11269
929.007	11284
929.112	11452
929.218	11497
929.323	11299
929.428	11246
929.533	11448
929.638	11162
929.743	11326
929.848	11269
929.953	11178
930.058	11132
930.163	10972
930.267	10957
930.372	11094
930.477	10919
930.581	11197
930.685	11064
930.79	10885
930.894	10858
930.998	10885
931.103	10896
931.207	10565
931.311	10550
931.415	10409
931.519	10306
931.623	10207
