Data from test_V78500241_2691.txt Node
Date: Fri Mar 25 15:28:35 CST 2022
User: usil
Spectrometer: V785-0024
Trigger mode: 0
Integration Time (sec): 4.000000E-1
Scans to average: 1
Nonlinearity correction enabled: false
Boxcar width: 0
Storing dark spectrum: false
XAxis mode: Wavelengths
Number of Pixels in Spectrum: 1024
>>>>>Begin Spectral Data<<<<<
801.071	27005
801.214	26994
801.356	26754
801.499	26678
801.641	26560
801.783	26579
801.926	26621
802.068	26518
802.211	26476
802.353	26415
802.496	26191
802.638	26221
802.78	26149
802.923	26119
803.065	25997
803.208	26130
803.35	26191
803.492	26301
803.635	26339
803.777	26218
803.919	26267
804.061	26644
804.204	26221
804.346	26355
804.488	26103
804.63	26240
804.773	26263
804.915	26244
805.057	26290
805.199	26195
805.341	26343
805.483	26389
805.626	26434
805.768	26305
805.91	26446
806.052	26355
806.194	26408
806.336	26530
806.478	26271
806.62	26511
806.762	26442
806.904	26636
807.046	26940
807.188	26819
807.33	26689
807.472	26895
807.614	26621
807.756	26861
807.898	26663
808.04	26606
808.182	26735
808.324	26609
808.465	26693
808.607	26746
808.749	26982
808.891	27119
809.033	27127
809.174	27047
809.316	26944
809.458	26861
809.6	26918
809.741	27032
809.883	27096
810.025	27279
810.166	27279
810.308	27317
810.45	27325
810.591	27100
810.733	26918
810.875	26982
811.016	26921
811.158	26960
811.299	27032
811.441	27146
811.582	27081
811.724	27032
811.865	26960
812.007	27077
812.148	26849
812.29	27024
812.431	27161
812.573	27302
812.714	27405
812.855	27427
812.997	27557
813.138	27690
813.279	27477
813.421	27462
813.562	27367
813.703	27222
813.845	27268
813.986	26937
814.127	26754
814.268	26617
814.41	26617
814.551	26651
814.692	26834
814.833	26533
814.974	26629
815.115	26590
815.256	26469
815.397	26621
815.539	26438
815.68	26301
815.821	26172
815.962	26305
816.103	26469
816.244	26271
816.385	26187
816.526	26138
816.666	26001
816.807	26039
816.948	25944
817.089	25925
817.23	25951
817.371	25902
817.512	25742
817.653	25928
817.793	25822
817.934	25803
818.075	25913
818.216	25909
818.356	25833
818.497	25738
818.638	25620
818.778	25506
818.919	25548
819.06	25685
819.2	25746
819.341	25791
819.481	25925
819.622	26050
819.762	26259
819.903	26183
820.043	26046
820.184	25932
820.324	25879
820.465	26065
820.605	25898
820.746	26016
820.886	25761
821.026	25864
821.167	25951
821.307	25909
821.447	25830
821.588	25795
821.728	25605
821.868	25491
822.008	25476
822.149	25350
822.289	25312
822.429	25080
822.569	25061
822.709	24939
822.849	24970
822.99	25031
823.13	24776
823.27	24806
823.41	24791
823.55	24616
823.69	24730
823.83	24604
823.97	24631
824.11	24532
824.25	24494
824.389	24521
824.529	24513
824.669	24540
824.809	24585
824.949	24528
825.089	24684
825.228	24608
825.368	24334
825.508	24285
825.648	24254
825.787	24445
825.927	24357
826.067	24311
826.206	24376
826.346	24437
826.485	24388
826.625	24361
826.765	24559
826.904	24380
827.044	24167
827.183	24129
827.323	24098
827.462	24091
827.601	24022
827.741	24083
827.88	24125
828.02	23866
828.159	24041
828.298	23969
828.437	24087
828.577	24125
828.716	24026
828.855	24079
828.994	23729
829.134	23783
829.273	23817
829.412	23733
829.551	23805
829.69	23703
829.829	23832
829.968	23786
830.107	23748
830.246	23798
830.385	23722
830.524	23634
830.663	23608
830.802	23608
830.941	23414
831.08	23379
831.219	23455
831.357	23410
831.496	23661
831.635	23524
831.774	23284
831.913	23277
832.051	23322
832.19	23166
832.329	23193
832.467	23124
832.606	22995
832.744	23014
832.883	22999
833.022	23037
833.16	23181
833.299	23075
833.437	22999
833.576	23242
833.714	23056
833.852	23178
833.991	23231
834.129	23170
834.267	23254
834.406	23075
834.544	23143
834.682	23067
834.821	23102
834.959	23372
835.097	23079
835.235	23029
835.373	23124
835.511	23147
835.65	23098
835.788	22999
835.926	22858
836.064	22797
836.202	22778
836.34	22927
836.478	23094
836.615	22968
836.753	22976
836.891	23159
837.029	22987
837.167	23010
837.305	22957
837.443	22869
837.58	22824
837.718	22900
837.856	22965
837.993	22889
838.131	22862
838.269	22691
838.406	22683
838.544	22698
838.681	22470
838.819	22432
838.956	22303
839.094	22322
839.231	22386
839.369	22417
839.506	22596
839.643	22557
839.781	22371
839.918	22223
840.055	22280
840.193	22284
840.33	22112
840.467	22318
840.604	22253
840.742	22497
840.879	22131
841.016	22177
841.153	22143
841.29	22280
841.427	22246
841.564	22196
841.701	22352
841.838	22246
841.975	22131
842.112	22181
842.249	22131
842.385	22048
842.522	22398
842.659	22109
842.796	21983
842.933	22067
843.069	22048
843.206	21869
843.343	21953
843.479	21968
843.616	22086
843.752	21880
843.889	21747
844.025	21934
844.162	21869
844.298	21831
844.435	21770
844.571	21819
844.708	21850
844.844	21850
844.98	21903
845.117	21865
845.253	21747
845.389	21610
845.525	21781
845.661	21709
845.798	21526
845.934	21713
846.07	21431
846.206	21530
846.342	21709
846.478	21507
846.614	21435
846.75	21283
846.886	21268
847.022	21393
847.158	21256
847.294	21344
847.429	21287
847.565	21268
847.701	21549
847.837	20998
847.972	21005
848.108	21051
848.244	21036
848.379	20937
848.515	20758
848.65	20910
848.786	20823
848.921	20876
849.057	21055
849.192	20967
849.328	20963
849.463	20857
849.598	20781
849.734	20735
849.869	20621
850.004	20598
850.14	20530
850.275	20708
850.41	20575
850.545	20438
850.68	20636
850.815	20625
850.95	20602
851.085	20800
851.22	20735
851.355	20564
851.49	20663
851.625	20537
851.76	20594
851.895	20590
852.03	20427
852.165	20708
852.299	20621
852.434	20739
852.569	20655
852.703	20667
852.838	20621
852.973	20701
853.107	20705
853.242	20396
853.376	20564
853.511	20377
853.645	20454
853.78	20492
853.914	20499
854.048	20442
854.183	20408
854.317	20476
854.451	20651
854.585	20556
854.72	20465
854.854	20427
854.988	20328
855.122	20465
855.256	20324
855.39	20366
855.524	20541
855.658	20503
855.792	20556
855.926	20423
856.06	20518
856.194	20590
856.327	20309
856.461	20556
856.595	20305
856.729	20396
856.862	20412
856.996	20473
857.13	20450
857.263	20511
857.397	20480
857.53	20492
857.664	20476
857.797	20461
857.931	20511
858.064	20415
858.197	20636
858.331	20408
858.464	20366
858.597	20317
858.731	20389
858.864	20492
858.997	20446
859.13	20377
859.263	20366
859.396	20571
859.529	20415
859.662	20431
859.795	20305
859.928	20442
860.061	20587
860.194	20625
860.327	20446
860.46	20450
860.592	20541
860.725	20549
860.858	20526
860.99	20374
861.123	20336
861.256	20450
861.388	20469
861.521	21150
861.653	20195
861.786	20130
861.918	20313
862.05	20339
862.183	20309
862.315	20385
862.447	20389
862.58	20157
862.712	20126
862.844	20134
862.976	20130
863.108	20183
863.24	20663
863.372	20122
863.504	20237
863.636	20130
863.768	20240
863.9	20290
864.032	20100
864.164	20035
864.296	20206
864.428	20286
864.559	20153
864.691	20244
864.823	20161
864.954	20229
865.086	20183
865.217	19978
865.349	20020
865.48	20126
865.612	20115
865.743	20142
865.875	20111
866.006	20176
866.137	20043
866.269	20008
866.4	20164
866.531	19986
866.662	20005
866.793	19936
866.924	20031
867.055	20001
867.186	20119
867.317	19925
867.448	19917
867.579	19909
867.71	20005
867.841	20008
867.972	19993
868.103	19974
868.233	20035
868.364	19928
868.495	20088
868.625	20210
868.756	20259
868.886	20077
869.017	20324
869.147	20328
869.278	20290
869.408	20290
869.539	20282
869.669	20278
869.799	20282
869.929	20370
870.06	20305
870.19	20655
870.32	20533
870.45	20454
870.58	20621
870.71	20689
870.84	20705
870.97	20587
871.1	20590
871.23	20746
871.36	20861
871.489	20716
871.619	20823
871.749	20781
871.879	20933
872.008	20914
872.138	20819
872.267	20830
872.397	20796
872.526	20659
872.656	20648
872.785	20651
872.915	20857
873.044	20864
873.173	20876
873.303	20914
873.432	20868
873.561	20998
873.69	20929
873.819	20925
873.948	20902
874.077	20826
874.206	20781
874.335	20815
874.464	21169
874.593	21043
874.722	21047
874.851	21093
874.979	21089
875.108	21161
875.237	21051
875.365	21020
875.494	21127
875.623	21256
875.751	21100
875.88	21188
876.008	21180
876.136	21249
876.265	21545
876.393	21603
876.521	21519
876.65	21523
876.778	21561
876.906	21439
877.034	21386
877.162	21557
877.29	21469
877.418	21526
877.546	21583
877.674	21542
877.802	21526
877.93	21477
878.058	21443
878.185	21359
878.313	21496
878.441	21439
878.568	21329
878.696	21332
878.824	21587
878.951	21515
879.079	21618
879.206	21831
879.333	21591
879.461	21424
879.588	21614
879.715	21682
879.842	21698
879.97	21591
880.097	21275
880.224	21214
880.351	21233
880.478	21249
880.605	21188
880.732	21332
880.859	21511
880.986	21230
881.112	21287
881.239	21222
881.366	20998
881.493	20872
881.619	20857
881.746	20963
881.872	20921
881.999	20811
882.125	20697
882.252	20937
882.378	20872
882.505	20967
882.631	20781
882.757	20579
882.883	20648
883.01	20522
883.136	20530
883.262	20511
883.388	20244
883.514	20609
883.64	20568
883.766	20511
883.892	20298
884.018	20320
884.143	20473
884.269	20686
884.395	20278
884.52	20229
884.646	20305
884.772	20153
884.897	20237
885.023	20339
885.148	20317
885.274	20423
885.399	20305
885.524	20267
885.65	20206
885.775	20172
885.9	20161
886.025	20324
886.15	20381
886.275	20282
886.4	20233
886.525	20275
886.65	20111
886.775	20138
886.9	20336
887.025	20370
887.149	20065
887.274	20016
887.399	20065
887.523	19913
887.648	19989
887.773	19967
887.897	20119
888.021	20027
888.146	19871
888.27	20145
888.395	20092
888.519	20107
888.643	19978
888.767	20050
888.891	19909
889.015	19765
889.139	19890
889.263	19723
889.387	19807
889.511	20005
889.635	19879
889.759	19765
889.883	19700
890.006	19833
890.13	19947
890.254	19791
890.377	19761
890.501	19525
890.624	19514
890.748	19460
890.871	19426
890.995	19392
891.118	19388
891.241	19464
891.364	19438
891.488	19525
891.611	19369
891.734	19422
891.857	19502
891.98	19419
892.103	19369
892.226	19388
892.349	19373
892.471	19194
892.594	19438
892.717	19396
892.839	19297
892.962	19324
893.085	19407
893.207	19343
893.33	19183
893.452	19320
893.575	19441
893.697	19335
893.819	19518
893.941	19647
894.064	19430
894.186	19335
894.308	19297
894.43	19365
894.552	19339
894.674	19445
894.796	19225
894.918	19327
895.04	19209
895.161	19343
895.283	19411
895.405	19244
895.526	19354
895.648	19228
895.769	19331
895.891	19373
896.012	19415
896.134	19403
896.255	19324
896.376	19369
896.498	19335
896.619	19339
896.74	19213
896.861	19506
896.982	19666
897.103	19860
897.224	19499
897.345	19594
897.466	19422
897.587	19495
897.708	19704
897.828	19643
897.949	19662
898.07	19377
898.19	19460
898.311	19620
898.431	19476
898.552	19597
898.672	19510
898.792	19734
898.913	19544
899.033	19586
899.153	19354
899.273	19251
899.393	19396
899.513	19369
899.633	19263
899.753	19411
899.873	19282
899.993	19377
900.113	19240
900.232	19316
900.352	19316
900.472	19190
900.591	19088
900.711	19160
900.83	19107
900.95	19088
901.069	19160
901.189	19091
901.308	18829
901.427	18802
901.546	18642
901.665	18719
901.784	18681
901.904	18536
902.023	18388
902.141	18239
902.26	18174
902.379	18365
902.498	18247
902.617	18209
902.735	18254
902.854	18220
902.973	18292
903.091	17942
903.21	17870
903.328	17927
903.446	17813
903.565	17863
903.683	17752
903.801	17600
903.919	17646
904.038	17627
904.156	17463
904.274	17577
904.392	17543
904.51	17535
904.627	17509
904.745	17577
904.863	17554
904.981	17273
905.098	17185
905.216	17212
905.334	17147
905.451	17166
905.569	17102
905.686	17189
905.803	17269
905.921	17010
906.038	17124
906.155	17022
906.272	16877
906.389	16835
906.506	16713
906.623	16755
906.74	16755
906.857	16683
906.974	16694
907.091	16831
907.208	16809
907.324	16752
907.441	16615
907.557	16542
907.674	16512
907.79	16337
907.907	16409
908.023	16500
908.139	16417
908.256	16455
908.372	16215
908.488	16299
908.604	16253
908.72	16150
908.836	16215
908.952	16143
909.068	16322
909.184	16306
909.3	16169
909.415	16226
909.531	16040
909.647	15895
909.762	15873
909.878	15854
909.993	15812
910.108	15804
910.224	15793
910.339	15865
910.454	15720
910.57	15629
910.685	15587
910.8	15899
910.915	15808
911.03	15751
911.145	15519
911.259	15534
911.374	15504
911.489	15488
911.604	15424
911.718	15226
911.833	15298
911.947	15211
912.062	15131
912.176	15264
912.291	15348
912.405	15222
912.519	15458
912.633	15401
912.748	15222
912.862	15233
912.976	15104
913.09	14914
913.204	14941
913.318	15017
913.431	15184
913.545	15051
913.659	15154
913.772	14925
913.886	14834
914	14872
914.113	14998
914.226	14956
914.34	15055
914.453	14800
914.566	14921
914.68	14857
914.793	14697
914.906	14518
915.019	14560
915.132	14400
915.245	14438
915.358	14522
915.47	14442
915.583	14511
915.696	14476
915.809	14549
915.921	14640
916.034	14434
916.146	14431
916.259	14442
916.371	14571
916.483	14473
916.595	14347
916.708	14366
916.82	14362
916.932	14298
917.044	14282
917.156	14294
917.268	14229
917.38	14240
917.491	14142
917.603	14153
917.715	14252
917.826	14256
917.938	14039
918.049	13951
918.161	14092
918.272	14206
918.384	14237
918.495	14134
918.606	13963
918.717	13856
918.828	13997
918.939	13970
919.05	13921
919.161	13959
919.272	13807
919.383	13776
919.494	13936
919.604	14172
919.715	13925
919.826	13894
919.936	13871
920.047	13993
920.157	13868
920.267	14123
920.378	14005
920.488	13845
920.598	14153
920.708	14187
920.818	14001
920.928	14012
921.038	14123
921.148	14164
921.258	13887
921.368	13830
921.477	13655
921.587	13704
921.697	13438
921.806	13750
921.916	13552
922.025	13362
922.134	13278
922.244	13228
922.353	13339
922.462	13149
922.571	13080
922.68	13019
922.789	12954
922.898	12928
923.007	12973
923.116	12966
923.224	13012
923.333	12901
923.442	12768
923.55	12772
923.659	12787
923.767	12951
923.876	12715
923.984	12894
924.092	12681
924.201	12833
924.309	12764
924.417	12726
924.525	12631
924.633	12665
924.741	13636
924.849	12521
924.956	12612
925.064	12395
925.172	12350
925.279	12376
925.387	12475
925.494	12376
925.602	12517
925.709	12479
925.816	12289
925.924	12369
926.031	12437
926.138	12372
926.245	12319
926.352	12262
926.459	12429
926.566	12467
926.673	12308
926.779	12175
926.886	12216
926.993	12057
927.099	11980
927.206	11931
927.312	11996
927.419	11954
927.525	12091
927.631	11999
927.737	11882
927.843	11805
927.95	11726
928.056	11832
928.162	11863
928.267	11874
928.373	12452
928.479	11904
928.585	11748
928.69	11783
928.796	11760
928.901	11646
929.007	11543
929.112	11668
929.218	11657
929.323	11611
929.428	11581
929.533	11691
929.638	11570
929.743	11562
929.848	11611
929.953	11543
930.058	11448
930.163	11307
930.267	11296
930.372	11493
930.477	11239
930.581	11459
930.685	11345
930.79	11185
930.894	11170
930.998	11189
931.103	11235
931.207	10881
931.311	10820
931.415	10736
931.519	10573
931.623	10565
