Data from test_V78500241_163.txt Node
Date: Fri Mar 25 15:10:59 CST 2022
User: usil
Spectrometer: V785-0024
Trigger mode: 0
Integration Time (sec): 4.000000E-1
Scans to average: 1
Nonlinearity correction enabled: false
Boxcar width: 0
Storing dark spectrum: false
XAxis mode: Wavelengths
Number of Pixels in Spectrum: 1024
>>>>>Begin Spectral Data<<<<<
801.071	27960
801.214	28010
801.356	27770
801.499	27701
801.641	27599
801.783	27595
801.926	27603
802.068	27496
802.211	27469
802.353	27401
802.496	27275
802.638	27310
802.78	27112
802.923	27146
803.065	26994
803.208	27146
803.35	27218
803.492	27344
803.635	27237
803.777	27169
803.919	27397
804.061	27561
804.204	27245
804.346	27180
804.488	27180
804.63	27230
804.773	26982
804.915	27230
805.057	27226
805.199	27199
805.341	27317
805.483	27260
805.626	27230
805.768	27302
805.91	27348
806.052	27325
806.194	27317
806.336	27534
806.478	27237
806.62	27275
806.762	27348
806.904	27473
807.046	27789
807.188	27724
807.33	27698
807.472	27743
807.614	27701
807.756	27526
807.898	27427
808.04	27500
808.182	27382
808.324	27576
808.465	27705
808.607	27572
808.749	27907
808.891	27857
809.033	28017
809.174	27793
809.316	27800
809.458	27793
809.6	27755
809.741	27888
809.883	27937
810.025	27998
810.166	28048
810.308	28017
810.45	28051
810.591	28002
810.733	27895
810.875	27694
811.016	27686
811.158	27713
811.299	27789
811.441	27736
811.582	27865
811.724	27857
811.865	27736
812.007	27690
812.148	27660
812.29	27911
812.431	27991
812.573	28036
812.714	27991
812.855	28268
812.997	28386
813.138	28462
813.279	28462
813.421	28337
813.562	28234
813.703	28082
813.845	27914
813.986	27846
814.127	27485
814.268	27443
814.41	27408
814.551	27374
814.692	27488
814.833	27302
814.974	27294
815.115	27458
815.256	27416
815.397	27256
815.539	27264
815.68	27085
815.821	27119
815.962	27188
816.103	27203
816.244	27081
816.385	26933
816.526	26975
816.666	26594
816.807	26594
816.948	26659
817.089	26640
817.23	26583
817.371	26545
817.512	26423
817.653	26602
817.793	26511
817.934	26545
818.075	26636
818.216	26727
818.356	26453
818.497	26362
818.638	26263
818.778	26229
818.919	26336
819.06	26324
819.2	26434
819.341	26545
819.481	26499
819.622	26739
819.762	26895
819.903	26811
820.043	26689
820.184	26511
820.324	26587
820.465	26674
820.605	26613
820.746	26530
820.886	26507
821.026	26552
821.167	26415
821.307	26632
821.447	26511
821.588	26453
821.728	26176
821.868	26012
822.008	26054
822.149	25902
822.289	26031
822.429	25750
822.569	25590
822.709	25594
822.849	25426
822.99	25457
823.13	25422
823.27	25343
823.41	25187
823.55	25129
823.69	25285
823.83	25297
823.97	25236
824.11	24920
824.25	25034
824.389	25015
824.529	25110
824.669	25080
824.809	25069
824.949	25091
825.089	25110
825.228	24951
825.368	24928
825.508	24935
825.648	24829
825.787	24848
825.927	24791
826.067	24810
826.206	24677
826.346	24981
826.485	24844
826.625	24757
826.765	24913
826.904	24840
827.044	24673
827.183	24627
827.323	24555
827.462	24563
827.601	24692
827.741	24505
827.88	24525
828.02	24395
828.159	24517
828.298	24566
828.437	24604
828.577	24483
828.716	24566
828.855	24490
828.994	24281
829.134	24194
829.273	24258
829.412	24133
829.551	24114
829.69	24243
829.829	24057
829.968	24281
830.107	24369
830.246	24194
830.385	24194
830.524	24121
830.663	24018
830.802	23859
830.941	23813
831.08	23764
831.219	23863
831.357	23802
831.496	23977
831.635	23745
831.774	23714
831.913	23703
832.051	23642
832.19	23627
832.329	23543
832.467	23501
832.606	23360
832.744	23414
832.883	23406
833.022	23318
833.16	23493
833.299	23402
833.437	23459
833.576	23589
833.714	23490
833.852	23570
833.991	23524
834.129	23691
834.267	23490
834.406	23554
834.544	23467
834.682	23509
834.821	23467
834.959	23551
835.097	23436
835.235	23619
835.373	23573
835.511	23406
835.65	23269
835.788	23341
835.926	23212
836.064	23220
836.202	23079
836.34	23242
836.478	23341
836.615	23254
836.753	23204
836.891	23349
837.029	23254
837.167	23288
837.305	23239
837.443	23254
837.58	23117
837.718	23242
837.856	23079
837.993	23041
838.131	23067
838.269	23048
838.406	23075
838.544	22972
838.681	22782
838.819	22866
838.956	22516
839.094	22538
839.231	22649
839.369	22668
839.506	22824
839.643	22862
839.781	22508
839.918	22542
840.055	22516
840.193	22451
840.33	22451
840.467	22512
840.604	22519
840.742	22755
840.879	22371
841.016	22432
841.153	22428
841.29	22580
841.427	22428
841.564	22516
841.701	22455
841.838	22432
841.975	22379
842.112	22367
842.249	22185
842.385	22166
842.522	22287
842.659	22162
842.796	22268
842.933	22158
843.069	22166
843.206	22074
843.343	22291
843.479	22188
843.616	22219
843.752	21812
843.889	22002
844.025	22120
844.162	21945
844.298	22021
844.435	21861
844.571	21816
844.708	22029
844.844	22048
844.98	22223
845.117	22029
845.253	21918
845.389	21895
845.525	21698
845.661	21736
845.798	21679
845.934	21743
846.07	21576
846.206	21652
846.342	21762
846.478	21572
846.614	21557
846.75	21363
846.886	21450
847.022	21599
847.158	21344
847.294	21401
847.429	21378
847.565	21367
847.701	21622
847.837	21207
847.972	21180
848.108	21157
848.244	21264
848.379	21024
848.515	21051
848.65	21017
848.786	20887
848.921	21036
849.057	21036
849.192	21020
849.328	21127
849.463	21020
849.598	20895
849.734	20853
849.869	20815
850.004	20743
850.14	20716
850.275	20689
850.41	20617
850.545	20731
850.68	20769
850.815	20648
850.95	20705
851.085	20785
851.22	20853
851.355	20724
851.49	20758
851.625	20644
851.76	20663
851.895	20537
852.03	20659
852.165	20659
852.299	20800
852.434	20758
852.569	20670
852.703	20765
852.838	20746
852.973	20720
853.107	20800
853.242	20636
853.376	20636
853.511	20210
853.645	20552
853.78	20621
853.914	20450
854.048	20427
854.183	20446
854.317	20495
854.451	20636
854.585	20499
854.72	20465
854.854	20507
854.988	20396
855.122	20518
855.256	20366
855.39	20499
855.524	20571
855.658	20495
855.792	20446
855.926	20480
856.06	20522
856.194	20575
856.327	20488
856.461	20526
856.595	20495
856.729	20438
856.862	20594
856.996	20499
857.13	20492
857.263	20598
857.397	20625
857.53	20473
857.664	20655
857.797	20503
857.931	20545
858.064	20480
858.197	20659
858.331	20473
858.464	20419
858.597	20370
858.731	20419
858.864	20457
858.997	20336
859.13	20568
859.263	20347
859.396	20423
859.529	20537
859.662	20408
859.795	20461
859.928	20495
860.061	20598
860.194	20571
860.327	20450
860.46	20457
860.592	20514
860.725	20659
860.858	20568
860.99	20427
861.123	20385
861.256	20313
861.388	20442
861.521	21100
861.653	20328
861.786	20271
861.918	20377
862.05	20484
862.183	20438
862.315	20549
862.447	20499
862.58	20412
862.712	20229
862.844	20039
862.976	20256
863.108	20244
863.24	20446
863.372	20081
863.504	20157
863.636	19989
863.768	20210
863.9	20145
864.032	19997
864.164	20103
864.296	20103
864.428	20206
864.559	20199
864.691	20248
864.823	20153
864.954	20176
865.086	20267
865.217	20050
865.349	19993
865.48	20054
865.612	20096
865.743	20168
865.875	19978
866.006	20054
866.137	20065
866.269	20122
866.4	20008
866.531	19955
866.662	19989
866.793	20077
866.924	19917
867.055	19909
867.186	19982
867.317	20054
867.448	19875
867.579	19982
867.71	19894
867.841	19951
867.972	20054
868.103	20016
868.233	20069
868.364	19993
868.495	20024
868.625	20263
868.756	20191
868.886	20225
869.017	20111
869.147	20286
869.278	20362
869.408	20389
869.539	20119
869.669	20271
869.799	20282
869.929	20256
870.06	20324
870.19	20549
870.32	20488
870.45	20579
870.58	20522
870.71	20823
870.84	20838
870.97	20724
871.1	20454
871.23	20807
871.36	20765
871.489	20693
871.619	20868
871.749	20765
871.879	20887
872.008	20910
872.138	20910
872.267	20887
872.397	20667
872.526	20617
872.656	20594
872.785	20644
872.915	20842
873.044	20895
873.173	20720
873.303	20842
873.432	20777
873.561	20941
873.69	20883
873.819	20781
873.948	20921
874.077	20743
874.206	20785
874.335	20823
874.464	21062
874.593	21100
874.722	20956
874.851	21176
874.979	21085
875.108	21192
875.237	21100
875.365	20963
875.494	20918
875.623	21138
875.751	20990
875.88	21214
876.008	21256
876.136	21169
876.265	21401
876.393	21534
876.521	21488
876.65	21644
876.778	21462
876.906	21420
877.034	21443
877.162	21443
877.29	21466
877.418	21462
877.546	21557
877.674	21469
877.802	21466
877.93	21355
878.058	21412
878.185	21313
878.313	21294
878.441	21401
878.568	21249
878.696	21382
878.824	21348
878.951	21576
879.079	21488
879.206	21717
879.333	21530
879.461	21348
879.588	21553
879.715	21618
879.842	21698
879.97	21420
880.097	21321
880.224	21173
880.351	21302
880.478	21386
880.605	21127
880.732	21302
880.859	21545
880.986	21272
881.112	21348
881.239	21154
881.366	20994
881.493	20872
881.619	20921
881.746	20815
881.872	20982
881.999	20906
882.125	20861
882.252	20963
882.378	20902
882.505	20906
882.631	20708
882.757	20625
882.883	20617
883.01	20609
883.136	20606
883.262	20465
883.388	20347
883.514	20594
883.64	20651
883.766	20602
883.892	20358
884.018	20412
884.143	20549
884.269	20526
884.395	20271
884.52	20191
884.646	20259
884.772	20092
884.897	20199
885.023	20218
885.148	20256
885.274	20275
885.399	20237
885.524	20195
885.65	20187
885.775	20305
885.9	20233
886.025	20347
886.15	20229
886.275	20210
886.4	20039
886.525	20256
886.65	20157
886.775	20100
886.9	20263
887.025	20522
887.149	20103
887.274	20062
887.399	19879
887.523	20020
887.648	19917
887.773	19898
887.897	19978
888.021	20031
888.146	19879
888.27	20115
888.395	19947
888.519	20069
888.643	20058
888.767	20065
888.891	19913
889.015	19731
889.139	19909
889.263	19811
889.387	19818
889.511	20024
889.635	19947
889.759	19780
889.883	19769
890.006	19830
890.13	19902
890.254	19575
890.377	19734
890.501	19525
890.624	19590
890.748	19727
890.871	19487
890.995	19365
891.118	19308
891.241	19381
891.364	19392
891.488	19518
891.611	19354
891.734	19365
891.857	19392
891.98	19419
892.103	19384
892.226	19384
892.349	19339
892.471	19194
892.594	19316
892.717	19365
892.839	19263
892.962	19308
893.085	19396
893.207	19282
893.33	19179
893.452	19285
893.575	19331
893.697	19141
893.819	19434
893.941	19468
894.064	19491
894.186	19259
894.308	19316
894.43	19392
894.552	19343
894.674	19343
894.796	19164
894.918	19266
895.04	19278
895.161	19415
895.283	19449
895.405	19187
895.526	19377
895.648	19183
895.769	19346
895.891	19362
896.012	19339
896.134	19358
896.255	19278
896.376	19263
896.498	19327
896.619	19354
896.74	19183
896.861	19460
896.982	19647
897.103	19875
897.224	19632
897.345	19533
897.466	19540
897.587	19674
897.708	19719
897.828	19643
897.949	19411
898.07	19266
898.19	19460
898.311	19609
898.431	19544
898.552	19449
898.672	19506
898.792	19605
898.913	19460
899.033	19426
899.153	19403
899.273	19259
899.393	19308
899.513	19194
899.633	19426
899.753	19187
899.873	19190
899.993	19320
900.113	19358
900.232	19228
900.352	19217
900.472	19099
900.591	19072
900.711	19008
900.83	19053
900.95	19198
901.069	19217
901.189	19000
901.308	18798
901.427	18707
901.546	18703
901.665	18711
901.784	18768
901.904	18490
902.023	18464
902.141	18205
902.26	18300
902.379	18167
902.498	18091
902.617	18121
902.735	18270
902.854	18125
902.973	18041
903.091	17942
903.21	17961
903.328	17840
903.446	17748
903.565	17600
903.683	17653
903.801	17581
903.919	17649
904.038	17611
904.156	17505
904.274	17585
904.392	17341
904.51	17345
904.627	17455
904.745	17433
904.863	17421
904.981	17181
905.098	17170
905.216	17083
905.334	17193
905.451	16999
905.569	17029
905.686	17124
905.803	17083
905.921	16923
906.038	17014
906.155	16850
906.272	16797
906.389	16847
906.506	16653
906.623	16634
906.74	16691
906.857	16561
906.974	16546
907.091	16755
907.208	16782
907.324	16725
907.441	16516
907.557	16375
907.674	16447
907.79	16284
907.907	16371
908.023	16291
908.139	16478
908.256	16280
908.372	16230
908.488	16112
908.604	16173
908.72	15922
908.836	16051
908.952	16067
909.068	16059
909.184	16192
909.3	16010
909.415	16021
909.531	16055
909.647	15819
909.762	15800
909.878	15667
909.993	15850
910.108	15755
910.224	15705
910.339	15709
910.454	15652
910.57	15610
910.685	15428
910.8	15759
910.915	15686
911.03	15481
911.145	15443
911.259	15283
911.374	15332
911.489	15321
911.604	15260
911.718	15058
911.833	15104
911.947	14979
912.062	14925
912.176	15062
912.291	15066
912.405	15154
912.519	15237
912.633	15264
912.748	15097
912.862	15005
912.976	14906
913.09	14769
913.204	14811
913.318	14876
913.431	14880
913.545	14887
913.659	15089
913.772	14960
913.886	14674
914	14758
914.113	14739
914.226	14861
914.34	14716
914.453	14655
914.566	14705
914.68	14663
914.793	14514
914.906	14442
915.019	14324
915.132	14252
915.245	14362
915.358	14339
915.47	14427
915.583	14358
915.696	14408
915.809	14434
915.921	14385
916.034	14328
916.146	14233
916.259	14332
916.371	14347
916.483	14301
916.595	14275
916.708	14145
916.82	14195
916.932	14187
917.044	14096
917.156	14115
917.268	14043
917.38	14100
917.491	13993
917.603	13989
917.715	14062
917.826	14062
917.938	13989
918.049	13856
918.161	13883
918.272	14081
918.384	14199
918.495	13944
918.606	13909
918.717	13681
918.828	13925
918.939	13841
919.05	13704
919.161	13700
919.272	13590
919.383	13677
919.494	13883
919.604	13894
919.715	13769
919.826	13658
919.936	13597
920.047	13799
920.157	13746
920.267	13871
920.378	13746
920.488	13719
920.598	13879
920.708	13944
920.818	13837
920.928	13879
921.038	14005
921.148	13894
921.258	13696
921.368	13643
921.477	13491
921.587	13495
921.697	13369
921.806	13510
921.916	13331
922.025	13213
922.134	13126
922.244	13076
922.353	13164
922.462	13031
922.571	12970
922.68	12810
922.789	12753
922.898	12833
923.007	12730
923.116	12779
923.224	12833
923.333	12719
923.442	12696
923.55	12646
923.659	12707
923.767	12730
923.876	12547
923.984	12612
924.092	12464
924.201	12574
924.309	12540
924.417	12521
924.525	12467
924.633	12551
924.741	13198
924.849	12292
924.956	12437
925.064	12251
925.172	12247
925.279	12190
925.387	12281
925.494	12308
925.602	12399
925.709	12338
925.816	12152
925.924	12125
926.031	12289
926.138	12190
926.245	12292
926.352	12076
926.459	12178
926.566	12365
926.673	12129
926.779	12049
926.886	11939
926.993	11874
927.099	11874
927.206	11821
927.312	11775
927.419	11885
927.525	11802
927.631	11866
927.737	11748
927.843	11710
927.95	11585
928.056	11764
928.162	11695
928.267	11771
928.373	12315
928.479	11817
928.585	11554
928.69	11608
928.796	11764
928.901	11539
929.007	11482
929.112	11562
929.218	11448
929.323	11459
929.428	11444
929.533	11562
929.638	11318
929.743	11410
929.848	11452
929.953	11368
930.058	11204
930.163	11121
930.267	11178
930.372	11288
930.477	11018
930.581	11303
930.685	11136
930.79	11045
930.894	11086
930.998	10991
931.103	11113
931.207	10702
931.311	10596
931.415	10580
931.519	10455
931.623	10356
