Data from test_V78500241_2824.txt Node
Date: Fri Mar 25 15:29:31 CST 2022
User: usil
Spectrometer: V785-0024
Trigger mode: 0
Integration Time (sec): 4.000000E-1
Scans to average: 1
Nonlinearity correction enabled: false
Boxcar width: 0
Storing dark spectrum: false
XAxis mode: Wavelengths
Number of Pixels in Spectrum: 1024
>>>>>Begin Spectral Data<<<<<
801.071	27226
801.214	27051
801.356	26872
801.499	27009
801.641	26750
801.783	26712
801.926	26788
802.068	26754
802.211	26667
802.353	26587
802.496	26511
802.638	26358
802.78	26396
802.923	26393
803.065	26233
803.208	26210
803.35	26442
803.492	26530
803.635	26590
803.777	26404
803.919	26503
804.061	26963
804.204	26663
804.346	26480
804.488	26396
804.63	26579
804.773	26438
804.915	26556
805.057	26693
805.199	26564
805.341	26670
805.483	26708
805.626	26648
805.768	26598
805.91	26644
806.052	26667
806.194	26575
806.336	26792
806.478	26640
806.62	26537
806.762	26746
806.904	26937
807.046	27146
807.188	27024
807.33	27058
807.472	27017
807.614	27032
807.756	27001
807.898	26830
808.04	26864
808.182	27024
808.324	26845
808.465	26967
808.607	27043
808.749	27378
808.891	27485
809.033	27427
809.174	27291
809.316	27367
809.458	27306
809.6	27218
809.741	27310
809.883	27313
810.025	27538
810.166	27515
810.308	27511
810.45	27500
810.591	27439
810.733	27393
810.875	27207
811.016	27203
811.158	27180
811.299	27313
811.441	27481
811.582	27389
811.724	27241
811.865	27116
812.007	27188
812.148	27131
812.29	27256
812.431	27435
812.573	27553
812.714	27648
812.855	27762
812.997	27827
813.138	27884
813.279	27823
813.421	27751
813.562	27606
813.703	27481
813.845	27435
813.986	27157
814.127	26956
814.268	26979
814.41	26940
814.551	26899
814.692	26929
814.833	26929
814.974	26906
815.115	26887
815.256	26792
815.397	26826
815.539	26796
815.68	26743
815.821	26712
815.962	26826
816.103	26667
816.244	26621
816.385	26453
816.526	26415
816.666	26351
816.807	26172
816.948	26176
817.089	26229
817.23	26172
817.371	26138
817.512	26081
817.653	26183
817.793	26084
817.934	26263
818.075	26168
818.216	26191
818.356	26317
818.497	25997
818.638	25936
818.778	25982
818.919	25791
819.06	25997
819.2	26039
819.341	26256
819.481	26138
819.622	26298
819.762	26453
819.903	26469
820.043	26229
820.184	26381
820.324	26336
820.465	26317
820.605	26343
820.746	26191
820.886	26183
821.026	26355
821.167	26199
821.307	26248
821.447	26168
821.588	26161
821.728	25955
821.868	25746
822.008	25559
822.149	25696
822.289	25556
822.429	25453
822.569	25244
822.709	25411
822.849	25091
822.99	25042
823.13	25004
823.27	25027
823.41	25000
823.55	24897
823.69	24996
823.83	24954
823.97	24878
824.11	24772
824.25	24707
824.389	24677
824.529	24905
824.669	24787
824.809	24882
824.949	24734
825.089	24821
825.228	24642
825.368	24661
825.508	24661
825.648	24631
825.787	24601
825.927	24707
826.067	24585
826.206	24681
826.346	24673
826.485	24635
826.625	24631
826.765	24722
826.904	24658
827.044	24399
827.183	24464
827.323	24266
827.462	24471
827.601	24323
827.741	24334
827.88	24460
828.02	24140
828.159	24346
828.298	24422
828.437	24471
828.577	24228
828.716	24399
828.855	24266
828.994	24015
829.134	24114
829.273	24076
829.412	24015
829.551	23973
829.69	24041
829.829	24102
829.968	24167
830.107	24095
830.246	24045
830.385	23977
830.524	23946
830.663	23885
830.802	23668
830.941	23657
831.08	23608
831.219	23684
831.357	23722
831.496	23855
831.635	23661
831.774	23452
831.913	23505
832.051	23345
832.19	23349
832.329	23391
832.467	23398
832.606	23220
832.744	23307
832.883	23406
833.022	23341
833.16	23448
833.299	23406
833.437	23277
833.576	23341
833.714	23250
833.852	23429
833.991	23364
834.129	23490
834.267	23425
834.406	23512
834.544	23414
834.682	23490
834.821	23227
834.959	23493
835.097	23372
835.235	23303
835.373	23315
835.511	23307
835.65	23307
835.788	23326
835.926	23037
836.064	23048
836.202	23067
836.34	23098
836.478	23284
836.615	23318
836.753	23124
836.891	23242
837.029	23189
837.167	23254
837.305	23064
837.443	23132
837.58	23018
837.718	23098
837.856	22957
837.993	22908
838.131	22961
838.269	22881
838.406	22938
838.544	22744
838.681	22763
838.819	22653
838.956	22546
839.094	22542
839.231	22702
839.369	22687
839.506	22972
839.643	22786
839.781	22565
839.918	22447
840.055	22550
840.193	22580
840.33	22497
840.467	22527
840.604	22580
840.742	22740
840.879	22390
841.016	22394
841.153	22230
841.29	22607
841.427	22398
841.564	22440
841.701	22436
841.838	22402
841.975	22333
842.112	22363
842.249	22287
842.385	22215
842.522	22527
842.659	22200
842.796	22230
842.933	22177
843.069	22291
843.206	22162
843.343	22295
843.479	22238
843.616	22234
843.752	21994
843.889	22070
844.025	22143
844.162	21915
844.298	22082
844.435	22013
844.571	21930
844.708	22067
844.844	22200
844.98	22105
845.117	22150
845.253	21953
845.389	21850
845.525	21884
845.661	21819
845.798	21789
845.934	21838
846.07	21629
846.206	21732
846.342	21774
846.478	21656
846.614	21576
846.75	21283
846.886	21462
847.022	21507
847.158	21526
847.294	21504
847.429	21348
847.565	21420
847.701	21633
847.837	21283
847.972	21157
848.108	21340
848.244	21298
848.379	21127
848.515	21047
848.65	20975
848.786	21043
848.921	20990
849.057	21188
849.192	21161
849.328	21062
849.463	21036
849.598	21017
849.734	20994
849.869	20902
850.004	20804
850.14	20800
850.275	20842
850.41	20735
850.545	20743
850.68	20800
850.815	20861
850.95	20823
851.085	21001
851.22	20982
851.355	20758
851.49	20807
851.625	20811
851.76	20857
851.895	20746
852.03	20773
852.165	20800
852.299	20769
852.434	20758
852.569	20796
852.703	20906
852.838	20986
852.973	20921
853.107	20925
853.242	20777
853.376	20701
853.511	20541
853.645	20590
853.78	20758
853.914	20526
854.048	20613
854.183	20545
854.317	20606
854.451	20807
854.585	20735
854.72	20663
854.854	20800
854.988	20594
855.122	20693
855.256	20438
855.39	20636
855.524	20636
855.658	20636
855.792	20663
855.926	20632
856.06	20716
856.194	20853
856.327	20693
856.461	20518
856.595	20617
856.729	20609
856.862	20781
856.996	20716
857.13	20625
857.263	20701
857.397	20724
857.53	20571
857.664	20606
857.797	20625
857.931	20674
858.064	20632
858.197	20788
858.331	20746
858.464	20659
858.597	20560
858.731	20651
858.864	20625
858.997	20587
859.13	20613
859.263	20503
859.396	20693
859.529	20663
859.662	20533
859.795	20511
859.928	20705
860.061	20727
860.194	20838
860.327	20629
860.46	20526
860.592	20762
860.725	20735
860.858	20735
860.99	20701
861.123	20507
861.256	20686
861.388	20735
861.521	21252
861.653	20511
861.786	20358
861.918	20419
862.05	20541
862.183	20518
862.315	20609
862.447	20587
862.58	20552
862.712	20381
862.844	20324
862.976	20461
863.108	20355
863.24	20750
863.372	20328
863.504	20328
863.636	20305
863.768	20381
863.9	20393
864.032	20396
864.164	20355
864.296	20427
864.428	20396
864.559	20404
864.691	20495
864.823	20362
864.954	20294
865.086	20374
865.217	20355
865.349	20176
865.48	20290
865.612	20317
865.743	20492
865.875	20328
866.006	20305
866.137	20286
866.269	20153
866.4	20202
866.531	20138
866.662	20153
866.793	20134
866.924	20225
867.055	20244
867.186	20229
867.317	20191
867.448	20145
867.579	20237
867.71	20126
867.841	20183
867.972	20195
868.103	20180
868.233	20263
868.364	20267
868.495	20214
868.625	20370
868.756	20480
868.886	20526
869.017	20332
869.147	20526
869.278	20594
869.408	20530
869.539	20480
869.669	20514
869.799	20419
869.929	20583
870.06	20522
870.19	20678
870.32	20746
870.45	20830
870.58	20853
870.71	20975
870.84	20941
870.97	20838
871.1	20788
871.23	21036
871.36	21028
871.489	20982
871.619	21009
871.749	21058
871.879	21119
872.008	21032
872.138	21089
872.267	21013
872.397	20800
872.526	20857
872.656	20823
872.785	20762
872.915	21146
873.044	21150
873.173	21058
873.303	21108
873.432	21131
873.561	21123
873.69	21020
873.819	21013
873.948	21154
874.077	21096
874.206	20902
874.335	21066
874.464	21131
874.593	21325
874.722	21275
874.851	21424
874.979	21306
875.108	21386
875.237	21157
875.365	21180
875.494	21344
875.623	21329
875.751	21241
875.88	21211
876.008	21587
876.136	21534
876.265	21766
876.393	21873
876.521	21774
876.65	21812
876.778	21633
876.906	21641
877.034	21625
877.162	21713
877.29	21641
877.418	21603
877.546	21652
877.674	21667
877.802	21690
877.93	21633
878.058	21637
878.185	21679
878.313	21507
878.441	21587
878.568	21401
878.696	21652
878.824	21679
878.951	21732
879.079	21876
879.206	21972
879.333	21865
879.461	21622
879.588	21797
879.715	21812
879.842	21823
879.97	21713
880.097	21420
880.224	21526
880.351	21469
880.478	21443
880.605	21530
880.732	21450
880.859	21614
880.986	21481
881.112	21450
881.239	21382
881.366	21306
881.493	21249
881.619	21100
881.746	21039
881.872	21104
881.999	21001
882.125	20982
882.252	21093
882.378	20986
882.505	21184
882.631	20838
882.757	20815
882.883	20800
883.01	20838
883.136	20693
883.262	20651
883.388	20609
883.514	20853
883.64	20868
883.766	20773
883.892	20518
884.018	20537
884.143	20746
884.269	20739
884.395	20503
884.52	20419
884.646	20488
884.772	20229
884.897	20366
885.023	20377
885.148	20457
885.274	20518
885.399	20568
885.524	20381
885.65	20393
885.775	20404
885.9	20347
886.025	20579
886.15	20465
886.275	20377
886.4	20305
886.525	20412
886.65	20278
886.775	20313
886.9	20518
887.025	20648
887.149	20423
887.274	20282
887.399	20214
887.523	20115
887.648	20119
887.773	20122
887.897	20282
888.021	20130
888.146	20134
888.27	20263
888.395	20320
888.519	20263
888.643	20084
888.767	20195
888.891	20062
889.015	20012
889.139	20153
889.263	19982
889.387	20263
889.511	20149
889.635	20024
889.759	20008
889.883	20001
890.006	19940
890.13	20031
890.254	19841
890.377	19883
890.501	19784
890.624	19734
890.748	19776
890.871	19719
890.995	19670
891.118	19472
891.241	19700
891.364	19552
891.488	19734
891.611	19677
891.734	19620
891.857	19647
891.98	19548
892.103	19597
892.226	19624
892.349	19438
892.471	19426
892.594	19506
892.717	19495
892.839	19559
892.962	19499
893.085	19658
893.207	19464
893.33	19354
893.452	19434
893.575	19578
893.697	19411
893.819	19514
893.941	19620
894.064	19613
894.186	19426
894.308	19476
894.43	19571
894.552	19651
894.674	19533
894.796	19422
894.918	19396
895.04	19335
895.161	19540
895.283	19590
895.405	19419
895.526	19499
895.648	19632
895.769	19529
895.891	19525
896.012	19578
896.134	19544
896.255	19502
896.376	19438
896.498	19472
896.619	19514
896.74	19544
896.861	19487
896.982	19814
897.103	20020
897.224	19807
897.345	19731
897.466	19704
897.587	19822
897.708	19898
897.828	19807
897.949	19632
898.07	19594
898.19	19651
898.311	19791
898.431	19681
898.552	19674
898.672	19803
898.792	19769
898.913	19791
899.033	19590
899.153	19502
899.273	19514
899.393	19559
899.513	19430
899.633	19571
899.753	19457
899.873	19403
899.993	19563
900.113	19468
900.232	19567
900.352	19502
900.472	19331
900.591	19217
900.711	19213
900.83	19301
900.95	19365
901.069	19350
901.189	19209
901.308	18875
901.427	18814
901.546	18901
901.665	18909
901.784	18924
901.904	18840
902.023	18684
902.141	18559
902.26	18319
902.379	18433
902.498	18300
902.617	18384
902.735	18452
902.854	18483
902.973	18270
903.091	18102
903.21	18003
903.328	18091
903.446	17916
903.565	17912
903.683	17775
903.801	17737
903.919	17832
904.038	17874
904.156	17836
904.274	17817
904.392	17638
904.51	17535
904.627	17627
904.745	17745
904.863	17619
904.981	17341
905.098	17349
905.216	17379
905.334	17292
905.451	17334
905.569	17227
905.686	17303
905.803	17273
905.921	17143
906.038	17227
906.155	17121
906.272	17041
906.389	17025
906.506	16866
906.623	16904
906.74	16946
906.857	16740
906.974	16786
907.091	16847
907.208	16980
907.324	16801
907.441	16740
907.557	16550
907.674	16611
907.79	16519
907.907	16649
908.023	16630
908.139	16607
908.256	16390
908.372	16573
908.488	16455
908.604	16436
908.72	16284
908.836	16329
908.952	16215
909.068	16310
909.184	16402
909.3	16390
909.415	16386
909.531	16249
909.647	16021
909.762	16139
909.878	16029
909.993	16032
910.108	16006
910.224	15998
910.339	15949
910.454	15991
910.57	15842
910.685	15800
910.8	16086
910.915	16048
911.03	15869
911.145	15629
911.259	15591
911.374	15622
911.489	15591
911.604	15595
911.718	15378
911.833	15374
911.947	15370
912.062	15207
912.176	15545
912.291	15435
912.405	15450
912.519	15614
912.633	15462
912.748	15428
912.862	15310
912.976	15214
913.09	15108
913.204	15161
913.318	15214
913.431	15325
913.545	15264
913.659	15291
913.772	15146
913.886	14986
914	15013
914.113	15127
914.226	15195
914.34	15093
914.453	14754
914.566	15024
914.68	14883
914.793	14800
914.906	14735
915.019	14712
915.132	14556
915.245	14670
915.358	14632
915.47	14549
915.583	14583
915.696	14640
915.809	14754
915.921	14716
916.034	14594
916.146	14648
916.259	14473
916.371	14648
916.483	14640
916.595	14552
916.708	14446
916.82	14408
916.932	14457
917.044	14480
917.156	14351
917.268	14256
917.38	14290
917.491	14370
917.603	14347
917.715	14248
917.826	14355
917.938	14233
918.049	14145
918.161	14195
918.272	14343
918.384	14400
918.495	14305
918.606	14103
918.717	14043
918.828	14149
918.939	14084
919.05	13925
919.161	13967
919.272	13909
919.383	13970
919.494	14111
919.604	14256
919.715	13989
919.826	13986
919.936	14123
920.047	14062
920.157	14008
920.267	14214
920.378	14115
920.488	13967
920.598	14225
920.708	14343
920.818	14195
920.928	14199
921.038	14275
921.148	14355
921.258	13982
921.368	13951
921.477	13738
921.587	13738
921.697	13620
921.806	13814
921.916	13655
922.025	13400
922.134	13464
922.244	13384
922.353	13510
922.462	13381
922.571	13312
922.68	13080
922.789	13057
922.898	13084
923.007	13042
923.116	13107
923.224	13107
923.333	13050
923.442	13031
923.55	12863
923.659	12913
923.767	13050
923.876	12852
923.984	12932
924.092	12810
924.201	12848
924.309	12901
924.417	12878
924.525	12738
924.633	12795
924.741	13472
924.849	12555
924.956	12741
925.064	12593
925.172	12452
925.279	12467
925.387	12623
925.494	12627
925.602	12711
925.709	12612
925.816	12448
925.924	12547
926.031	12563
926.138	12528
926.245	12490
926.352	12426
926.459	12502
926.566	12597
926.673	12460
926.779	12270
926.886	12315
926.993	12175
927.099	12136
927.206	12011
927.312	11996
927.419	12140
927.525	12095
927.631	12049
927.737	11961
927.843	11969
927.95	11920
928.056	11984
928.162	11973
928.267	11996
928.373	12559
928.479	12019
928.585	11783
928.69	11954
928.796	12030
928.901	11809
929.007	11710
929.112	11882
929.218	11855
929.323	11741
929.428	11688
929.533	11775
929.638	11611
929.743	11581
929.848	11684
929.953	11668
930.058	11436
930.163	11288
930.267	11436
930.372	11501
930.477	11341
930.581	11570
930.685	11410
930.79	11254
930.894	11208
930.998	11250
931.103	11376
931.207	11060
931.311	10885
931.415	10877
931.519	10694
931.623	10752
