Data from test_V78500241_396.txt Node
Date: Fri Mar 25 15:12:37 CST 2022
User: usil
Spectrometer: V785-0024
Trigger mode: 0
Integration Time (sec): 4.000000E-1
Scans to average: 1
Nonlinearity correction enabled: false
Boxcar width: 0
Storing dark spectrum: false
XAxis mode: Wavelengths
Number of Pixels in Spectrum: 1024
>>>>>Begin Spectral Data<<<<<
801.071	27062
801.214	26891
801.356	26686
801.499	26613
801.641	26533
801.783	26469
801.926	26621
802.068	26385
802.211	26408
802.353	26526
802.496	26221
802.638	26225
802.78	26065
802.923	26039
803.065	26130
803.208	26046
803.35	26077
803.492	26161
803.635	26408
803.777	26195
803.919	26343
804.061	26518
804.204	26393
804.346	26225
804.488	26244
804.63	26355
804.773	26031
804.915	26355
805.057	26374
805.199	26240
805.341	26351
805.483	26412
805.626	26389
805.768	26233
805.91	26419
806.052	26389
806.194	26275
806.336	26594
806.478	26484
806.62	26427
806.762	26355
806.904	26640
807.046	26929
807.188	26796
807.33	26807
807.472	26849
807.614	26739
807.756	26754
807.898	26522
808.04	26507
808.182	26602
808.324	26712
808.465	26613
808.607	26800
808.749	26872
808.891	27131
809.033	26979
809.174	27138
809.316	26948
809.458	27020
809.6	26823
809.741	27070
809.883	27116
810.025	27085
810.166	27150
810.308	27192
810.45	27241
810.591	27294
810.733	26940
810.875	26876
811.016	26804
811.158	26933
811.299	27062
811.441	26967
811.582	26986
811.724	27024
811.865	26872
812.007	26914
812.148	26834
812.29	27047
812.431	26952
812.573	27268
812.714	27363
812.855	27332
812.997	27667
813.138	27641
813.279	27572
813.421	27545
813.562	27466
813.703	27207
813.845	27176
813.986	26918
814.127	26845
814.268	26670
814.41	26492
814.551	26453
814.692	26697
814.833	26488
814.974	26564
815.115	26575
815.256	26469
815.397	26571
815.539	26499
815.68	26408
815.821	26404
815.962	26415
816.103	26336
816.244	26214
816.385	26210
816.526	26130
816.666	25947
816.807	25750
816.948	25955
817.089	26050
817.23	25921
817.371	25845
817.512	25898
817.653	26035
817.793	25917
817.934	25788
818.075	25852
818.216	25651
818.356	25818
818.497	25791
818.638	25559
818.778	25620
818.919	25605
819.06	25643
819.2	25586
819.341	25791
819.481	25791
819.622	26062
819.762	26077
819.903	26202
820.043	26081
820.184	25947
820.324	25803
820.465	26138
820.605	26077
820.746	25947
820.886	25856
821.026	25970
821.167	25917
821.307	25913
821.447	25856
821.588	25845
821.728	25757
821.868	25643
822.008	25457
822.149	25419
822.289	25343
822.429	25019
822.569	24973
822.709	24970
822.849	24981
822.99	24863
823.13	24700
823.27	24741
823.41	24654
823.55	24505
823.69	24688
823.83	24608
823.97	24532
824.11	24388
824.25	24490
824.389	24445
824.529	24479
824.669	24505
824.809	24570
824.949	24578
825.089	24540
825.228	24642
825.368	24323
825.508	24296
825.648	24384
825.787	24414
825.927	24304
826.067	24220
826.206	24372
826.346	24384
826.485	24311
826.625	24315
826.765	24452
826.904	24270
827.044	24064
827.183	24190
827.323	24114
827.462	24045
827.601	24152
827.741	24079
827.88	24064
828.02	23942
828.159	23996
828.298	23973
828.437	24087
828.577	23927
828.716	24117
828.855	24007
828.994	23710
829.134	23847
829.273	23771
829.412	23562
829.551	23649
829.69	23707
829.829	23726
829.968	23851
830.107	23802
830.246	23843
830.385	23760
830.524	23710
830.663	23642
830.802	23452
830.941	23349
831.08	23318
831.219	23478
831.357	23543
831.496	23531
831.635	23474
831.774	23334
831.913	23220
832.051	23220
832.19	23231
832.329	23269
832.467	23113
832.606	22972
832.744	22934
832.883	23075
833.022	23174
833.16	23216
833.299	23067
833.437	23041
833.576	23132
833.714	23060
833.852	23288
833.991	23109
834.129	23345
834.267	23280
834.406	23079
834.544	23140
834.682	23056
834.821	23094
834.959	23311
835.097	23044
835.235	23109
835.373	23083
835.511	23155
835.65	23071
835.788	22995
835.926	22938
836.064	22740
836.202	22801
836.34	23044
836.478	23067
836.615	22835
836.753	23006
836.891	23044
837.029	22934
837.167	22984
837.305	22835
837.443	22801
837.58	22885
837.718	22911
837.856	22816
837.993	22729
838.131	22793
838.269	22687
838.406	22839
838.544	22679
838.681	22462
838.819	22451
838.956	22284
839.094	22428
839.231	22352
839.369	22455
839.506	22584
839.643	22588
839.781	22379
839.918	22234
840.055	22314
840.193	22306
840.33	22223
840.467	22386
840.604	22173
840.742	22653
840.879	22150
841.016	22246
841.153	22128
841.29	22382
841.427	22299
841.564	22382
841.701	22295
841.838	22318
841.975	22188
842.112	22101
842.249	22147
842.385	22021
842.522	22116
842.659	22017
842.796	22055
842.933	22082
843.069	22048
843.206	21922
843.343	22116
843.479	22074
843.616	21789
843.752	21743
843.889	21755
844.025	21941
844.162	21755
844.298	21751
844.435	21823
844.571	21808
844.708	21800
844.844	21918
844.98	21831
845.117	21869
845.253	21728
845.389	21675
845.525	21846
845.661	21599
845.798	21511
845.934	21564
846.07	21534
846.206	21644
846.342	21618
846.478	21545
846.614	21348
846.75	21252
846.886	21256
847.022	21329
847.158	21218
847.294	21218
847.429	21310
847.565	21241
847.701	21488
847.837	21024
847.972	20944
848.108	21161
848.244	21108
848.379	20963
848.515	20838
848.65	20861
848.786	20762
848.921	20918
849.057	21112
849.192	20979
849.328	20834
849.463	20906
849.598	20804
849.734	20861
849.869	20739
850.004	20621
850.14	20720
850.275	20686
850.41	20617
850.545	20541
850.68	20602
850.815	20541
850.95	20556
851.085	20762
851.22	20693
851.355	20651
851.49	20686
851.625	20598
851.76	20590
851.895	20545
852.03	20545
852.165	20636
852.299	20705
852.434	20667
852.569	20785
852.703	20594
852.838	20727
852.973	20765
853.107	20686
853.242	20606
853.376	20606
853.511	20229
853.645	20423
853.78	20583
853.914	20473
854.048	20343
854.183	20454
854.317	20533
854.451	20560
854.585	20495
854.72	20522
854.854	20587
854.988	20305
855.122	20408
855.256	20275
855.39	20450
855.524	20389
855.658	20438
855.792	20484
855.926	20434
856.06	20457
856.194	20476
856.327	20492
856.461	20393
856.595	20324
856.729	20499
856.862	20552
856.996	20412
857.13	20583
857.263	20564
857.397	20533
857.53	20495
857.664	20568
857.797	20507
857.931	20495
858.064	20484
858.197	20609
858.331	20598
858.464	20438
858.597	20309
858.731	20381
858.864	20385
858.997	20450
859.13	20324
859.263	20408
859.396	20537
859.529	20461
859.662	20427
859.795	20362
859.928	20484
860.061	20545
860.194	20727
860.327	20431
860.46	20488
860.592	20473
860.725	20636
860.858	20670
860.99	20454
861.123	20385
861.256	20282
861.388	20374
861.521	21260
861.653	20332
861.786	20202
861.918	20282
862.05	20446
862.183	20362
862.315	20488
862.447	20533
862.58	20438
862.712	20199
862.844	20168
862.976	20214
863.108	20309
863.24	20640
863.372	20115
863.504	20210
863.636	20221
863.768	20252
863.9	20142
864.032	20161
864.164	20081
864.296	20157
864.428	20271
864.559	20233
864.691	20210
864.823	20157
864.954	20100
865.086	20187
865.217	20084
865.349	20054
865.48	20115
865.612	20275
865.743	20233
865.875	20172
866.006	20035
866.137	20069
866.269	20020
866.4	20126
866.531	20027
866.662	20046
866.793	20008
866.924	20115
867.055	19955
867.186	20088
867.317	20016
867.448	19871
867.579	20008
867.71	19970
867.841	19921
867.972	20050
868.103	20161
868.233	20035
868.364	20031
868.495	20073
868.625	20187
868.756	20347
868.886	20229
869.017	20278
869.147	20355
869.278	20381
869.408	20301
869.539	20248
869.669	20389
869.799	20286
869.929	20427
870.06	20442
870.19	20571
870.32	20480
870.45	20651
870.58	20678
870.71	20815
870.84	20765
870.97	20762
871.1	20678
871.23	20838
871.36	20929
871.489	20834
871.619	20861
871.749	20853
871.879	20891
872.008	21051
872.138	20914
872.267	20975
872.397	20804
872.526	20670
872.656	20686
872.785	20739
872.915	20979
873.044	21116
873.173	20902
873.303	20971
873.432	21077
873.561	21032
873.69	20918
873.819	20963
873.948	20975
874.077	20834
874.206	20872
874.335	20845
874.464	21085
874.593	21237
874.722	21252
874.851	21161
874.979	21112
875.108	21218
875.237	21093
875.365	21233
875.494	21176
875.623	21241
875.751	21180
875.88	21214
876.008	21272
876.136	21336
876.265	21553
876.393	21690
876.521	21641
876.65	21500
876.778	21458
876.906	21553
877.034	21458
877.162	21473
877.29	21443
877.418	21492
877.546	21523
877.674	21542
877.802	21564
877.93	21523
878.058	21515
878.185	21420
878.313	21511
878.441	21488
878.568	21355
878.696	21481
878.824	21511
878.951	21618
879.079	21637
879.206	21903
879.333	21743
879.461	21587
879.588	21564
879.715	21686
879.842	21781
879.97	21648
880.097	21439
880.224	21389
880.351	21298
880.478	21428
880.605	21260
880.732	21378
880.859	21603
880.986	21378
881.112	21401
881.239	21157
881.366	21058
881.493	20994
881.619	20883
881.746	21009
881.872	20944
881.999	20929
882.125	20834
882.252	20925
882.378	20971
882.505	21104
882.631	20777
882.757	20629
882.883	20804
883.01	20743
883.136	20556
883.262	20560
883.388	20488
883.514	20686
883.64	20613
883.766	20511
883.892	20465
884.018	20454
884.143	20495
884.269	20708
884.395	20427
884.52	20336
884.646	20282
884.772	20263
884.897	20168
885.023	20366
885.148	20339
885.274	20434
885.399	20381
885.524	20355
885.65	20374
885.775	20320
885.9	20164
886.025	20473
886.15	20389
886.275	20252
886.4	20138
886.525	20275
886.65	20305
886.775	20286
886.9	20362
887.025	20374
887.149	20195
887.274	20088
887.399	20005
887.523	20126
887.648	19989
887.773	19997
887.897	20161
888.021	20069
888.146	19944
888.27	20183
888.395	20126
888.519	20081
888.643	20020
888.767	20195
888.891	20024
889.015	20005
889.139	20039
889.263	19845
889.387	19978
889.511	20062
889.635	19989
889.759	19837
889.883	19814
890.006	19890
890.13	19879
890.254	19868
890.377	19822
890.501	19601
890.624	19613
890.748	19795
890.871	19575
890.995	19335
891.118	19438
891.241	19460
891.364	19453
891.488	19586
891.611	19540
891.734	19457
891.857	19491
891.98	19506
892.103	19487
892.226	19506
892.349	19426
892.471	19320
892.594	19434
892.717	19388
892.839	19202
892.962	19457
893.085	19449
893.207	19403
893.33	19320
893.452	19255
893.575	19403
893.697	19403
893.819	19510
893.941	19559
894.064	19575
894.186	19362
894.308	19168
894.43	19495
894.552	19438
894.674	19575
894.796	19270
894.918	19274
895.04	19301
895.161	19480
895.283	19434
895.405	19392
895.526	19358
895.648	19415
895.769	19419
895.891	19540
896.012	19396
896.134	19472
896.255	19407
896.376	19384
896.498	19499
896.619	19499
896.74	19438
896.861	19445
896.982	19704
897.103	19814
897.224	19685
897.345	19533
897.466	19643
897.587	19460
897.708	19719
897.828	19700
897.949	19613
898.07	19426
898.19	19635
898.311	19769
898.431	19491
898.552	19719
898.672	19685
898.792	19655
898.913	19666
899.033	19487
899.153	19445
899.273	19476
899.393	19449
899.513	19400
899.633	19426
899.753	19434
899.873	19441
899.993	19362
900.113	19430
900.232	19308
900.352	19331
900.472	19190
900.591	19129
900.711	19244
900.83	19213
900.95	19202
901.069	19259
901.189	19050
901.308	18825
901.427	18776
901.546	18734
901.665	18768
901.784	18753
901.904	18608
902.023	18498
902.141	18410
902.26	18277
902.379	18346
902.498	18289
902.617	18205
902.735	18266
902.854	18247
902.973	18235
903.091	18015
903.21	17961
903.328	17885
903.446	17847
903.565	17767
903.683	17798
903.801	17493
903.919	17779
904.038	17695
904.156	17600
904.274	17539
904.392	17547
904.51	17509
904.627	17520
904.745	17570
904.863	17562
904.981	17387
905.098	17242
905.216	17261
905.334	17337
905.451	17227
905.569	17136
905.686	17254
905.803	17212
905.921	16976
906.038	17132
906.155	17010
906.272	16881
906.389	17033
906.506	16725
906.623	16839
906.74	16786
906.857	16698
906.974	16634
907.091	16839
907.208	16801
907.324	16824
907.441	16603
907.557	16683
907.674	16485
907.79	16409
907.907	16417
908.023	16554
908.139	16485
908.256	16455
908.372	16325
908.488	16337
908.604	16272
908.72	16093
908.836	16280
908.952	16143
909.068	16219
909.184	16337
909.3	16147
909.415	16257
909.531	16173
909.647	15941
909.762	15918
909.878	15895
909.993	15865
910.108	15865
910.224	15850
910.339	15972
910.454	15762
910.57	15736
910.685	15671
910.8	15907
910.915	15865
911.03	15812
911.145	15618
911.259	15485
911.374	15572
911.489	15530
911.604	15401
911.718	15249
911.833	15291
911.947	15211
912.062	15089
912.176	15344
912.291	15294
912.405	15264
912.519	15416
912.633	15378
912.748	15260
912.862	15256
912.976	15047
913.09	14910
913.204	15039
913.318	15081
913.431	15104
913.545	15116
913.659	15184
913.772	15001
913.886	15024
914	14895
914.113	14998
914.226	15062
914.34	14941
914.453	14765
914.566	14994
914.68	14758
914.793	14834
914.906	14678
915.019	14583
915.132	14408
915.245	14522
915.358	14533
915.47	14545
915.583	14492
915.696	14625
915.809	14674
915.921	14697
916.034	14488
916.146	14533
916.259	14454
916.371	14590
916.483	14480
916.595	14450
916.708	14389
916.82	14358
916.932	14271
917.044	14336
917.156	14263
917.268	14161
917.38	14290
917.491	14172
917.603	14244
917.715	14248
917.826	14240
917.938	14157
918.049	14058
918.161	14123
918.272	14351
918.384	14298
918.495	14157
918.606	13928
918.717	14043
918.828	14031
918.939	13978
919.05	13845
919.161	13970
919.272	13822
919.383	13791
919.494	14100
919.604	14210
919.715	13970
919.826	13932
919.936	13849
920.047	14092
920.157	14005
920.267	14126
920.378	13989
920.488	13940
920.598	14096
920.708	14263
920.818	14130
920.928	14081
921.038	14225
921.148	14103
921.258	13947
921.368	13868
921.477	13681
921.587	13761
921.697	13540
921.806	13677
921.916	13571
922.025	13453
922.134	13400
922.244	13240
922.353	13392
922.462	13304
922.571	13103
922.68	13031
922.789	13076
922.898	13080
923.007	13008
923.116	12993
923.224	12985
923.333	12985
923.442	12939
923.55	12700
923.659	12878
923.767	12856
923.876	12753
923.984	12833
924.092	12642
924.201	12802
924.309	12817
924.417	12719
924.525	12707
924.633	12654
924.741	13636
924.849	12521
924.956	12608
925.064	12509
925.172	12441
925.279	12486
925.387	12418
925.494	12429
925.602	12566
925.709	12551
925.816	12353
925.924	12460
926.031	12483
926.138	12410
926.245	12407
926.352	12292
926.459	12486
926.566	12494
926.673	12350
926.779	12216
926.886	12178
926.993	12098
927.099	12003
927.206	11992
927.312	12038
927.419	12038
927.525	12034
927.631	12072
927.737	11901
927.843	11904
927.95	11817
928.056	11950
928.162	11874
928.267	11935
928.373	12437
928.479	11923
928.585	11684
928.69	11851
928.796	11901
928.901	11752
929.007	11558
929.112	11745
929.218	11699
929.323	11630
929.428	11649
929.533	11771
929.638	11459
929.743	11554
929.848	11600
929.953	11547
930.058	11459
930.163	11322
930.267	11315
930.372	11421
930.477	11227
930.581	11581
930.685	11345
930.79	11273
930.894	11223
930.998	11277
931.103	11322
931.207	10987
931.311	10885
931.415	10755
931.519	10611
931.623	10565
