Data from test_V78500241_111.txt Node
Date: Fri Mar 25 15:10:38 CST 2022
User: usil
Spectrometer: V785-0024
Trigger mode: 0
Integration Time (sec): 4.000000E-1
Scans to average: 1
Nonlinearity correction enabled: false
Boxcar width: 0
Storing dark spectrum: false
XAxis mode: Wavelengths
Number of Pixels in Spectrum: 1024
>>>>>Begin Spectral Data<<<<<
801.071	28128
801.214	27956
801.356	27835
801.499	27865
801.641	27534
801.783	27504
801.926	27694
802.068	27572
802.211	27473
802.353	27439
802.496	27294
802.638	27233
802.78	27135
802.923	27055
803.065	27104
803.208	27135
803.35	27226
803.492	27370
803.635	27142
803.777	27222
803.919	27226
804.061	27504
804.204	27355
804.346	27100
804.488	27291
804.63	27245
804.773	27047
804.915	27329
805.057	27268
805.199	27180
805.341	27310
805.483	27378
805.626	27317
805.768	27169
805.91	27306
806.052	27408
806.194	27241
806.336	27515
806.478	27393
806.62	27241
806.762	27359
806.904	27519
807.046	27797
807.188	27675
807.33	27682
807.472	27679
807.614	27644
807.756	27759
807.898	27492
808.04	27660
808.182	27530
808.324	27549
808.465	27485
808.607	27648
808.749	27846
808.891	27800
809.033	27960
809.174	27930
809.316	27842
809.458	27869
809.6	27819
809.741	27907
809.883	27838
810.025	28002
810.166	28112
810.308	27994
810.45	28059
810.591	28029
810.733	27823
810.875	27751
811.016	27656
811.158	27804
811.299	27823
811.441	27793
811.582	27907
811.724	27553
811.865	27663
812.007	27774
812.148	27751
812.29	27736
812.431	27934
812.573	28059
812.714	28131
812.855	28230
812.997	28360
813.138	28508
813.279	28325
813.421	28207
813.562	28158
813.703	28078
813.845	27819
813.986	27648
814.127	27553
814.268	27382
814.41	27355
814.551	27359
814.692	27660
814.833	27310
814.974	27287
815.115	27336
815.256	27336
815.397	27279
815.539	27249
815.68	27081
815.821	27047
815.962	27013
816.103	27028
816.244	27024
816.385	26807
816.526	26933
816.666	26552
816.807	26476
816.948	26613
817.089	26545
817.23	26587
817.371	26530
817.512	26503
817.653	26560
817.793	26507
817.934	26625
818.075	26549
818.216	26476
818.356	26480
818.497	26423
818.638	26278
818.778	26218
818.919	26248
819.06	26404
819.2	26385
819.341	26453
819.481	26469
819.622	26499
819.762	26613
819.903	26800
820.043	26594
820.184	26651
820.324	26533
820.465	26670
820.605	26499
820.746	26556
820.886	26431
821.026	26446
821.167	26419
821.307	26499
821.447	26370
821.588	26286
821.728	26176
821.868	26046
822.008	25909
822.149	25894
822.289	25868
822.429	25674
822.569	25487
822.709	25677
822.849	25324
822.99	25529
823.13	25411
823.27	25259
823.41	25187
823.55	25050
823.69	25023
823.83	25148
823.97	25190
824.11	25008
824.25	24897
824.389	24913
824.529	24913
824.669	24973
824.809	24886
824.949	25076
825.089	24985
825.228	25053
825.368	24757
825.508	24768
825.648	24798
825.787	24894
825.927	24772
826.067	24779
826.206	24741
826.346	24684
826.485	24703
826.625	24692
826.765	24760
826.904	24753
827.044	24403
827.183	24551
827.323	24334
827.462	24464
827.601	24410
827.741	24410
827.88	24323
828.02	24247
828.159	24410
828.298	24357
828.437	24479
828.577	24243
828.716	24513
828.855	24334
828.994	24102
829.134	24140
829.273	24152
829.412	24201
829.551	24041
829.69	24041
829.829	24213
829.968	24247
830.107	24136
830.246	24064
830.385	24106
830.524	23923
830.663	23973
830.802	23847
830.941	23699
831.08	23554
831.219	23726
831.357	23684
831.496	23821
831.635	23649
831.774	23665
831.913	23562
832.051	23558
832.19	23406
832.329	23509
832.467	23341
832.606	23299
832.744	23356
832.883	23353
833.022	23299
833.16	23379
833.299	23299
833.437	23284
833.576	23334
833.714	23410
833.852	23337
833.991	23440
834.129	23387
834.267	23467
834.406	23322
834.544	23322
834.682	23265
834.821	23391
834.959	23410
835.097	23265
835.235	23429
835.373	23250
835.511	23341
835.65	23132
835.788	23178
835.926	23003
836.064	22957
836.202	22961
836.34	23064
836.478	23258
836.615	23041
836.753	23136
836.891	23075
837.029	23204
837.167	23185
837.305	23117
837.443	22961
837.58	22934
837.718	23079
837.856	23048
837.993	22831
838.131	22942
838.269	22828
838.406	22904
838.544	22828
838.681	22645
838.819	22645
838.956	22489
839.094	22485
839.231	22466
839.369	22531
839.506	22790
839.643	22626
839.781	22573
839.918	22360
840.055	22493
840.193	22405
840.33	22276
840.467	22375
840.604	22367
840.742	22535
840.879	22139
841.016	22268
841.153	22173
841.29	22360
841.427	22348
841.564	22390
841.701	22310
841.838	22268
841.975	22188
842.112	22257
842.249	22101
842.385	22078
842.522	22158
842.659	22086
842.796	22036
842.933	22036
843.069	22078
843.206	21983
843.343	22150
843.479	21975
843.616	22017
843.752	21793
843.889	21747
844.025	21930
844.162	21663
844.298	21884
844.435	21778
844.571	21793
844.708	21709
844.844	21968
844.98	21903
845.117	21857
845.253	21743
845.389	21618
845.525	21728
845.661	21603
845.798	21500
845.934	21622
846.07	21431
846.206	21488
846.342	21580
846.478	21557
846.614	21329
846.75	21226
846.886	21283
847.022	21325
847.158	21294
847.294	21218
847.429	21279
847.565	21165
847.701	21405
847.837	20971
847.972	20925
848.108	20971
848.244	21017
848.379	20876
848.515	20845
848.65	20720
848.786	20758
848.921	20743
849.057	20868
849.192	20785
849.328	20788
849.463	20826
849.598	20720
849.734	20693
849.869	20705
850.004	20590
850.14	20415
850.275	20438
850.41	20427
850.545	20355
850.68	20533
850.815	20587
850.95	20469
851.085	20697
851.22	20716
851.355	20564
851.49	20431
851.625	20511
851.76	20526
851.895	20499
852.03	20396
852.165	20495
852.299	20651
852.434	20571
852.569	20415
852.703	20427
852.838	20655
852.973	20526
853.107	20590
853.242	20465
853.376	20286
853.511	20180
853.645	20263
853.78	20461
853.914	20358
854.048	20324
854.183	20294
854.317	20412
854.451	20511
854.585	20214
854.72	20309
854.854	20355
854.988	20183
855.122	20328
855.256	20050
855.39	20267
855.524	20400
855.658	20385
855.792	20313
855.926	20298
856.06	20313
856.194	20484
856.327	20290
856.461	20263
856.595	20206
856.729	20187
856.862	20492
856.996	20332
857.13	20336
857.263	20457
857.397	20389
857.53	20263
857.664	20400
857.797	20385
857.931	20415
858.064	20362
858.197	20438
858.331	20210
858.464	20282
858.597	20134
858.731	20278
858.864	20214
858.997	20210
859.13	20298
859.263	20229
859.396	20362
859.529	20233
859.662	20278
859.795	20183
859.928	20267
860.061	20298
860.194	20431
860.327	20210
860.46	20278
860.592	20317
860.725	20434
860.858	20294
860.99	20332
861.123	20275
861.256	20183
861.388	20263
861.521	20876
861.653	20088
861.786	20096
861.918	20027
862.05	20183
862.183	20301
862.315	20301
862.447	20351
862.58	20256
862.712	20103
862.844	19989
862.976	20050
863.108	20092
863.24	20514
863.372	19879
863.504	19871
863.636	19955
863.768	19974
863.9	19963
864.032	19879
864.164	20012
864.296	19917
864.428	20073
864.559	19989
864.691	19951
864.823	19963
864.954	19883
865.086	19917
865.217	19856
865.349	19765
865.48	19852
865.612	19879
865.743	19989
865.875	19921
866.006	19871
866.137	19818
866.269	19841
866.4	19887
866.531	19791
866.662	19719
866.793	19947
866.924	19807
867.055	19757
867.186	19845
867.317	19742
867.448	19696
867.579	19757
867.71	19780
867.841	19620
867.972	19784
868.103	19784
868.233	19799
868.364	19742
868.495	19879
868.625	19959
868.756	20111
868.886	20077
869.017	20149
869.147	20115
869.278	20122
869.408	20164
869.539	19989
869.669	20103
869.799	20088
869.929	20100
870.06	20111
870.19	20389
870.32	20286
870.45	20393
870.58	20351
870.71	20549
870.84	20564
870.97	20499
871.1	20374
871.23	20640
871.36	20678
871.489	20442
871.619	20644
871.749	20697
871.879	20697
872.008	20758
872.138	20606
872.267	20693
872.397	20499
872.526	20374
872.656	20465
872.785	20404
872.915	20644
873.044	20727
873.173	20579
873.303	20689
873.432	20826
873.561	20735
873.69	20769
873.819	20663
873.948	20708
874.077	20632
874.206	20590
874.335	20632
874.464	20758
874.593	20857
874.722	20891
874.851	20941
874.979	20902
875.108	21009
875.237	20807
875.365	20823
875.494	20967
875.623	20868
875.751	20853
875.88	20842
876.008	21024
876.136	21036
876.265	21344
876.393	21504
876.521	21496
876.65	21348
876.778	21268
876.906	21214
877.034	21249
877.162	21195
877.29	21260
877.418	21268
877.546	21287
877.674	21268
877.802	21260
877.93	21237
878.058	21165
878.185	21058
878.313	21275
878.441	21291
878.568	21154
878.696	21161
878.824	21336
878.951	21268
879.079	21367
879.206	21557
879.333	21488
879.461	21260
879.588	21287
879.715	21420
879.842	21538
879.97	21412
880.097	21017
880.224	21058
880.351	21180
880.478	21184
880.605	21074
880.732	21077
880.859	21279
880.986	21184
881.112	21074
881.239	20994
881.366	20826
881.493	20769
881.619	20727
881.746	20739
881.872	20632
881.999	20632
882.125	20651
882.252	20697
882.378	20636
882.505	20872
882.631	20575
882.757	20446
882.883	20484
883.01	20339
883.136	20377
883.262	20298
883.388	20294
883.514	20404
883.64	20408
883.766	20438
883.892	20237
884.018	20180
884.143	20332
884.269	20469
884.395	20103
884.52	20069
884.646	20077
884.772	20081
884.897	19925
885.023	20191
885.148	20134
885.274	20252
885.399	20145
885.524	20035
885.65	20054
885.775	20046
885.9	20027
886.025	20256
886.15	20195
886.275	20001
886.4	19928
886.525	19932
886.65	19963
886.775	19970
886.9	20073
887.025	20210
887.149	19928
887.274	19852
887.399	19833
887.523	19811
887.648	19769
887.773	19689
887.897	19864
888.021	19887
888.146	19776
888.27	19894
888.395	19936
888.519	19772
888.643	19925
888.767	19856
888.891	19658
889.015	19643
889.139	19605
889.263	19643
889.387	19689
889.511	19879
889.635	19670
889.759	19658
889.883	19594
890.006	19586
890.13	19753
890.254	19518
890.377	19518
890.501	19324
890.624	19301
890.748	19449
890.871	19289
890.995	19152
891.118	19225
891.241	19221
891.364	19274
891.488	19411
891.611	19270
891.734	19156
891.857	19316
891.98	19194
892.103	19247
892.226	19297
892.349	19110
892.471	18989
892.594	19228
892.717	19263
892.839	19114
892.962	19065
893.085	19270
893.207	19190
893.33	19027
893.452	18935
893.575	19190
893.697	19034
893.819	19217
893.941	19270
894.064	19206
894.186	19080
894.308	19023
894.43	19263
894.552	19187
894.674	19263
894.796	19137
894.918	19137
895.04	19053
895.161	19198
895.283	19129
895.405	19050
895.526	19110
895.648	19168
895.769	19103
895.891	19110
896.012	19198
896.134	19179
896.255	19270
896.376	19129
896.498	19213
896.619	19091
896.74	19114
896.861	19179
896.982	19552
897.103	19670
897.224	19464
897.345	19491
897.466	19339
897.587	19373
897.708	19594
897.828	19419
897.949	19308
898.07	19251
898.19	19240
898.311	19457
898.431	19202
898.552	19327
898.672	19457
898.792	19480
898.913	19369
899.033	19270
899.153	19000
899.273	18973
899.393	19168
899.513	19133
899.633	19126
899.753	19156
899.873	19053
899.993	18996
900.113	18962
900.232	19160
900.352	19053
900.472	18905
900.591	18814
900.711	18985
900.83	18966
900.95	19031
901.069	18993
901.189	18859
901.308	18654
901.427	18475
901.546	18597
901.665	18525
901.784	18418
901.904	18445
902.023	18445
902.141	18038
902.26	18076
902.379	18091
902.498	18015
902.617	17912
902.735	18003
902.854	18011
902.973	18026
903.091	17729
903.21	17672
903.328	17707
903.446	17520
903.565	17463
903.683	17577
903.801	17486
903.919	17490
904.038	17490
904.156	17231
904.274	17315
904.392	17223
904.51	17353
904.627	17227
904.745	17417
904.863	17296
904.981	17048
905.098	16999
905.216	16930
905.334	16850
905.451	16927
905.569	17124
905.686	17064
905.803	16938
905.921	16713
906.038	16908
906.155	16771
906.272	16569
906.389	16679
906.506	16443
906.623	16500
906.74	16504
906.857	16455
906.974	16367
907.091	16569
907.208	16630
907.324	16603
907.441	16363
907.557	16234
907.674	16223
907.79	16120
907.907	16181
908.023	16173
908.139	16219
908.256	16017
908.372	16055
908.488	16093
908.604	15835
908.72	15888
908.836	15937
908.952	15747
909.068	15831
909.184	15934
909.3	15804
909.415	15835
909.531	15915
909.647	15671
909.762	15663
909.878	15549
909.993	15633
910.108	15576
910.224	15477
910.339	15507
910.454	15454
910.57	15500
910.685	15382
910.8	15595
910.915	15504
911.03	15310
911.145	15230
911.259	15154
911.374	15154
911.489	15032
911.604	15081
911.718	15017
911.833	14880
911.947	14883
912.062	14743
912.176	14979
912.291	14849
912.405	14842
912.519	15024
912.633	15051
912.748	14967
912.862	14777
912.976	14689
913.09	14625
913.204	14655
913.318	14876
913.431	14853
913.545	14777
913.659	14842
913.772	14682
913.886	14598
914	14590
914.113	14678
914.226	14689
914.34	14705
914.453	14480
914.566	14621
914.68	14469
914.793	14431
914.906	14362
915.019	14210
915.132	14103
915.245	14145
915.358	14259
915.47	14256
915.583	14199
915.696	14290
915.809	14343
915.921	14298
916.034	14214
916.146	14176
916.259	14100
916.371	14157
916.483	14153
916.595	14073
916.708	13993
916.82	14073
916.932	13993
917.044	13951
917.156	14107
917.268	13818
917.38	13909
917.491	13780
917.603	13898
917.715	13936
917.826	13982
917.938	13830
918.049	13795
918.161	13788
918.272	13982
918.384	13986
918.495	13868
918.606	13750
918.717	13601
918.828	13765
918.939	13647
919.05	13647
919.161	13689
919.272	13358
919.383	13476
919.494	13674
919.604	13738
919.715	13670
919.826	13548
919.936	13643
920.047	13693
920.157	13685
920.267	13791
920.378	13601
920.488	13632
920.598	13845
920.708	13852
920.818	13734
920.928	13750
921.038	13894
921.148	13845
921.258	13597
921.368	13460
921.477	13320
921.587	13381
921.697	13232
921.806	13377
921.916	13304
922.025	13000
922.134	13027
922.244	12939
922.353	13004
922.462	12939
922.571	12738
922.68	12703
922.789	12627
922.898	12566
923.007	12563
923.116	12719
923.224	12601
923.333	12646
923.442	12532
923.55	12483
923.659	12544
923.767	12506
923.876	12525
923.984	12597
924.092	12319
924.201	12410
924.309	12414
924.417	12429
924.525	12353
924.633	12391
924.741	13076
924.849	12140
924.956	12308
925.064	12102
925.172	12030
925.279	12034
925.387	12163
925.494	12178
925.602	12262
925.709	12102
925.816	12003
925.924	12114
926.031	12186
926.138	12064
926.245	12019
926.352	12064
926.459	12114
926.566	12182
926.673	11996
926.779	11882
926.886	11923
926.993	11714
927.099	11885
927.206	11653
927.312	11764
927.419	11661
927.525	11668
927.631	11752
927.737	11630
927.843	11509
927.95	11516
928.056	11592
928.162	11562
928.267	11562
928.373	12076
928.479	11547
928.585	11417
928.69	11459
928.796	11512
928.901	11467
929.007	11265
929.112	11471
929.218	11315
929.323	11296
929.428	11273
929.533	11463
929.638	11239
929.743	11212
929.848	11239
929.953	11288
930.058	11121
930.163	10927
930.267	11006
930.372	11090
930.477	10957
930.581	11155
930.685	11098
930.79	10828
930.894	10911
930.998	10858
931.103	11037
931.207	10660
931.311	10527
931.415	10474
931.519	10280
931.623	10196
