Data from test_V78500241_1407.txt Node
Date: Fri Mar 25 15:19:39 CST 2022
User: usil
Spectrometer: V785-0024
Trigger mode: 0
Integration Time (sec): 4.000000E-1
Scans to average: 1
Nonlinearity correction enabled: false
Boxcar width: 0
Storing dark spectrum: false
XAxis mode: Wavelengths
Number of Pixels in Spectrum: 1024
>>>>>Begin Spectral Data<<<<<
801.071	28067
801.214	28074
801.356	27899
801.499	27728
801.641	27599
801.783	27686
801.926	27739
802.068	27625
802.211	27644
802.353	27587
802.496	27386
802.638	27275
802.78	27332
802.923	27249
803.065	27180
803.208	27150
803.35	27294
803.492	27378
803.635	27412
803.777	27359
803.919	27469
804.061	27930
804.204	27553
804.346	27485
804.488	27462
804.63	27606
804.773	27389
804.915	27492
805.057	27652
805.199	27580
805.341	27743
805.483	27778
805.626	27641
805.768	27519
805.91	27629
806.052	27793
806.194	27618
806.336	27774
806.478	27701
806.62	27732
806.762	27789
806.904	27895
807.046	28162
807.188	28147
807.33	27960
807.472	28173
807.614	27869
807.756	28116
807.898	27975
808.04	27869
808.182	27835
808.324	28010
808.465	27998
808.607	28185
808.749	28367
808.891	28531
809.033	28611
809.174	28367
809.316	28341
809.458	28284
809.6	28310
809.741	28443
809.883	28565
810.025	28774
810.166	28622
810.308	28588
810.45	28615
810.591	28630
810.733	28352
810.875	28333
811.016	28238
811.158	28078
811.299	28398
811.441	28436
811.582	28622
811.724	28344
811.865	28394
812.007	28333
812.148	28325
812.29	28432
812.431	28421
812.573	28653
812.714	28774
812.855	28816
812.997	28938
813.138	29064
813.279	28885
813.421	28847
813.562	28862
813.703	28634
813.845	28565
813.986	28287
814.127	28078
814.268	27979
814.41	28078
814.551	27994
814.692	28082
814.833	28063
814.974	27964
815.115	28070
815.256	27895
815.397	27953
815.539	27857
815.68	27804
815.821	27614
815.962	27850
816.103	27724
816.244	27694
816.385	27690
816.526	27572
816.666	27408
816.807	27325
816.948	27492
817.089	27321
817.23	27348
817.371	27302
817.512	27412
817.653	27287
817.793	27336
817.934	27226
818.075	27340
818.216	27462
818.356	27173
818.497	27237
818.638	27036
818.778	26998
818.919	26967
819.06	27150
819.2	27157
819.341	27401
819.481	27203
819.622	27420
819.762	27717
819.903	27675
820.043	27545
820.184	27374
820.324	27393
820.465	27458
820.605	27469
820.746	27439
820.886	27272
821.026	27291
821.167	27458
821.307	27450
821.447	27462
821.588	27161
821.728	27028
821.868	26868
822.008	26735
822.149	26781
822.289	26739
822.429	26442
822.569	26461
822.709	26522
822.849	26434
822.99	26336
823.13	26317
823.27	26164
823.41	26256
823.55	26092
823.69	26077
823.83	26180
823.97	26081
824.11	25894
824.25	26062
824.389	25951
824.529	25974
824.669	25909
824.809	26046
824.949	25928
825.089	26039
825.228	26115
825.368	25830
825.508	25807
825.648	25921
825.787	25826
825.927	25898
826.067	25830
826.206	25856
826.346	25932
826.485	25845
826.625	25814
826.765	25883
826.904	25940
827.044	25655
827.183	25624
827.323	25476
827.462	25605
827.601	25434
827.741	25457
827.88	25655
828.02	25464
828.159	25601
828.298	25601
828.437	25655
828.577	25434
828.716	25616
828.855	25483
828.994	25297
829.134	25339
829.273	25411
829.412	25225
829.551	25247
829.69	25350
829.829	25304
829.968	25247
830.107	25251
830.246	25236
830.385	25175
830.524	25183
830.663	25046
830.802	25008
830.941	24856
831.08	24821
831.219	24905
831.357	24951
831.496	25050
831.635	24814
831.774	24768
831.913	24772
832.051	24639
832.19	24620
832.329	24707
832.467	24696
832.606	24502
832.744	24456
832.883	24563
833.022	24551
833.16	24513
833.299	24635
833.437	24593
833.576	24741
833.714	24646
833.852	24700
833.991	24544
834.129	24589
834.267	24719
834.406	24730
834.544	24738
834.682	24509
834.821	24646
834.959	24650
835.097	24517
835.235	24547
835.373	24597
835.511	24650
835.65	24422
835.788	24498
835.926	24323
836.064	24205
836.202	24315
836.34	24403
836.478	24414
836.615	24471
836.753	24422
836.891	24452
837.029	24395
837.167	24315
837.305	24467
837.443	24277
837.58	24228
837.718	24350
837.856	24289
837.993	24197
838.131	24315
838.269	24140
838.406	24144
838.544	24083
838.681	24011
838.819	23802
838.956	23737
839.094	23695
839.231	23802
839.369	23999
839.506	24133
839.643	24072
839.781	23745
839.918	23638
840.055	23809
840.193	23687
840.33	23543
840.467	23623
840.604	23680
840.742	23977
840.879	23524
841.016	23566
841.153	23585
841.29	23649
841.427	23752
841.564	23611
841.701	23554
841.838	23566
841.975	23566
842.112	23463
842.249	23455
842.385	23467
842.522	23653
842.659	23512
842.796	23322
842.933	23398
843.069	23429
843.206	23254
843.343	23391
843.479	23368
843.616	23360
843.752	23204
843.889	23155
844.025	23269
844.162	23166
844.298	23292
844.435	23052
844.571	22961
844.708	23159
844.844	23174
844.98	23360
845.117	23261
845.253	23128
845.389	22930
845.525	23090
845.661	22976
845.798	22965
845.934	22923
846.07	22869
846.206	22938
846.342	22965
846.478	22820
846.614	22561
846.75	22626
846.886	22599
847.022	22615
847.158	22596
847.294	22702
847.429	22691
847.565	22649
847.701	22866
847.837	22379
847.972	22306
848.108	22329
848.244	22485
848.379	22367
848.515	22242
848.65	22230
848.786	22287
848.921	22253
849.057	22268
849.192	22295
849.328	22303
849.463	22147
849.598	22192
849.734	22105
849.869	22166
850.004	22010
850.14	21983
850.275	21956
850.41	21823
850.545	21907
850.68	21956
850.815	22055
850.95	21804
851.085	22116
851.22	22032
851.355	21884
851.49	22013
851.625	21915
851.76	21785
851.895	21895
852.03	21926
852.165	21865
852.299	21949
852.434	21926
852.569	22032
852.703	22040
852.838	21892
852.973	22109
853.107	22055
853.242	21823
853.376	21770
853.511	21698
853.645	21804
853.78	21808
853.914	21743
854.048	21701
854.183	21770
854.317	21861
854.451	21911
854.585	21713
854.72	21827
854.854	21907
854.988	21690
855.122	21736
855.256	21652
855.39	21720
855.524	21827
855.658	21876
855.792	21709
855.926	21759
856.06	21945
856.194	21926
856.327	21739
856.461	21816
856.595	21759
856.729	21686
856.862	21816
856.996	21785
857.13	21781
857.263	21835
857.397	21831
857.53	21793
857.664	21739
857.797	21861
857.931	21861
858.064	21842
858.197	21903
858.331	21751
858.464	21603
858.597	21736
858.731	21759
858.864	21606
858.997	21682
859.13	21850
859.263	21717
859.396	21808
859.529	21751
859.662	21705
859.795	21663
859.928	21937
860.061	21937
860.194	21983
860.327	21785
860.46	21785
860.592	21838
860.725	22013
860.858	21793
860.99	21732
861.123	21648
861.256	21698
861.388	21926
861.521	22329
861.653	21614
861.786	21523
861.918	21587
862.05	21644
862.183	21682
862.315	21717
862.447	21709
862.58	21717
862.712	21568
862.844	21473
862.976	21583
863.108	21625
863.24	21770
863.372	21382
863.504	21515
863.636	21511
863.768	21515
863.9	21496
864.032	21351
864.164	21302
864.296	21450
864.428	21690
864.559	21663
864.691	21534
864.823	21504
864.954	21416
865.086	21386
865.217	21363
865.349	21329
865.48	21336
865.612	21450
865.743	21496
865.875	21218
866.006	21431
866.137	21260
866.269	21443
866.4	21386
866.531	21222
866.662	21279
866.793	21275
866.924	21142
867.055	21340
867.186	21321
867.317	21256
867.448	21195
867.579	21279
867.71	21214
867.841	21268
867.972	21397
868.103	21241
868.233	21393
868.364	21294
868.495	21298
868.625	21488
868.756	21538
868.886	21466
869.017	21450
869.147	21595
869.278	21690
869.408	21549
869.539	21583
869.669	21622
869.799	21591
869.929	21774
870.06	21618
870.19	21736
870.32	21842
870.45	21797
870.58	21960
870.71	22040
870.84	21960
870.97	21911
871.1	21998
871.23	22116
871.36	22010
871.489	21975
871.619	21994
871.749	22048
871.879	22093
872.008	22276
872.138	22169
872.267	22105
872.397	22006
872.526	22002
872.656	21945
872.785	21991
872.915	22181
873.044	22253
873.173	22158
873.303	22196
873.432	22344
873.561	22162
873.69	22215
873.819	22090
873.948	22188
874.077	22147
874.206	22112
874.335	22116
874.464	22211
874.593	22310
874.722	22363
874.851	22508
874.979	22409
875.108	22462
875.237	22352
875.365	22120
875.494	22291
875.623	22428
875.751	22409
875.88	22428
876.008	22516
876.136	22500
876.265	22740
876.393	22816
876.521	22717
876.65	22774
876.778	22752
876.906	22622
877.034	22599
877.162	22683
877.29	22653
877.418	22683
877.546	22725
877.674	22664
877.802	22649
877.93	22801
878.058	22706
878.185	22618
878.313	22683
878.441	22744
878.568	22512
878.696	22675
878.824	22698
878.951	22687
879.079	22805
879.206	23003
879.333	22771
879.461	22694
879.588	22767
879.715	22896
879.842	22927
879.97	22896
880.097	22561
880.224	22535
880.351	22584
880.478	22599
880.605	22489
880.732	22489
880.859	22755
880.986	22569
881.112	22546
881.239	22200
881.366	22200
881.493	22105
881.619	22200
881.746	22196
881.872	22002
881.999	22131
882.125	22017
882.252	22128
882.378	21979
882.505	22185
882.631	21930
882.757	21751
882.883	21983
883.01	21804
883.136	21816
883.262	21526
883.388	21641
883.514	21819
883.64	21762
883.766	21618
883.892	21614
884.018	21542
884.143	21762
884.269	21854
884.395	21557
884.52	21401
884.646	21317
884.772	21416
884.897	21317
885.023	21462
885.148	21568
885.274	21580
885.399	21515
885.524	21458
885.65	21412
885.775	21306
885.9	21348
886.025	21519
886.15	21488
886.275	21344
886.4	21268
886.525	21397
886.65	21401
886.775	21374
886.9	21500
887.025	21587
887.149	21348
887.274	21268
887.399	21116
887.523	21085
887.648	21154
887.773	21123
887.897	21313
888.021	21233
888.146	21081
888.27	21294
888.395	21264
888.519	21146
888.643	21150
888.767	21123
888.891	21100
889.015	21036
889.139	20979
889.263	20948
889.387	21100
889.511	21131
889.635	21112
889.759	21005
889.883	20982
890.006	21070
890.13	21066
890.254	20880
890.377	20941
890.501	20788
890.624	20689
890.748	20800
890.871	20735
890.995	20480
891.118	20537
891.241	20564
891.364	20503
891.488	20571
891.611	20583
891.734	20503
891.857	20651
891.98	20606
892.103	20488
892.226	20571
892.349	20503
892.471	20320
892.594	20461
892.717	20488
892.839	20374
892.962	20446
893.085	20602
893.207	20457
893.33	20362
893.452	20431
893.575	20457
893.697	20438
893.819	20549
893.941	20602
894.064	20537
894.186	20301
894.308	20313
894.43	20476
894.552	20552
894.674	20507
894.796	20324
894.918	20362
895.04	20328
895.161	20385
895.283	20518
895.405	20233
895.526	20419
895.648	20332
895.769	20457
895.891	20476
896.012	20465
896.134	20503
896.255	20377
896.376	20454
896.498	20339
896.619	20412
896.74	20355
896.861	20492
896.982	20750
897.103	20834
897.224	20712
897.345	20625
897.466	20511
897.587	20571
897.708	20693
897.828	20716
897.949	20499
898.07	20484
898.19	20533
898.311	20712
898.431	20446
898.552	20674
898.672	20743
898.792	20541
898.913	20735
899.033	20514
899.153	20434
899.273	20248
899.393	20355
899.513	20370
899.633	20347
899.753	20465
899.873	20294
899.993	20431
900.113	20404
900.232	20343
900.352	20157
900.472	20214
900.591	20157
900.711	20111
900.83	20081
900.95	20218
901.069	20244
901.189	19906
901.308	19890
901.427	19708
901.546	19715
901.665	19715
901.784	19811
901.904	19540
902.023	19521
902.141	19183
902.26	19232
902.379	19335
902.498	19285
902.617	19183
902.735	19316
902.854	19251
902.973	19088
903.091	18905
903.21	18875
903.328	18947
903.446	18730
903.565	18707
903.683	18658
903.801	18673
903.919	18593
904.038	18547
904.156	18407
904.274	18582
904.392	18498
904.51	18441
904.627	18422
904.745	18631
904.863	18540
904.981	18304
905.098	18171
905.216	18159
905.334	18262
905.451	18194
905.569	18148
905.686	18133
905.803	18129
905.921	17904
906.038	17961
906.155	18049
906.272	17874
906.389	17916
906.506	17646
906.623	17707
906.74	17802
906.857	17577
906.974	17543
907.091	17771
907.208	17714
907.324	17687
907.441	17611
907.557	17364
907.674	17406
907.79	17387
907.907	17265
908.023	17505
908.139	17383
908.256	17376
908.372	17261
908.488	17296
908.604	17121
908.72	17056
908.836	17250
908.952	17162
909.068	17265
909.184	17326
909.3	17140
909.415	17117
909.531	17178
909.647	16915
909.762	16828
909.878	16843
909.993	16908
910.108	16869
910.224	16835
910.339	16820
910.454	16729
910.57	16786
910.685	16622
910.8	16904
910.915	16801
911.03	16645
911.145	16440
911.259	16398
911.374	16470
911.489	16348
911.604	16303
911.718	16139
911.833	16219
911.947	16131
912.062	15979
912.176	16124
912.291	16177
912.405	16169
912.519	16276
912.633	16276
912.748	16230
912.862	16120
912.976	16059
913.09	15880
913.204	15949
913.318	15861
913.431	16063
913.545	16059
913.659	16082
913.772	15949
913.886	15804
914	15778
914.113	15869
914.226	15899
914.34	15831
914.453	15713
914.566	15892
914.68	15717
914.793	15641
914.906	15454
915.019	15401
915.132	15313
915.245	15237
915.358	15367
915.47	15359
915.583	15363
915.696	15443
915.809	15428
915.921	15450
916.034	15260
916.146	15313
916.259	15222
916.371	15405
916.483	15294
916.595	15268
916.708	15260
916.82	15275
916.932	15184
917.044	15165
917.156	15089
917.268	15001
917.38	15085
917.491	14910
917.603	14956
917.715	15100
917.826	15116
917.938	14906
918.049	14933
918.161	14925
918.272	15123
918.384	14975
918.495	14979
918.606	14777
918.717	14792
918.828	14845
918.939	14819
919.05	14636
919.161	14750
919.272	14507
919.383	14522
919.494	14697
919.604	14998
919.715	14796
919.826	14716
919.936	14640
920.047	14735
920.157	14674
920.267	14906
920.378	14750
920.488	14746
920.598	14849
920.708	15005
920.818	14895
920.928	14868
921.038	15138
921.148	14906
921.258	14568
921.368	14545
921.477	14393
921.587	14492
921.697	14355
921.806	14473
921.916	14385
922.025	14172
922.134	14142
922.244	14031
922.353	14084
922.462	13951
922.571	13963
922.68	13719
922.789	13715
922.898	13734
923.007	13704
923.116	13753
923.224	13655
923.333	13738
923.442	13552
923.55	13544
923.659	13571
923.767	13727
923.876	13571
923.984	13613
924.092	13506
924.201	13582
924.309	13445
924.417	13491
924.525	13320
924.633	13392
924.741	14172
924.849	13175
924.956	13343
925.064	13179
925.172	13141
925.279	13080
925.387	13126
925.494	13183
925.602	13209
925.709	13179
925.816	13149
925.924	13088
926.031	13206
926.138	13031
926.245	13061
926.352	12981
926.459	13171
926.566	13228
926.673	12973
926.779	12905
926.886	12871
926.993	12703
927.099	12707
927.206	12760
927.312	12585
927.419	12768
927.525	12719
927.631	12730
927.737	12654
927.843	12479
927.95	12399
928.056	12593
928.162	12536
928.267	12608
928.373	13160
928.479	12578
928.585	12391
928.69	12388
928.796	12464
928.901	12380
929.007	12190
929.112	12369
929.218	12437
929.323	12350
929.428	12239
929.533	12361
929.638	12209
929.743	12194
929.848	12285
929.953	12186
930.058	12045
930.163	11992
930.267	11950
930.372	12076
930.477	11939
930.581	12148
930.685	12045
930.79	11783
930.894	11813
930.998	11722
931.103	11931
931.207	11600
931.311	11501
931.415	11471
931.519	11235
931.623	11170
