Data from test_V78500241_3461.txt Node
Date: Fri Mar 25 15:33:57 CST 2022
User: usil
Spectrometer: V785-0024
Trigger mode: 0
Integration Time (sec): 4.000000E-1
Scans to average: 1
Nonlinearity correction enabled: false
Boxcar width: 0
Storing dark spectrum: false
XAxis mode: Wavelengths
Number of Pixels in Spectrum: 1024
>>>>>Begin Spectral Data<<<<<
801.071	27329
801.214	27233
801.356	26986
801.499	26861
801.641	26693
801.783	26754
801.926	26746
802.068	26648
802.211	26537
802.353	26629
802.496	26309
802.638	26362
802.78	26294
802.923	26294
803.065	26199
803.208	26248
803.35	26317
803.492	26613
803.635	26533
803.777	26396
803.919	26514
804.061	26773
804.204	26621
804.346	26450
804.488	26571
804.63	26366
804.773	26328
804.915	26583
805.057	26659
805.199	26533
805.341	26499
805.483	26533
805.626	26644
805.768	26530
805.91	26609
806.052	26598
806.194	26533
806.336	26590
806.478	26579
806.62	26598
806.762	26663
806.904	26754
807.046	27036
807.188	26979
807.33	27024
807.472	27024
807.614	27070
807.756	26990
807.898	26914
808.04	26743
808.182	26716
808.324	26804
808.465	26986
808.607	27009
808.749	27188
808.891	27348
809.033	27291
809.174	27260
809.316	27184
809.458	27180
809.6	27070
809.741	27317
809.883	27283
810.025	27408
810.166	27553
810.308	27519
810.45	27439
810.591	27412
810.733	27138
810.875	27233
811.016	27043
811.158	27062
811.299	27207
811.441	27272
811.582	27408
811.724	27249
811.865	27077
812.007	27123
812.148	27043
812.29	27222
812.431	27439
812.573	27526
812.714	27507
812.855	27675
812.997	27663
813.138	27888
813.279	27926
813.421	27603
813.562	27610
813.703	27500
813.845	27351
813.986	27123
814.127	27009
814.268	27009
814.41	26918
814.551	26788
814.692	26883
814.833	26864
814.974	26689
815.115	26845
815.256	26754
815.397	26746
815.539	26724
815.68	26640
815.821	26648
815.962	26503
816.103	26590
816.244	26427
816.385	26313
816.526	26427
816.666	26153
816.807	26012
816.948	26225
817.089	26298
817.23	26122
817.371	26077
817.512	25951
817.653	26008
817.793	26073
817.934	26176
818.075	26149
818.216	25936
818.356	26096
818.497	26058
818.638	25822
818.778	25902
818.919	25879
819.06	25864
819.2	26050
819.341	25902
819.481	26035
819.622	26328
819.762	26339
819.903	26271
820.043	26294
820.184	26183
820.324	26126
820.465	26328
820.605	26180
820.746	26187
820.886	26016
821.026	26176
821.167	25993
821.307	26054
821.447	26142
821.588	26005
821.728	25921
821.868	25635
822.008	25563
822.149	25620
822.289	25609
822.429	25339
822.569	25327
822.709	25187
822.849	25042
822.99	25114
823.13	25133
823.27	24985
823.41	24901
823.55	24966
823.69	24951
823.83	24943
823.97	24943
824.11	24764
824.25	24623
824.389	24669
824.529	24840
824.669	24627
824.809	24852
824.949	24837
825.089	24863
825.228	24894
825.368	24665
825.508	24566
825.648	24509
825.787	24547
825.927	24536
826.067	24555
826.206	24570
826.346	24521
826.485	24684
826.625	24722
826.765	24642
826.904	24475
827.044	24342
827.183	24369
827.323	24346
827.462	24365
827.601	24384
827.741	24388
827.88	24369
828.02	24258
828.159	24277
828.298	24311
828.437	24300
828.577	24334
828.716	24273
828.855	24216
828.994	24045
829.134	23992
829.273	24003
829.412	23908
829.551	23988
829.69	23988
829.829	24110
829.968	24041
830.107	24114
830.246	24057
830.385	24106
830.524	24007
830.663	23920
830.802	23821
830.941	23589
831.08	23661
831.219	23718
831.357	23657
831.496	23931
831.635	23794
831.774	23585
831.913	23505
832.051	23554
832.19	23376
832.329	23433
832.467	23307
832.606	23265
832.744	23200
832.883	23239
833.022	23299
833.16	23280
833.299	23303
833.437	23239
833.576	23429
833.714	23303
833.852	23436
833.991	23459
834.129	23417
834.267	23421
834.406	23471
834.544	23433
834.682	23376
834.821	23307
834.959	23520
835.097	23265
835.235	23554
835.373	23303
835.511	23433
835.65	23246
835.788	23292
835.926	23193
836.064	22972
836.202	23006
836.34	23242
836.478	23383
836.615	23315
836.753	23124
836.891	23162
837.029	23235
837.167	23216
837.305	23364
837.443	23094
837.58	23022
837.718	23216
837.856	23136
837.993	23022
838.131	23071
838.269	22972
838.406	23003
838.544	22946
838.681	22786
838.819	22637
838.956	22630
839.094	22653
839.231	22702
839.369	22668
839.506	23029
839.643	22801
839.781	22527
839.918	22535
840.055	22569
840.193	22710
840.33	22618
840.467	22607
840.604	22573
840.742	22679
840.879	22443
841.016	22367
841.153	22451
841.29	22656
841.427	22462
841.564	22550
841.701	22516
841.838	22546
841.975	22382
842.112	22554
842.249	22382
842.385	22223
842.522	22588
842.659	22276
842.796	22318
842.933	22363
843.069	22234
843.206	22230
843.343	22314
843.479	22234
843.616	22310
843.752	22040
843.889	22158
844.025	22109
844.162	22029
844.298	22059
844.435	22150
844.571	21991
844.708	21998
844.844	22219
844.98	22074
845.117	22158
845.253	22006
845.389	21884
845.525	22036
845.661	22017
845.798	21819
845.934	21857
846.07	21797
846.206	21724
846.342	21869
846.478	21675
846.614	21656
846.75	21389
846.886	21523
847.022	21553
847.158	21576
847.294	21496
847.429	21488
847.565	21454
847.701	21812
847.837	21306
847.972	21169
848.108	21332
848.244	21344
848.379	21123
848.515	21070
848.65	20963
848.786	21161
848.921	21192
849.057	21199
849.192	21192
849.328	21176
849.463	21081
849.598	21127
849.734	20982
849.869	20925
850.004	20982
850.14	20963
850.275	20845
850.41	20807
850.545	20887
850.68	20849
850.815	20979
850.95	20880
851.085	20861
851.22	20933
851.355	20861
851.49	20830
851.625	20758
851.76	20864
851.895	20682
852.03	20842
852.165	20792
852.299	21032
852.434	20979
852.569	20849
852.703	20788
852.838	20807
852.973	20971
853.107	20952
853.242	20823
853.376	20651
853.511	20545
853.645	20613
853.78	20754
853.914	20651
854.048	20629
854.183	20689
854.317	20796
854.451	20914
854.585	20648
854.72	20739
854.854	20781
854.988	20655
855.122	20758
855.256	20613
855.39	20609
855.524	20807
855.658	20800
855.792	20750
855.926	20663
856.06	20674
856.194	20845
856.327	20720
856.461	20518
856.595	20735
856.729	20727
856.862	20659
856.996	20765
857.13	20686
857.263	20682
857.397	20876
857.53	20712
857.664	20682
857.797	20739
857.931	20731
858.064	20640
858.197	20891
858.331	20568
858.464	20587
858.597	20564
858.731	20750
858.864	20606
858.997	20693
859.13	20769
859.263	20621
859.396	20807
859.529	20735
859.662	20716
859.795	20590
859.928	20602
860.061	20883
860.194	20994
860.327	20735
860.46	20708
860.592	20842
860.725	20895
860.858	20781
860.99	20655
861.123	20568
861.256	20648
861.388	20625
861.521	21389
861.653	20571
861.786	20499
861.918	20495
862.05	20484
862.183	20640
862.315	20705
862.447	20754
862.58	20564
862.712	20415
862.844	20400
862.976	20556
863.108	20488
863.24	20861
863.372	20400
863.504	20465
863.636	20286
863.768	20442
863.9	20374
864.032	20415
864.164	20317
864.296	20427
864.428	20511
864.559	20594
864.691	20461
864.823	20351
864.954	20495
865.086	20320
865.217	20351
865.349	20252
865.48	20419
865.612	20301
865.743	20465
865.875	20309
866.006	20343
866.137	20256
866.269	20290
866.4	20400
866.531	20221
866.662	20252
866.793	20351
866.924	20195
867.055	20301
867.186	20282
867.317	20149
867.448	20199
867.579	20149
867.71	20145
867.841	20233
867.972	20294
868.103	20317
868.233	20370
868.364	20343
868.495	20465
868.625	20476
868.756	20743
868.886	20488
869.017	20560
869.147	20484
869.278	20667
869.408	20545
869.539	20454
869.669	20556
869.799	20526
869.929	20632
870.06	20606
870.19	20765
870.32	20788
870.45	20823
870.58	20944
870.71	20925
870.84	21055
870.97	20777
871.1	20979
871.23	21013
871.36	21081
871.489	21100
871.619	21005
871.749	21165
871.879	21150
872.008	21203
872.138	21085
872.267	21066
872.397	20941
872.526	20906
872.656	20982
872.785	20899
872.915	21222
873.044	21260
873.173	21135
873.303	21188
873.432	21127
873.561	21230
873.69	21230
873.819	21173
873.948	21264
874.077	21123
874.206	21074
874.335	21089
874.464	21283
874.593	21241
874.722	21313
874.851	21462
874.979	21348
875.108	21454
875.237	21298
875.365	21252
875.494	21355
875.623	21466
875.751	21363
875.88	21420
876.008	21549
876.136	21625
876.265	21857
876.393	21884
876.521	21831
876.65	21861
876.778	21819
876.906	21622
877.034	21667
877.162	21778
877.29	21663
877.418	21800
877.546	21774
877.674	21671
877.802	21831
877.93	21713
878.058	21644
878.185	21660
878.313	21679
878.441	21736
878.568	21564
878.696	21622
878.824	21739
878.951	21789
879.079	21934
879.206	22032
879.333	21762
879.461	21675
879.588	21934
879.715	21838
879.842	22147
879.97	21743
880.097	21629
880.224	21614
880.351	21583
880.478	21462
880.605	21408
880.732	21523
880.859	21941
880.986	21504
881.112	21622
881.239	21393
881.366	21367
881.493	21214
881.619	21237
881.746	21264
881.872	21089
881.999	21051
882.125	21062
882.252	21173
882.378	21161
882.505	21306
882.631	20998
882.757	20994
882.883	20899
883.01	20811
883.136	20781
883.262	20758
883.388	20689
883.514	20906
883.64	20979
883.766	20674
883.892	20609
884.018	20648
884.143	20777
884.269	20845
884.395	20556
884.52	20423
884.646	20564
884.772	20488
884.897	20492
885.023	20556
885.148	20659
885.274	20693
885.399	20720
885.524	20533
885.65	20511
885.775	20465
885.9	20385
886.025	20583
886.15	20613
886.275	20507
886.4	20328
886.525	20511
886.65	20446
886.775	20446
886.9	20613
887.025	20640
887.149	20545
887.274	20332
887.399	20267
887.523	20267
887.648	20294
887.773	20214
887.897	20294
888.021	20305
888.146	20202
888.27	20404
888.395	20355
888.519	20218
888.643	20271
888.767	20294
888.891	20210
889.015	20069
889.139	20180
889.263	20088
889.387	20069
889.511	20362
889.635	20199
889.759	19989
889.883	19997
890.006	20191
890.13	20210
890.254	20092
890.377	19986
890.501	19750
890.624	19746
890.748	19826
890.871	19761
890.995	19639
891.118	19483
891.241	19658
891.364	19575
891.488	19727
891.611	19647
891.734	19620
891.857	19727
891.98	19571
892.103	19681
892.226	19742
892.349	19597
892.471	19438
892.594	19552
892.717	19540
892.839	19510
892.962	19616
893.085	19586
893.207	19434
893.33	19518
893.452	19502
893.575	19548
893.697	19559
893.819	19658
893.941	19769
894.064	19658
894.186	19422
894.308	19487
894.43	19700
894.552	19753
894.674	19746
894.796	19586
894.918	19575
895.04	19464
895.161	19540
895.283	19499
895.405	19499
895.526	19506
895.648	19571
895.769	19506
895.891	19567
896.012	19613
896.134	19613
896.255	19567
896.376	19396
896.498	19563
896.619	19601
896.74	19567
896.861	19586
896.982	19830
897.103	20046
897.224	19700
897.345	19932
897.466	19712
897.587	19670
897.708	19917
897.828	19799
897.949	19677
898.07	19502
898.19	19772
898.311	19715
898.431	19799
898.552	19811
898.672	19887
898.792	19780
898.913	19757
899.033	19765
899.153	19559
899.273	19422
899.393	19590
899.513	19628
899.633	19620
899.753	19422
899.873	19510
899.993	19559
900.113	19487
900.232	19521
900.352	19457
900.472	19396
900.591	19209
900.711	19285
900.83	19301
900.95	19362
901.069	19259
901.189	19270
901.308	18993
901.427	18787
901.546	18894
901.665	18928
901.784	18973
901.904	18776
902.023	18566
902.141	18502
902.26	18525
902.379	18483
902.498	18479
902.617	18376
902.735	18399
902.854	18350
902.973	18353
903.091	18174
903.21	18117
903.328	18015
903.446	18057
903.565	17973
903.683	17939
903.801	17794
903.919	17946
904.038	17828
904.156	17847
904.274	17794
904.392	17790
904.51	17687
904.627	17687
904.745	17767
904.863	17665
904.981	17539
905.098	17463
905.216	17349
905.334	17524
905.451	17421
905.569	17376
905.686	17368
905.803	17269
905.921	17170
906.038	17280
906.155	17223
906.272	17052
906.389	17216
906.506	16984
906.623	16900
906.74	16831
906.857	16778
906.974	16729
907.091	17037
907.208	17056
907.324	16972
907.441	16778
907.557	16626
907.674	16611
907.79	16592
907.907	16584
908.023	16664
908.139	16679
908.256	16618
908.372	16516
908.488	16527
908.604	16466
908.72	16367
908.836	16360
908.952	16405
909.068	16299
909.184	16474
909.3	16344
909.415	16451
909.531	16402
909.647	16063
909.762	16067
909.878	16002
909.993	16139
910.108	16051
910.224	15991
910.339	16105
910.454	15960
910.57	15926
910.685	15804
910.8	16040
910.915	15979
911.03	15812
911.145	15587
911.259	15671
911.374	15660
911.489	15580
911.604	15591
911.718	15481
911.833	15447
911.947	15321
912.062	15154
912.176	15507
912.291	15481
912.405	15420
912.519	15644
912.633	15595
912.748	15481
912.862	15367
912.976	15207
913.09	15066
913.204	15214
913.318	15260
913.431	15355
913.545	15374
913.659	15378
913.772	15100
913.886	15062
914	15028
914.113	15085
914.226	15161
914.34	15051
914.453	14929
914.566	15058
914.68	14944
914.793	15013
914.906	14754
915.019	14743
915.132	14606
915.245	14648
915.358	14765
915.47	14613
915.583	14625
915.696	14689
915.809	14743
915.921	14773
916.034	14663
916.146	14731
916.259	14545
916.371	14541
916.483	14575
916.595	14568
916.708	14560
916.82	14484
916.932	14469
917.044	14571
917.156	14434
917.268	14290
917.38	14332
917.491	14339
917.603	14385
917.715	14381
917.826	14393
917.938	14332
918.049	14248
918.161	14290
918.272	14438
918.384	14423
918.495	14271
918.606	14153
918.717	14031
918.828	14161
918.939	14084
919.05	14088
919.161	14100
919.272	13826
919.383	13978
919.494	14073
919.604	14282
919.715	14077
919.826	13959
919.936	14020
920.047	14142
920.157	14092
920.267	14343
920.378	14195
920.488	13982
920.598	14221
920.708	14366
920.818	14233
920.928	14218
921.038	14332
921.148	14404
921.258	14069
921.368	13947
921.477	13837
921.587	13883
921.697	13651
921.806	13830
921.916	13784
922.025	13540
922.134	13464
922.244	13407
922.353	13548
922.462	13388
922.571	13388
922.68	13183
922.789	13095
922.898	13069
923.007	13145
923.116	13217
923.224	13168
923.333	13034
923.442	12943
923.55	12901
923.659	12951
923.767	13015
923.876	12878
923.984	12958
924.092	12871
924.201	12943
924.309	12863
924.417	12890
924.525	12760
924.633	12920
924.741	13540
924.849	12582
924.956	12719
925.064	12604
925.172	12525
925.279	12506
925.387	12627
925.494	12654
925.602	12593
925.709	12597
925.816	12502
925.924	12528
926.031	12608
926.138	12532
926.245	12532
926.352	12448
926.459	12551
926.566	12525
926.673	12395
926.779	12342
926.886	12369
926.993	12277
927.099	12205
927.206	12060
927.312	12053
927.419	12110
927.525	12152
927.631	12209
927.737	12034
927.843	11958
927.95	11863
928.056	11920
928.162	12057
928.267	11973
928.373	12540
928.479	12060
928.585	11859
928.69	11939
928.796	11958
928.901	11889
929.007	11646
929.112	11863
929.218	11851
929.323	11699
929.428	11718
929.533	11847
929.638	11649
929.743	11611
929.848	11661
929.953	11668
930.058	11547
930.163	11448
930.267	11372
930.372	11566
930.477	11387
930.581	11585
930.685	11402
930.79	11208
930.894	11349
930.998	11280
931.103	11383
931.207	11102
931.311	10972
931.415	10820
931.519	10786
931.623	10694
