Data from test_V78500241_2240.txt Node
Date: Fri Mar 25 15:25:27 CST 2022
User: usil
Spectrometer: V785-0024
Trigger mode: 0
Integration Time (sec): 4.000000E-1
Scans to average: 1
Nonlinearity correction enabled: false
Boxcar width: 0
Storing dark spectrum: false
XAxis mode: Wavelengths
Number of Pixels in Spectrum: 1024
>>>>>Begin Spectral Data<<<<<
801.071	27812
801.214	27625
801.356	27370
801.499	27595
801.641	27283
801.783	27351
801.926	27401
802.068	27351
802.211	27184
802.353	27150
802.496	26880
802.638	27017
802.78	27039
802.923	26857
803.065	26807
803.208	26948
803.35	26986
803.492	27161
803.635	27127
803.777	27055
803.919	27150
804.061	27526
804.204	27233
804.346	27146
804.488	27047
804.63	27169
804.773	27089
804.915	27230
805.057	27230
805.199	27043
805.341	27218
805.483	27355
805.626	27176
805.768	27146
805.91	27199
806.052	27393
806.194	27154
806.336	27416
806.478	27329
806.62	27321
806.762	27302
806.904	27622
807.046	27785
807.188	27652
807.33	27701
807.472	27838
807.614	27709
807.756	27587
807.898	27580
808.04	27561
808.182	27542
808.324	27732
808.465	27747
808.607	27823
808.749	28002
808.891	27964
809.033	28036
809.174	27960
809.316	27823
809.458	27861
809.6	27964
809.741	28143
809.883	28086
810.025	28192
810.166	28074
810.308	28246
810.45	28162
810.591	28200
810.733	27907
810.875	27861
811.016	27709
811.158	27812
811.299	27884
811.441	27941
811.582	27994
811.724	27903
811.865	27911
812.007	27854
812.148	27991
812.29	27926
812.431	28192
812.573	28276
812.714	28500
812.855	28401
812.997	28542
813.138	28626
813.279	28656
813.421	28394
813.562	28485
813.703	28341
813.845	28017
813.986	27766
814.127	27728
814.268	27507
814.41	27580
814.551	27637
814.692	27663
814.833	27606
814.974	27625
815.115	27572
815.256	27523
815.397	27580
815.539	27576
815.68	27256
815.821	27313
815.962	27389
816.103	27416
816.244	27142
816.385	27138
816.526	27096
816.666	26975
816.807	26849
816.948	26792
817.089	27039
817.23	26849
817.371	26853
817.512	26880
817.653	26960
817.793	26880
817.934	26880
818.075	26830
818.216	26826
818.356	26960
818.497	26849
818.638	26571
818.778	26613
818.919	26678
819.06	26670
819.2	26876
819.341	26971
819.481	26785
819.622	27058
819.762	27176
819.903	27142
820.043	27020
820.184	26971
820.324	26933
820.465	27058
820.605	26998
820.746	26868
820.886	26853
821.026	26807
821.167	26918
821.307	26910
821.447	26765
821.588	26659
821.728	26621
821.868	26457
822.008	26282
822.149	26358
822.289	26381
822.429	26092
822.569	26024
822.709	25925
822.849	25986
822.99	25814
823.13	25704
823.27	25788
823.41	25651
823.55	25578
823.69	25693
823.83	25689
823.97	25643
824.11	25457
824.25	25285
824.389	25415
824.529	25556
824.669	25479
824.809	25616
824.949	25506
825.089	25502
825.228	25464
825.368	25289
825.508	25396
825.648	25335
825.787	25479
825.927	25324
826.067	25350
826.206	25388
826.346	25285
826.485	25327
826.625	25240
826.765	25491
826.904	25297
827.044	25194
827.183	25103
827.323	25012
827.462	25206
827.601	25110
827.741	25088
827.88	25160
828.02	24985
828.159	25160
828.298	24951
828.437	25110
828.577	25015
828.716	25046
828.855	24985
828.994	24661
829.134	24787
829.273	24814
829.412	24661
829.551	24658
829.69	24787
829.829	24817
829.968	24890
830.107	24821
830.246	24875
830.385	24734
830.524	24661
830.663	24574
830.802	24407
830.941	24452
831.08	24369
831.219	24403
831.357	24475
831.496	24551
831.635	24346
831.774	24262
831.913	24365
832.051	24201
832.19	24152
832.329	24117
832.467	23969
832.606	23958
832.744	24022
832.883	23950
833.022	24041
833.16	24053
833.299	24022
833.437	24167
833.576	24057
833.714	24049
833.852	24091
833.991	24011
834.129	24289
834.267	24136
834.406	24106
834.544	24079
834.682	24079
834.821	24106
834.959	24258
835.097	23996
835.235	24171
835.373	24167
835.511	24106
835.65	23969
835.788	24007
835.926	23813
836.064	23661
836.202	23760
836.34	23904
836.478	24003
836.615	23798
836.753	23741
836.891	24140
837.029	23794
837.167	23882
837.305	23859
837.443	23764
837.58	23805
837.718	23832
837.856	23691
837.993	23687
838.131	23836
838.269	23592
838.406	23646
838.544	23585
838.681	23391
838.819	23307
838.956	23242
839.094	23197
839.231	23273
839.369	23402
839.506	23642
839.643	23490
839.781	23204
839.918	23189
840.055	23258
840.193	23235
840.33	23250
840.467	23174
840.604	23033
840.742	23379
840.879	23086
841.016	22987
841.153	22942
841.29	23250
841.427	23113
841.564	23132
841.701	22984
841.838	23162
841.975	23022
842.112	23090
842.249	22923
842.385	22839
842.522	23098
842.659	22896
842.796	22862
842.933	23025
843.069	22923
843.206	22793
843.343	22862
843.479	22919
843.616	22873
843.752	22607
843.889	22767
844.025	22828
844.162	22725
844.298	22702
844.435	22580
844.571	22577
844.708	22755
844.844	22790
844.98	22706
845.117	22725
845.253	22611
845.389	22584
845.525	22584
845.661	22478
845.798	22428
845.934	22573
846.07	22337
846.206	22478
846.342	22405
846.478	22295
846.614	22166
846.75	22135
846.886	21937
847.022	22253
847.158	22032
847.294	22150
847.429	22154
847.565	22070
847.701	22363
847.837	21968
847.972	21831
848.108	21907
848.244	21972
848.379	21819
848.515	21644
848.65	21732
848.786	21781
848.921	21762
849.057	21899
849.192	21819
849.328	21903
849.463	21720
849.598	21618
849.734	21637
849.869	21443
850.004	21538
850.14	21603
850.275	21492
850.41	21462
850.545	21401
850.68	21591
850.815	21488
850.95	21576
851.085	21728
851.22	21549
851.355	21477
851.49	21359
851.625	21382
851.76	21481
851.895	21408
852.03	21313
852.165	21424
852.299	21534
852.434	21473
852.569	21523
852.703	21542
852.838	21561
852.973	21580
853.107	21686
853.242	21401
853.376	21195
853.511	21157
853.645	21241
853.78	21408
853.914	21424
854.048	21184
854.183	21127
854.317	21355
854.451	21458
854.585	21351
854.72	21386
854.854	21279
854.988	21104
855.122	21355
855.256	21138
855.39	21173
855.524	21447
855.658	21378
855.792	21313
855.926	21298
856.06	21439
856.194	21298
856.327	21272
856.461	21241
856.595	21203
856.729	21165
856.862	21469
856.996	21351
857.13	21294
857.263	21351
857.397	21355
857.53	21199
857.664	21252
857.797	21435
857.931	21443
858.064	21401
858.197	21439
858.331	21306
858.464	21184
858.597	21123
858.731	21351
858.864	21291
858.997	21180
859.13	21275
859.263	21359
859.396	21416
859.529	21146
859.662	21237
859.795	21188
859.928	21283
860.061	21435
860.194	21576
860.327	21283
860.46	21405
860.592	21382
860.725	21325
860.858	21359
860.99	21359
861.123	21173
861.256	21184
861.388	21222
861.521	22006
861.653	21199
861.786	20960
861.918	21116
862.05	21218
862.183	21245
862.315	21291
862.447	21272
862.58	21260
862.712	21093
862.844	21032
862.976	21146
863.108	20948
863.24	21351
863.372	20994
863.504	20967
863.636	21119
863.768	21096
863.9	21047
864.032	20963
864.164	20944
864.296	21024
864.428	21100
864.559	21009
864.691	20944
864.823	20971
864.954	20918
865.086	21024
865.217	21017
865.349	20819
865.48	20910
865.612	20929
865.743	21131
865.875	20990
866.006	20895
866.137	20902
866.269	21005
866.4	20960
866.531	20952
866.662	20838
866.793	20788
866.924	20895
867.055	20819
867.186	20902
867.317	20868
867.448	20883
867.579	20807
867.71	20796
867.841	20720
867.972	20921
868.103	20864
868.233	20724
868.364	20811
868.495	20956
868.625	20960
868.756	21169
868.886	21028
869.017	21085
869.147	21150
869.278	21169
869.408	21112
869.539	21058
869.669	21074
869.799	21135
869.929	21321
870.06	21207
870.19	21279
870.32	21412
870.45	21363
870.58	21507
870.71	21587
870.84	21504
870.97	21526
871.1	21473
871.23	21637
871.36	21850
871.489	21591
871.619	21576
871.749	21766
871.879	21553
872.008	21671
872.138	21648
872.267	21614
872.397	21477
872.526	21450
872.656	21469
872.785	21561
872.915	21728
873.044	21656
873.173	21698
873.303	21701
873.432	21747
873.561	21915
873.69	21675
873.819	21660
873.948	21732
874.077	21717
874.206	21705
874.335	21599
874.464	21816
874.593	21888
874.722	21869
874.851	21892
874.979	21987
875.108	22002
875.237	21884
875.365	21736
875.494	21835
875.623	21998
875.751	21827
875.88	22025
876.008	22078
876.136	22097
876.265	22443
876.393	22310
876.521	22455
876.65	22386
876.778	22333
876.906	22291
877.034	22090
877.162	22337
877.29	22299
877.418	22306
877.546	22287
877.674	22306
877.802	22261
877.93	22188
878.058	22207
878.185	22173
878.313	22211
878.441	22238
878.568	22029
878.696	22150
878.824	22333
878.951	22367
879.079	22379
879.206	22557
879.333	22447
879.461	22405
879.588	22417
879.715	22584
879.842	22531
879.97	22310
880.097	22150
880.224	21998
880.351	22097
880.478	22135
880.605	22055
880.732	21994
880.859	22386
880.986	22223
881.112	22082
881.239	21930
881.366	21800
881.493	21717
881.619	21591
881.746	21633
881.872	21660
881.999	21603
882.125	21614
882.252	21595
882.378	21724
882.505	21774
882.631	21549
882.757	21443
882.883	21428
883.01	21382
883.136	21351
883.262	21192
883.388	21161
883.514	21370
883.64	21389
883.766	21279
883.892	21154
884.018	21195
884.143	21279
884.269	21469
884.395	21096
884.52	21074
884.646	20986
884.772	20944
884.897	20937
885.023	21028
885.148	21043
885.274	21222
885.399	21123
885.524	20967
885.65	21055
885.775	21005
885.9	20963
886.025	21131
886.15	21020
886.275	20937
886.4	20830
886.525	20967
886.65	20941
886.775	20963
886.9	21047
887.025	21272
887.149	20971
887.274	20815
887.399	20781
887.523	20804
887.648	20720
887.773	20712
887.897	20857
888.021	20845
888.146	20826
888.27	20868
888.395	20990
888.519	20804
888.643	20929
888.767	20845
888.891	20758
889.015	20651
889.139	20693
889.263	20606
889.387	20701
889.511	20792
889.635	20819
889.759	20682
889.883	20629
890.006	20587
890.13	20651
890.254	20393
890.377	20503
890.501	20358
890.624	20434
890.748	20469
890.871	20336
890.995	20191
891.118	20237
891.241	20168
891.364	20229
891.488	20259
891.611	20202
891.734	20305
891.857	20229
891.98	20263
892.103	20229
892.226	20317
892.349	20256
892.471	19993
892.594	20084
892.717	20183
892.839	20077
892.962	20088
893.085	20134
893.207	20031
893.33	20001
893.452	20065
893.575	20149
893.697	20069
893.819	20138
893.941	20336
894.064	20267
894.186	19951
894.308	19986
894.43	20153
894.552	20313
894.674	20214
894.796	19993
894.918	19993
895.04	20081
895.161	20115
895.283	20107
895.405	19932
895.526	20096
895.648	20077
895.769	20134
895.891	20005
896.012	20149
896.134	20058
896.255	20088
896.376	20035
896.498	20005
896.619	20157
896.74	20134
896.861	20195
896.982	20343
897.103	20484
897.224	20358
897.345	20328
897.466	20252
897.587	20263
897.708	20480
897.828	20218
897.949	20259
898.07	20180
898.19	20164
898.311	20469
898.431	20252
898.552	20347
898.672	20385
898.792	20358
898.913	20252
899.033	20077
899.153	20111
899.273	19906
899.393	20103
899.513	20168
899.633	20081
899.753	20001
899.873	20012
899.993	20103
900.113	19997
900.232	19947
900.352	19940
900.472	19849
900.591	19700
900.711	19799
900.83	19833
900.95	19936
901.069	19818
901.189	19696
901.308	19483
901.427	19422
901.546	19422
901.665	19411
901.784	19411
901.904	19339
902.023	19202
902.141	19152
902.26	18935
902.379	19099
902.498	18951
902.617	18993
902.735	18932
902.854	18787
902.973	18928
903.091	18711
903.21	18593
903.328	18570
903.446	18460
903.565	18498
903.683	18490
903.801	18338
903.919	18384
904.038	18285
904.156	18262
904.274	18224
904.392	18205
904.51	18220
904.627	18182
904.745	18243
904.863	18216
904.981	18106
905.098	17923
905.216	17824
905.334	17927
905.451	17851
905.569	17969
905.686	17942
905.803	17885
905.921	17611
906.038	17733
906.155	17627
906.272	17516
906.389	17539
906.506	17315
906.623	17337
906.74	17337
906.857	17280
906.974	17311
907.091	17406
907.208	17463
907.324	17410
907.441	17261
907.557	17079
907.674	17159
907.79	17105
907.907	16995
908.023	17037
908.139	17151
908.256	16987
908.372	16919
908.488	16999
908.604	16824
908.72	16752
908.836	16858
908.952	16740
909.068	16904
909.184	16930
909.3	16797
909.415	16847
909.531	16862
909.647	16561
909.762	16512
909.878	16546
909.993	16592
910.108	16531
910.224	16523
910.339	16390
910.454	16421
910.57	16284
910.685	16257
910.8	16588
910.915	16459
911.03	16325
911.145	16223
911.259	16105
911.374	16200
911.489	15994
911.604	15838
911.718	15941
911.833	15979
911.947	15736
912.062	15641
912.176	15755
912.291	15797
912.405	15747
912.519	15949
912.633	16059
912.748	15759
912.862	15739
912.976	15682
913.09	15618
913.204	15690
913.318	15667
913.431	15743
913.545	15728
913.659	15747
913.772	15660
913.886	15500
914	15450
914.113	15542
914.226	15580
914.34	15526
914.453	15344
914.566	15591
914.68	15325
914.793	15439
914.906	15123
915.019	15066
915.132	14979
915.245	15123
915.358	15154
915.47	15138
915.583	15043
915.696	15074
915.809	15199
915.921	15268
916.034	15070
916.146	15001
916.259	15077
916.371	14998
916.483	14982
916.595	14941
916.708	14876
916.82	14925
916.932	14891
917.044	14815
917.156	14925
917.268	14826
917.38	14773
917.491	14663
917.603	14727
917.715	14807
917.826	14792
917.938	14746
918.049	14571
918.161	14777
918.272	14830
918.384	14830
918.495	14640
918.606	14594
918.717	14423
918.828	14556
918.939	14412
919.05	14278
919.161	14492
919.272	14339
919.383	14278
919.494	14514
919.604	14686
919.715	14457
919.826	14370
919.936	14454
920.047	14541
920.157	14450
920.267	14701
920.378	14454
920.488	14396
920.598	14610
920.708	14823
920.818	14648
920.928	14537
921.038	14838
921.148	14686
921.258	14366
921.368	14366
921.477	14263
921.587	14195
921.697	14142
921.806	14225
921.916	13989
922.025	13993
922.134	13852
922.244	13841
922.353	13826
922.462	13765
922.571	13753
922.68	13544
922.789	13487
922.898	13499
923.007	13369
923.116	13620
923.224	13502
923.333	13362
923.442	13297
923.55	13308
923.659	13403
923.767	13324
923.876	13289
923.984	13285
924.092	13251
924.201	13244
924.309	13179
924.417	13156
924.525	13084
924.633	13137
924.741	13928
924.849	12928
924.956	13053
925.064	12954
925.172	12882
925.279	12882
925.387	12909
925.494	12943
925.602	13023
925.709	12779
925.816	12833
925.924	12779
926.031	12966
926.138	12886
926.245	12856
926.352	12642
926.459	12947
926.566	12867
926.673	12772
926.779	12608
926.886	12665
926.993	12589
927.099	12460
927.206	12437
927.312	12441
927.419	12441
927.525	12452
927.631	12502
927.737	12330
927.843	12395
927.95	12167
928.056	12247
928.162	12319
928.267	12327
928.373	12954
928.479	12361
928.585	12117
928.69	12258
928.796	12273
928.901	12121
929.007	11969
929.112	12079
929.218	11992
929.323	12041
929.428	12076
929.533	12163
929.638	11878
929.743	11992
929.848	11965
929.953	11920
930.058	11893
930.163	11699
930.267	11665
930.372	11878
930.477	11668
930.581	11866
930.685	11764
930.79	11589
930.894	11684
930.998	11543
931.103	11684
931.207	11353
931.311	11307
931.415	11117
931.519	10976
931.623	10892
