Data from test_V78500241_2097.txt Node
Date: Fri Mar 25 15:24:27 CST 2022
User: usil
Spectrometer: V785-0024
Trigger mode: 0
Integration Time (sec): 4.000000E-1
Scans to average: 1
Nonlinearity correction enabled: false
Boxcar width: 0
Storing dark spectrum: false
XAxis mode: Wavelengths
Number of Pixels in Spectrum: 1024
>>>>>Begin Spectral Data<<<<<
801.071	27846
801.214	27762
801.356	27549
801.499	27496
801.641	27424
801.783	27393
801.926	27500
802.068	27427
802.211	27374
802.353	27310
802.496	27142
802.638	27096
802.78	27096
802.923	26952
803.065	26849
803.208	26940
803.35	27055
803.492	27226
803.635	27325
803.777	27222
803.919	27230
804.061	27530
804.204	27294
804.346	27260
804.488	27138
804.63	27207
804.773	27085
804.915	27287
805.057	27302
805.199	27214
805.341	27294
805.483	27313
805.626	27332
805.768	27359
805.91	27313
806.052	27367
806.194	27233
806.336	27606
806.478	27408
806.62	27310
806.762	27454
806.904	27679
807.046	27888
807.188	27770
807.33	27831
807.472	27964
807.614	27781
807.756	27755
807.898	27728
808.04	27557
808.182	27644
808.324	27648
808.465	27682
808.607	27914
808.749	28112
808.891	28010
809.033	28097
809.174	28246
809.316	27956
809.458	27926
809.6	27869
809.741	28135
809.883	28234
810.025	28344
810.166	28207
810.308	28272
810.45	28238
810.591	28238
810.733	28090
810.875	28059
811.016	27975
811.158	27854
811.299	28002
811.441	27953
811.582	28070
811.724	28067
811.865	27972
812.007	27972
812.148	28078
812.29	28040
812.431	28234
812.573	28379
812.714	28341
812.855	28512
812.997	28577
813.138	28778
813.279	28656
813.421	28580
813.562	28592
813.703	28409
813.845	28055
813.986	28013
814.127	27804
814.268	27793
814.41	27671
814.551	27648
814.692	27789
814.833	27682
814.974	27660
815.115	27686
815.256	27580
815.397	27492
815.539	27496
815.68	27545
815.821	27507
815.962	27485
816.103	27568
816.244	27325
816.385	27412
816.526	27268
816.666	27028
816.807	26933
816.948	27127
817.089	27104
817.23	27085
817.371	26948
817.512	26918
817.653	26937
817.793	26739
817.934	26895
818.075	27096
818.216	27093
818.356	26933
818.497	26754
818.638	26754
818.778	26792
818.919	26777
819.06	26788
819.2	26830
819.341	26952
819.481	27032
819.622	27241
819.762	27382
819.903	27237
820.043	27135
820.184	27150
820.324	26990
820.465	27157
820.605	27074
820.746	26971
820.886	26933
821.026	26902
821.167	27039
821.307	27077
821.447	26887
821.588	26800
821.728	26849
821.868	26541
822.008	26347
822.149	26541
822.289	26377
822.429	26202
822.569	26077
822.709	26172
822.849	26001
822.99	25875
823.13	25837
823.27	26062
823.41	25685
823.55	25639
823.69	25715
823.83	25849
823.97	25677
824.11	25594
824.25	25635
824.389	25575
824.529	25635
824.669	25700
824.809	25685
824.949	25639
825.089	25666
825.228	25571
825.368	25422
825.508	25346
825.648	25392
825.787	25529
825.927	25457
826.067	25628
826.206	25548
826.346	25453
826.485	25514
826.625	25362
826.765	25445
826.904	25563
827.044	25206
827.183	25164
827.323	25179
827.462	25206
827.601	25244
827.741	25175
827.88	25213
828.02	24985
828.159	25110
828.298	25160
828.437	25137
828.577	25091
828.716	25312
828.855	24989
828.994	24871
829.134	24973
829.273	24829
829.412	24806
829.551	24757
829.69	24913
829.829	24795
829.968	24886
830.107	24833
830.246	24905
830.385	24882
830.524	24635
830.663	24658
830.802	24593
830.941	24365
831.08	24380
831.219	24559
831.357	24475
831.496	24700
831.635	24578
831.774	24376
831.913	24388
832.051	24357
832.19	24243
832.329	24273
832.467	24277
832.606	24102
832.744	24091
832.883	24076
833.022	24083
833.16	24136
833.299	24197
833.437	24186
833.576	24205
833.714	24079
833.852	24262
833.991	24232
834.129	24471
834.267	24148
834.406	24361
834.544	24114
834.682	24216
834.821	24098
834.959	24380
835.097	24114
835.235	24243
835.373	24194
835.511	24182
835.65	24015
835.788	23973
835.926	23984
836.064	23855
836.202	23882
836.34	24060
836.478	24076
836.615	23992
836.753	23988
836.891	24087
837.029	24003
837.167	23973
837.305	23916
837.443	23920
837.58	23756
837.718	23901
837.856	23901
837.993	23927
838.131	23855
838.269	23745
838.406	23783
838.544	23672
838.681	23524
838.819	23395
838.956	23398
839.094	23353
839.231	23455
839.369	23512
839.506	23722
839.643	23497
839.781	23349
839.918	23334
840.055	23258
840.193	23406
840.33	23212
840.467	23223
840.604	23216
840.742	23448
840.879	23109
841.016	23170
841.153	23041
841.29	23353
841.427	23181
841.564	23147
841.701	23235
841.838	23174
841.975	23220
842.112	23136
842.249	22995
842.385	23006
842.522	23239
842.659	22987
842.796	23029
842.933	23067
843.069	22961
843.206	22987
843.343	23022
843.479	23006
843.616	23022
843.752	22889
843.889	22721
844.025	22889
844.162	22824
844.298	22782
844.435	22740
844.571	22752
844.708	22820
844.844	22866
844.98	22961
845.117	22793
845.253	22710
845.389	22561
845.525	22641
845.661	22653
845.798	22523
845.934	22615
846.07	22459
846.206	22424
846.342	22687
846.478	22637
846.614	22238
846.75	22238
846.886	22280
847.022	22341
847.158	22226
847.294	22299
847.429	22341
847.565	22226
847.701	22462
847.837	21934
847.972	21937
848.108	22158
848.244	21998
848.379	21884
848.515	21884
848.65	21743
848.786	21838
848.921	21819
849.057	21937
849.192	21930
849.328	21873
849.463	21884
849.598	21953
849.734	21739
849.869	21789
850.004	21580
850.14	21618
850.275	21591
850.41	21500
850.545	21580
850.68	21534
850.815	21618
850.95	21561
851.085	21770
851.22	21739
851.355	21606
851.49	21705
851.625	21545
851.76	21583
851.895	21515
852.03	21450
852.165	21641
852.299	21717
852.434	21633
852.569	21625
852.703	21542
852.838	21591
852.973	21679
853.107	21652
853.242	21587
853.376	21439
853.511	21359
853.645	21340
853.78	21504
853.914	21481
854.048	21622
854.183	21500
854.317	21310
854.451	21694
854.585	21283
854.72	21355
854.854	21382
854.988	21336
855.122	21389
855.256	21359
855.39	21416
855.524	21424
855.658	21382
855.792	21504
855.926	21519
856.06	21557
856.194	21606
856.327	21332
856.461	21412
856.595	21408
856.729	21549
856.862	21416
856.996	21515
857.13	21374
857.263	21534
857.397	21511
857.53	21378
857.664	21504
857.797	21561
857.931	21526
858.064	21424
858.197	21534
858.331	21378
858.464	21382
858.597	21313
858.731	21367
858.864	21313
858.997	21321
859.13	21351
859.263	21466
859.396	21599
859.529	21458
859.662	21424
859.795	21287
859.928	21336
860.061	21511
860.194	21557
860.327	21564
860.46	21431
860.592	21435
860.725	21576
860.858	21515
860.99	21401
861.123	21325
861.256	21370
861.388	21378
861.521	22204
861.653	21355
861.786	21256
861.918	21245
862.05	21302
862.183	21367
862.315	21336
862.447	21519
862.58	21382
862.712	21077
862.844	21043
862.976	21351
863.108	21161
863.24	21519
863.372	21096
863.504	21055
863.636	20990
863.768	21241
863.9	21108
864.032	21089
864.164	21077
864.296	21203
864.428	21313
864.559	21214
864.691	21199
864.823	21188
864.954	21077
865.086	21081
865.217	20921
865.349	20861
865.48	21028
865.612	20998
865.743	21127
865.875	20963
866.006	20986
866.137	20971
866.269	21017
866.4	20933
866.531	21036
866.662	20948
866.793	20948
866.924	20948
867.055	21009
867.186	20982
867.317	21005
867.448	20887
867.579	20948
867.71	20887
867.841	20845
867.972	20868
868.103	20906
868.233	20967
868.364	20864
868.495	20952
868.625	21226
868.756	21329
868.886	21138
869.017	21226
869.147	21264
869.278	21252
869.408	21062
869.539	21207
869.669	21275
869.799	21146
869.929	21329
870.06	21355
870.19	21530
870.32	21458
870.45	21633
870.58	21671
870.71	21603
870.84	21671
870.97	21519
871.1	21583
871.23	21823
871.36	21842
871.489	21595
871.619	21781
871.749	21739
871.879	21667
872.008	21915
872.138	21770
872.267	21842
872.397	21690
872.526	21572
872.656	21637
872.785	21656
872.915	21770
873.044	21785
873.173	21759
873.303	21816
873.432	21857
873.561	21873
873.69	21850
873.819	21808
873.948	21861
874.077	21804
874.206	21778
874.335	21774
874.464	21918
874.593	22021
874.722	21850
874.851	21968
874.979	22139
875.108	22090
875.237	21956
875.365	21922
875.494	22105
875.623	22067
875.751	21987
875.88	22036
876.008	22234
876.136	22291
876.265	22329
876.393	22615
876.521	22466
876.65	22573
876.778	22424
876.906	22329
877.034	22295
877.162	22341
877.29	22280
877.418	22417
877.546	22329
877.674	22409
877.802	22310
877.93	22276
878.058	22329
878.185	22314
878.313	22188
878.441	22329
878.568	22116
878.696	22356
878.824	22474
878.951	22470
879.079	22421
879.206	22611
879.333	22656
879.461	22481
879.588	22478
879.715	22538
879.842	22687
879.97	22508
880.097	22147
880.224	22238
880.351	22200
880.478	22234
880.605	22124
880.732	22230
880.859	22424
880.986	22215
881.112	22090
881.239	22029
881.366	21945
881.493	21915
881.619	21778
881.746	21930
881.872	21732
881.999	21648
882.125	21861
882.252	21667
882.378	21717
882.505	21812
882.631	21591
882.757	21367
882.883	21454
883.01	21545
883.136	21443
883.262	21325
883.388	21264
883.514	21401
883.64	21420
883.766	21351
883.892	21039
884.018	21222
884.143	21397
884.269	21397
884.395	21165
884.52	21036
884.646	21074
884.772	21096
884.897	21119
885.023	21154
885.148	21184
885.274	21374
885.399	21165
885.524	21161
885.65	21226
885.775	21192
885.9	21089
886.025	21150
886.15	21154
886.275	21036
886.4	20921
886.525	21070
886.65	21070
886.775	21024
886.9	21154
887.025	21389
887.149	21058
887.274	20788
887.399	20861
887.523	20853
887.648	20819
887.773	20853
887.897	20933
888.021	20910
888.146	20800
888.27	21104
888.395	20952
888.519	20971
888.643	20963
888.767	20819
888.891	20800
889.015	20674
889.139	20655
889.263	20682
889.387	20701
889.511	20902
889.635	20804
889.759	20746
889.883	20648
890.006	20830
890.13	20891
890.254	20560
890.377	20537
890.501	20374
890.624	20385
890.748	20598
890.871	20282
890.995	20290
891.118	20275
891.241	20298
891.364	20256
891.488	20434
891.611	20343
891.734	20332
891.857	20339
891.98	20290
892.103	20339
892.226	20351
892.349	20256
892.471	20046
892.594	20138
892.717	20168
892.839	20134
892.962	20176
893.085	20218
893.207	20065
893.33	20096
893.452	20062
893.575	20191
893.697	20065
893.819	20438
893.941	20320
894.064	20320
894.186	20107
894.308	20062
894.43	20320
894.552	20355
894.674	20298
894.796	20138
894.918	20081
895.04	20275
895.161	20180
895.283	20145
895.405	20119
895.526	20183
895.648	20111
895.769	20301
895.891	20233
896.012	20233
896.134	20134
896.255	20111
896.376	20214
896.498	20240
896.619	20248
896.74	20202
896.861	20248
896.982	20423
897.103	20689
897.224	20358
897.345	20381
897.466	20278
897.587	20423
897.708	20526
897.828	20431
897.949	20358
898.07	20161
898.19	20374
898.311	20465
898.431	20259
898.552	20240
898.672	20530
898.792	20400
898.913	20389
899.033	20336
899.153	20294
899.273	20069
899.393	20100
899.513	20142
899.633	20081
899.753	20145
899.873	20126
899.993	20145
900.113	19997
900.232	20084
900.352	19974
900.472	19898
900.591	19875
900.711	20005
900.83	19879
900.95	19955
901.069	19959
901.189	19852
901.308	19537
901.427	19533
901.546	19518
901.665	19575
901.784	19571
901.904	19327
902.023	19327
902.141	19038
902.26	19099
902.379	19145
902.498	19038
902.617	19065
902.735	18981
902.854	18958
902.973	18962
903.091	18646
903.21	18669
903.328	18696
903.446	18601
903.565	18448
903.683	18429
903.801	18429
903.919	18479
904.038	18353
904.156	18357
904.274	18426
904.392	18243
904.51	18323
904.627	18201
904.745	18273
904.863	18330
904.981	17927
905.098	17958
905.216	17843
905.334	18030
905.451	17958
905.569	17885
905.686	17954
905.803	18030
905.921	17528
906.038	17843
906.155	17756
906.272	17524
906.389	17478
906.506	17448
906.623	17535
906.74	17467
906.857	17303
906.974	17345
907.091	17551
907.208	17589
907.324	17467
907.441	17368
907.557	17223
907.674	17162
907.79	17102
907.907	17151
908.023	17189
908.139	17105
908.256	17056
908.372	17170
908.488	17060
908.604	16854
908.72	16927
908.836	16820
908.952	16896
909.068	16877
909.184	16976
909.3	16866
909.415	16835
909.531	16850
909.647	16668
909.762	16706
909.878	16561
909.993	16713
910.108	16611
910.224	16554
910.339	16493
910.454	16535
910.57	16428
910.685	16287
910.8	16592
910.915	16508
911.03	16367
911.145	16242
911.259	16295
911.374	16147
911.489	16196
911.604	16040
911.718	15831
911.833	15903
911.947	15785
912.062	15770
912.176	15838
912.291	15907
912.405	15918
912.519	16135
912.633	16120
912.748	16025
912.862	15854
912.976	15766
913.09	15652
913.204	15759
913.318	15827
913.431	15838
913.545	15857
913.659	15865
913.772	15701
913.886	15584
914	15507
914.113	15694
914.226	15599
914.34	15667
914.453	15481
914.566	15542
914.68	15507
914.793	15466
914.906	15283
915.019	15093
915.132	15131
915.245	15112
915.358	15222
915.47	15211
915.583	15165
915.696	15207
915.809	15252
915.921	15336
916.034	15154
916.146	15062
916.259	15093
916.371	15157
916.483	15146
916.595	14990
916.708	14990
916.82	14971
916.932	14990
917.044	14861
917.156	14746
917.268	14804
917.38	14815
917.491	14781
917.603	14754
917.715	14891
917.826	14880
917.938	14769
918.049	14640
918.161	14750
918.272	14937
918.384	14937
918.495	14686
918.606	14526
918.717	14511
918.828	14697
918.939	14564
919.05	14484
919.161	14488
919.272	14381
919.383	14434
919.494	14613
919.604	14750
919.715	14568
919.826	14511
919.936	14530
920.047	14583
920.157	14556
920.267	14686
920.378	14480
920.488	14484
920.598	14629
920.708	14705
920.818	14701
920.928	14625
921.038	14758
921.148	14739
921.258	14454
921.368	14374
921.477	14221
921.587	14202
921.697	14164
921.806	14244
921.916	14180
922.025	13936
922.134	13909
922.244	13864
922.353	13868
922.462	13769
922.571	13738
922.68	13514
922.789	13613
922.898	13537
923.007	13400
923.116	13578
923.224	13533
923.333	13518
923.442	13430
923.55	13373
923.659	13369
923.767	13445
923.876	13289
923.984	13438
924.092	13278
924.201	13339
924.309	13316
924.417	13209
924.525	13206
924.633	13194
924.741	13947
924.849	12977
924.956	13133
925.064	13091
925.172	12867
925.279	12958
925.387	13019
925.494	12993
925.602	13152
925.709	13069
925.816	12871
925.924	12920
926.031	13004
926.138	12958
926.245	12897
926.352	12760
926.459	12973
926.566	13050
926.673	12825
926.779	12696
926.886	12787
926.993	12578
927.099	12528
927.206	12528
927.312	12414
927.419	12544
927.525	12498
927.631	12467
927.737	12407
927.843	12395
927.95	12273
928.056	12327
928.162	12380
928.267	12361
928.373	13023
928.479	12414
928.585	12258
928.69	12258
928.796	12433
928.901	12167
929.007	12125
929.112	12251
929.218	12254
929.323	12140
929.428	12034
929.533	12216
929.638	12072
929.743	12049
929.848	12083
929.953	12064
930.058	11954
930.163	11764
930.267	11695
930.372	11863
930.477	11733
930.581	11916
930.685	11813
930.79	11668
930.894	11672
930.998	11619
931.103	11764
931.207	11436
931.311	11288
931.415	11299
931.519	11033
931.623	10968
