Data from test_V78500241_398.txt Node
Date: Fri Mar 25 15:12:37 CST 2022
User: usil
Spectrometer: V785-0024
Trigger mode: 0
Integration Time (sec): 4.000000E-1
Scans to average: 1
Nonlinearity correction enabled: false
Boxcar width: 0
Storing dark spectrum: false
XAxis mode: Wavelengths
Number of Pixels in Spectrum: 1024
>>>>>Begin Spectral Data<<<<<
801.071	26864
801.214	26925
801.356	26800
801.499	26587
801.641	26526
801.783	26480
801.926	26465
802.068	26545
802.211	26476
802.353	26419
802.496	26259
802.638	26290
802.78	26161
802.923	26218
803.065	26145
803.208	26111
803.35	26138
803.492	26282
803.635	26347
803.777	26237
803.919	26351
804.061	26670
804.204	26431
804.346	26134
804.488	26164
804.63	26404
804.773	26157
804.915	26404
805.057	26461
805.199	26313
805.341	26404
805.483	26278
805.626	26446
805.768	26374
805.91	26412
806.052	26423
806.194	26370
806.336	26552
806.478	26385
806.62	26541
806.762	26526
806.904	26701
807.046	26910
807.188	26857
807.33	26739
807.472	26887
807.614	26739
807.756	26830
807.898	26625
808.04	26526
808.182	26632
808.324	26746
808.465	26583
808.607	26750
808.749	26849
808.891	27161
809.033	27161
809.174	27100
809.316	27150
809.458	27077
809.6	26921
809.741	26990
809.883	27150
810.025	27218
810.166	27283
810.308	27214
810.45	27207
810.591	27169
810.733	27058
810.875	27009
811.016	26819
811.158	26918
811.299	27089
811.441	27272
811.582	27013
811.724	26971
811.865	26785
812.007	26826
812.148	27017
812.29	26971
812.431	26967
812.573	27188
812.714	27443
812.855	27481
812.997	27667
813.138	27720
813.279	27603
813.421	27679
813.562	27351
813.703	27249
813.845	27203
813.986	26872
814.127	26750
814.268	26697
814.41	26537
814.551	26587
814.692	26739
814.833	26541
814.974	26480
815.115	26708
815.256	26434
815.397	26446
815.539	26571
815.68	26381
815.821	26385
815.962	26461
816.103	26438
816.244	26366
816.385	26126
816.526	26206
816.666	26069
816.807	25890
816.948	25986
817.089	26065
817.23	25970
817.371	25845
817.512	25936
817.653	26046
817.793	25883
817.934	25879
818.075	25997
818.216	25879
818.356	25955
818.497	25814
818.638	25635
818.778	25666
818.919	25586
819.06	25780
819.2	25898
819.341	25852
819.481	25742
819.622	25936
819.762	26343
819.903	26077
820.043	26122
820.184	26107
820.324	26031
820.465	26073
820.605	26065
820.746	26016
820.886	25833
821.026	26069
821.167	25944
821.307	25868
821.447	25940
821.588	25723
821.728	25731
821.868	25464
822.008	25396
822.149	25362
822.289	25289
822.429	25164
822.569	25034
822.709	24989
822.849	24897
822.99	24947
823.13	24935
823.27	24856
823.41	24703
823.55	24620
823.69	24722
823.83	24654
823.97	24741
824.11	24593
824.25	24452
824.389	24399
824.529	24433
824.669	24456
824.809	24719
824.949	24665
825.089	24559
825.228	24566
825.368	24391
825.508	24300
825.648	24502
825.787	24395
825.927	24254
826.067	24285
826.206	24315
826.346	24483
826.485	24315
826.625	24365
826.765	24502
826.904	24403
827.044	24144
827.183	24076
827.323	24087
827.462	24129
827.601	24064
827.741	24022
827.88	24098
828.02	23859
828.159	24076
828.298	24083
828.437	24083
828.577	24106
828.716	24034
828.855	23973
828.994	23760
829.134	23866
829.273	23946
829.412	23680
829.551	23703
829.69	23745
829.829	23885
829.968	23824
830.107	23783
830.246	23828
830.385	23646
830.524	23676
830.663	23589
830.802	23566
830.941	23585
831.08	23273
831.219	23387
831.357	23585
831.496	23531
831.635	23383
831.774	23315
831.913	23395
832.051	23174
832.19	23109
832.329	23280
832.467	23315
832.606	23124
832.744	23102
832.883	22984
833.022	23083
833.16	23193
833.299	23235
833.437	23162
833.576	23189
833.714	23254
833.852	23185
833.991	23315
834.129	23200
834.267	23204
834.406	23159
834.544	23159
834.682	23185
834.821	23189
834.959	23284
835.097	23102
835.235	23193
835.373	23124
835.511	23181
835.65	23064
835.788	23102
835.926	22858
836.064	22889
836.202	22938
836.34	23025
836.478	23143
836.615	22961
836.753	23071
836.891	23109
837.029	22987
837.167	22972
837.305	22873
837.443	22820
837.58	22923
837.718	22946
837.856	22919
837.993	22748
838.131	22850
838.269	22733
838.406	22900
838.544	22733
838.681	22489
838.819	22538
838.956	22379
839.094	22299
839.231	22348
839.369	22554
839.506	22839
839.643	22596
839.781	22390
839.918	22299
840.055	22390
840.193	22246
840.33	22276
840.467	22306
840.604	22421
840.742	22569
840.879	22223
841.016	22386
841.153	22215
841.29	22390
841.427	22268
841.564	22394
841.701	22344
841.838	22318
841.975	22253
842.112	22169
842.249	22086
842.385	21991
842.522	22177
842.659	22040
842.796	22101
842.933	22116
843.069	22067
843.206	22013
843.343	22116
843.479	21998
843.616	22143
843.752	21892
843.889	21895
844.025	22025
844.162	21812
844.298	21854
844.435	21903
844.571	21857
844.708	21876
844.844	21991
844.98	21987
845.117	21949
845.253	21819
845.389	21766
845.525	21804
845.661	21743
845.798	21591
845.934	21485
846.07	21580
846.206	21637
846.342	21682
846.478	21538
846.614	21428
846.75	21283
846.886	21367
847.022	21397
847.158	21317
847.294	21454
847.429	21306
847.565	21302
847.701	21511
847.837	21173
847.972	21062
848.108	21024
848.244	21157
848.379	20990
848.515	20944
848.65	20834
848.786	20941
848.921	20880
849.057	20963
849.192	20944
849.328	21055
849.463	20994
849.598	20838
849.734	20925
849.869	20785
850.004	20632
850.14	20720
850.275	20758
850.41	20594
850.545	20617
850.68	20613
850.815	20533
850.95	20667
851.085	20891
851.22	20762
851.355	20727
851.49	20678
851.625	20727
851.76	20758
851.895	20625
852.03	20495
852.165	20678
852.299	20796
852.434	20701
852.569	20644
852.703	20765
852.838	20781
852.973	20804
853.107	20796
853.242	20754
853.376	20602
853.511	20366
853.645	20579
853.78	20670
853.914	20511
854.048	20431
854.183	20438
854.317	20503
854.451	20792
854.585	20454
854.72	20484
854.854	20431
854.988	20400
855.122	20545
855.256	20370
855.39	20396
855.524	20590
855.658	20594
855.792	20549
855.926	20457
856.06	20533
856.194	20579
856.327	20469
856.461	20446
856.595	20495
856.729	20484
856.862	20758
856.996	20651
857.13	20568
857.263	20598
857.397	20598
857.53	20454
857.664	20454
857.797	20575
857.931	20533
858.064	20537
858.197	20678
858.331	20431
858.464	20351
858.597	20240
858.731	20434
858.864	20499
858.997	20541
859.13	20507
859.263	20412
859.396	20465
859.529	20545
859.662	20514
859.795	20438
859.928	20503
860.061	20632
860.194	20686
860.327	20499
860.46	20465
860.592	20613
860.725	20750
860.858	20541
860.99	20465
861.123	20393
861.256	20457
861.388	20579
861.521	21252
861.653	20313
861.786	20313
861.918	20366
862.05	20473
862.183	20366
862.315	20495
862.447	20488
862.58	20454
862.712	20290
862.844	20149
862.976	20278
863.108	20351
863.24	20697
863.372	20183
863.504	20210
863.636	20244
863.768	20248
863.9	20313
864.032	20103
864.164	20180
864.296	20282
864.428	20313
864.559	20305
864.691	20358
864.823	20263
864.954	20126
865.086	20161
865.217	20103
865.349	20046
865.48	20142
865.612	20122
865.743	20263
865.875	20103
866.006	20180
866.137	20134
866.269	20103
866.4	20069
866.531	20142
866.662	20024
866.793	20149
866.924	20024
867.055	20039
867.186	20016
867.317	19970
867.448	19967
867.579	20050
867.71	19940
867.841	19989
867.972	19970
868.103	20020
868.233	20081
868.364	19978
868.495	20142
868.625	20282
868.756	20374
868.886	20294
869.017	20324
869.147	20434
869.278	20389
869.408	20362
869.539	20301
869.669	20313
869.799	20351
869.929	20404
870.06	20347
870.19	20667
870.32	20739
870.45	20765
870.58	20712
870.71	20785
870.84	20724
870.97	20762
871.1	20655
871.23	20883
871.36	20941
871.489	20765
871.619	20910
871.749	20891
871.879	20956
872.008	20967
872.138	20910
872.267	20933
872.397	20849
872.526	20807
872.656	20743
872.785	20826
872.915	20845
873.044	21001
873.173	20986
873.303	21055
873.432	21028
873.561	21036
873.69	21055
873.819	20975
873.948	20933
874.077	20990
874.206	20815
874.335	20830
874.464	21135
874.593	21222
874.722	21058
874.851	21161
874.979	21233
875.108	21218
875.237	21165
875.365	21184
875.494	21096
875.623	21321
875.751	21268
875.88	21264
876.008	21325
876.136	21370
876.265	21519
876.393	21713
876.521	21587
876.65	21679
876.778	21614
876.906	21515
877.034	21530
877.162	21439
877.29	21568
877.418	21652
877.546	21587
877.674	21473
877.802	21523
877.93	21587
878.058	21511
878.185	21549
878.313	21504
878.441	21595
878.568	21408
878.696	21469
878.824	21629
878.951	21652
879.079	21800
879.206	21698
879.333	21717
879.461	21534
879.588	21606
879.715	21751
879.842	21884
879.97	21606
880.097	21348
880.224	21481
880.351	21386
880.478	21408
880.605	21291
880.732	21458
880.859	21595
880.986	21382
881.112	21504
881.239	21169
881.366	21195
881.493	21070
881.619	20994
881.746	21009
881.872	21001
881.999	21028
882.125	20792
882.252	20891
882.378	21036
882.505	20990
882.631	20804
882.757	20686
882.883	20720
883.01	20705
883.136	20629
883.262	20495
883.388	20503
883.514	20758
883.64	20765
883.766	20579
883.892	20476
884.018	20355
884.143	20537
884.269	20746
884.395	20377
884.52	20282
884.646	20358
884.772	20168
884.897	20134
885.023	20195
885.148	20389
885.274	20522
885.399	20324
885.524	20328
885.65	20370
885.775	20214
885.9	20298
886.025	20381
886.15	20389
886.275	20221
886.4	20214
886.525	20313
886.65	20191
886.775	20244
886.9	20393
887.025	20419
887.149	20180
887.274	20084
887.399	20058
887.523	20157
887.648	20005
887.773	20027
887.897	20138
888.021	20218
888.146	20035
888.27	20111
888.395	20176
888.519	20081
888.643	20145
888.767	20054
888.891	20043
889.015	19906
889.139	20016
889.263	19811
889.387	20046
889.511	20115
889.635	19986
889.759	19833
889.883	19765
890.006	19909
890.13	19936
890.254	19738
890.377	19738
890.501	19616
890.624	19590
890.748	19700
890.871	19487
890.995	19483
891.118	19457
891.241	19571
891.364	19502
891.488	19567
891.611	19556
891.734	19392
891.857	19521
891.98	19453
892.103	19605
892.226	19487
892.349	19407
892.471	19270
892.594	19373
892.717	19453
892.839	19384
892.962	19369
893.085	19464
893.207	19403
893.33	19225
893.452	19377
893.575	19396
893.697	19251
893.819	19441
893.941	19571
894.064	19605
894.186	19335
894.308	19274
894.43	19476
894.552	19491
894.674	19407
894.796	19365
894.918	19392
895.04	19411
895.161	19518
895.283	19343
895.405	19335
895.526	19316
895.648	19304
895.769	19464
895.891	19468
896.012	19476
896.134	19400
896.255	19400
896.376	19339
896.498	19324
896.619	19441
896.74	19411
896.861	19468
896.982	19708
897.103	19894
897.224	19776
897.345	19704
897.466	19537
897.587	19662
897.708	19811
897.828	19734
897.949	19518
898.07	19419
898.19	19609
898.311	19666
898.431	19662
898.552	19597
898.672	19620
898.792	19647
898.913	19655
899.033	19464
899.153	19400
899.273	19373
899.393	19312
899.513	19384
899.633	19297
899.753	19377
899.873	19346
899.993	19384
900.113	19339
900.232	19430
900.352	19263
900.472	19240
900.591	19061
900.711	19217
900.83	19103
900.95	19320
901.069	19221
901.189	19110
901.308	18840
901.427	18738
901.546	18658
901.665	18749
901.784	18764
901.904	18719
902.023	18540
902.141	18330
902.26	18330
902.379	18308
902.498	18258
902.617	18239
902.735	18281
902.854	18277
902.973	18251
903.091	17999
903.21	17977
903.328	17912
903.446	17760
903.565	17783
903.683	17836
903.801	17596
903.919	17642
904.038	17642
904.156	17573
904.274	17676
904.392	17596
904.51	17516
904.627	17547
904.745	17554
904.863	17551
904.981	17288
905.098	17258
905.216	17223
905.334	17280
905.451	17269
905.569	17151
905.686	17208
905.803	17136
905.921	16953
906.038	17067
906.155	17010
906.272	16877
906.389	16961
906.506	16740
906.623	16835
906.74	16710
906.857	16565
906.974	16752
907.091	16820
907.208	16850
907.324	16736
907.441	16778
907.557	16512
907.674	16573
907.79	16516
907.907	16455
908.023	16569
908.139	16485
908.256	16363
908.372	16318
908.488	16352
908.604	16287
908.72	16257
908.836	16215
908.952	16181
909.068	16166
909.184	16360
909.3	16128
909.415	16238
909.531	16238
909.647	15972
909.762	15892
909.878	15846
909.993	15934
910.108	15915
910.224	15865
910.339	15827
910.454	15743
910.57	15800
910.685	15663
910.8	15930
910.915	15812
911.03	15785
911.145	15481
911.259	15534
911.374	15614
911.489	15485
911.604	15378
911.718	15275
911.833	15306
911.947	15268
912.062	15028
912.176	15218
912.291	15237
912.405	15283
912.519	15386
912.633	15519
912.748	15370
912.862	15260
912.976	15127
913.09	14971
913.204	15161
913.318	15116
913.431	15207
913.545	15131
913.659	15180
913.772	15043
913.886	15017
914	14910
914.113	14952
914.226	15020
914.34	14941
914.453	14781
914.566	14979
914.68	14758
914.793	14765
914.906	14701
915.019	14613
915.132	14434
915.245	14602
915.358	14457
915.47	14564
915.583	14594
915.696	14587
915.809	14720
915.921	14796
916.034	14499
916.146	14476
916.259	14339
916.371	14613
916.483	14533
916.595	14412
916.708	14465
916.82	14480
916.932	14343
917.044	14427
917.156	14328
917.268	14244
917.38	14259
917.491	14176
917.603	14298
917.715	14298
917.826	14298
917.938	14252
918.049	14058
918.161	14183
918.272	14263
918.384	14351
918.495	14244
918.606	14058
918.717	13974
918.828	13963
918.939	14069
919.05	13902
919.161	13936
919.272	13769
919.383	13807
919.494	14103
919.604	14233
919.715	13921
919.826	13822
919.936	13940
920.047	14054
920.157	13894
920.267	14138
920.378	13993
920.488	13868
920.598	14214
920.708	14259
920.818	14073
920.928	14111
921.038	14176
921.148	14168
921.258	13894
921.368	13856
921.477	13693
921.587	13738
921.697	13609
921.806	13750
921.916	13559
922.025	13426
922.134	13441
922.244	13316
922.353	13324
922.462	13221
922.571	13160
922.68	13072
922.789	12951
922.898	13103
923.007	12916
923.116	12958
923.224	13000
923.333	12932
923.442	12890
923.55	12909
923.659	12878
923.767	12882
923.876	12764
923.984	12844
924.092	12791
924.201	12859
924.309	12692
924.417	12745
924.525	12749
924.633	12673
924.741	13655
924.849	12384
924.956	12612
925.064	12536
925.172	12403
925.279	12429
925.387	12536
925.494	12433
925.602	12608
925.709	12506
925.816	12346
925.924	12357
926.031	12574
926.138	12365
926.245	12494
926.352	12315
926.459	12445
926.566	12422
926.673	12213
926.779	12201
926.886	12224
926.993	11977
927.099	12114
927.206	11950
927.312	11965
927.419	11973
927.525	12064
927.631	12041
927.737	11939
927.843	11969
927.95	11714
928.056	11897
928.162	11954
928.267	11965
928.373	12467
928.479	11901
928.585	11718
928.69	11794
928.796	11916
928.901	11767
929.007	11589
929.112	11737
929.218	11714
929.323	11623
929.428	11638
929.533	11748
929.638	11585
929.743	11600
929.848	11581
929.953	11577
930.058	11425
930.163	11379
930.267	11402
930.372	11406
930.477	11254
930.581	11459
930.685	11330
930.79	11265
930.894	11231
930.998	11220
931.103	11356
931.207	10953
931.311	10862
931.415	10835
931.519	10607
931.623	10577
