Data from test_V78500241_2295.txt Node
Date: Fri Mar 25 15:25:50 CST 2022
User: usil
Spectrometer: V785-0024
Trigger mode: 0
Integration Time (sec): 4.000000E-1
Scans to average: 1
Nonlinearity correction enabled: false
Boxcar width: 0
Storing dark spectrum: false
XAxis mode: Wavelengths
Number of Pixels in Spectrum: 1024
>>>>>Begin Spectral Data<<<<<
801.071	27732
801.214	27720
801.356	27424
801.499	27393
801.641	27207
801.783	27268
801.926	27245
802.068	27393
802.211	27252
802.353	27169
802.496	27020
802.638	26933
802.78	26933
802.923	26804
803.065	26754
803.208	26731
803.35	26956
803.492	27070
803.635	27180
803.777	26979
803.919	27138
804.061	27427
804.204	27154
804.346	27043
804.488	26982
804.63	27055
804.773	27199
804.915	27161
805.057	27184
805.199	27100
805.341	27154
805.483	27302
805.626	27203
805.768	27317
805.91	27298
806.052	27211
806.194	27275
806.336	27427
806.478	27287
806.62	27256
806.762	27401
806.904	27469
807.046	27739
807.188	27652
807.33	27816
807.472	27690
807.614	27599
807.756	27572
807.898	27637
808.04	27393
808.182	27435
808.324	27568
808.465	27603
808.607	27717
808.749	27972
808.891	27941
809.033	27975
809.174	27895
809.316	27842
809.458	27732
809.6	27774
809.741	27892
809.883	27953
810.025	28010
810.166	28006
810.308	27975
810.45	28147
810.591	27994
810.733	27816
810.875	27884
811.016	27778
811.158	27667
811.299	27880
811.441	27991
811.582	27823
811.724	27690
811.865	27728
812.007	27770
812.148	27755
812.29	27781
812.431	27941
812.573	28162
812.714	28318
812.855	28318
812.997	28508
813.138	28580
813.279	28550
813.421	28322
813.562	28268
813.703	28310
813.845	28150
813.986	27873
814.127	27755
814.268	27568
814.41	27561
814.551	27435
814.692	27538
814.833	27424
814.974	27641
815.115	27496
815.256	27462
815.397	27367
815.539	27412
815.68	27230
815.821	27298
815.962	27214
816.103	27313
816.244	27180
816.385	27138
816.526	27043
816.666	26910
816.807	26773
816.948	26910
817.089	26872
817.23	26826
817.371	26925
817.512	26731
817.653	26792
817.793	26777
817.934	26872
818.075	26743
818.216	26857
818.356	26743
818.497	26629
818.638	26400
818.778	26514
818.919	26473
819.06	26552
819.2	26590
819.341	26663
819.481	26746
819.622	26960
819.762	27127
819.903	27001
820.043	26853
820.184	26960
820.324	26731
820.465	26906
820.605	26956
820.746	26769
820.886	26727
821.026	26834
821.167	26750
821.307	26960
821.447	26720
821.588	26632
821.728	26594
821.868	26275
822.008	26282
822.149	26199
822.289	26191
822.429	26065
822.569	26008
822.709	25944
822.849	25837
822.99	25860
823.13	25723
823.27	25746
823.41	25704
823.55	25453
823.69	25582
823.83	25563
823.97	25468
824.11	25335
824.25	25301
824.389	25327
824.529	25438
824.669	25487
824.809	25415
824.949	25464
825.089	25396
825.228	25381
825.368	25301
825.508	25221
825.648	25350
825.787	25255
825.927	25422
826.067	25304
826.206	25175
826.346	25335
826.485	25343
826.625	25194
826.765	25419
826.904	25278
827.044	25091
827.183	24894
827.323	24920
827.462	24973
827.601	24970
827.741	24882
827.88	25091
828.02	24935
828.159	24954
828.298	24966
828.437	24977
828.577	24871
828.716	25069
828.855	24985
828.994	24639
829.134	24707
829.273	24757
829.412	24620
829.551	24661
829.69	24620
829.829	24696
829.968	24791
830.107	24768
830.246	24669
830.385	24578
830.524	24547
830.663	24437
830.802	24342
830.941	24216
831.08	24155
831.219	24304
831.357	24304
831.496	24574
831.635	24262
831.774	24235
831.913	24167
832.051	24064
832.19	24064
832.329	24076
832.467	23965
832.606	24015
832.744	23885
832.883	23935
833.022	23908
833.16	24106
833.299	24007
833.437	23973
833.576	24041
833.714	24068
833.852	24064
833.991	24045
834.129	24049
834.267	24106
834.406	24079
834.544	24015
834.682	24022
834.821	23931
834.959	24106
835.097	23946
835.235	23973
835.373	23973
835.511	23992
835.65	23824
835.788	23939
835.926	23756
836.064	23672
836.202	23691
836.34	23741
836.478	23939
836.615	23657
836.753	23783
836.891	23779
837.029	23893
837.167	23851
837.305	23756
837.443	23657
837.58	23684
837.718	23745
837.856	23733
837.993	23691
838.131	23646
838.269	23535
838.406	23634
838.544	23467
838.681	23307
838.819	23330
838.956	23231
839.094	23174
839.231	23189
839.369	23353
839.506	23520
839.643	23341
839.781	23185
839.918	23041
840.055	23132
840.193	23128
840.33	23041
840.467	23056
840.604	23067
840.742	23265
840.879	22972
841.016	22972
841.153	22923
841.29	23178
841.427	22923
841.564	23102
841.701	23033
841.838	23075
841.975	22938
842.112	22946
842.249	22824
842.385	22843
842.522	23162
842.659	22805
842.796	22839
842.933	22835
843.069	22774
843.206	22866
843.343	22835
843.479	22900
843.616	22809
843.752	22592
843.889	22675
844.025	22683
844.162	22618
844.298	22774
844.435	22626
844.571	22588
844.708	22710
844.844	22694
844.98	22828
845.117	22664
845.253	22523
845.389	22329
845.525	22474
845.661	22413
845.798	22303
845.934	22360
846.07	22314
846.206	22405
846.342	22455
846.478	22318
846.614	22048
846.75	22025
846.886	21987
847.022	22025
847.158	22090
847.294	22112
847.429	22051
847.565	22112
847.701	22280
847.837	21762
847.972	21781
848.108	21850
848.244	21808
848.379	21679
848.515	21641
848.65	21625
848.786	21564
848.921	21736
849.057	21800
849.192	21759
849.328	21553
849.463	21629
849.598	21629
849.734	21698
849.869	21587
850.004	21382
850.14	21374
850.275	21401
850.41	21393
850.545	21401
850.68	21367
850.815	21348
850.95	21447
851.085	21603
851.22	21500
851.355	21542
851.49	21416
851.625	21462
851.76	21367
851.895	21382
852.03	21374
852.165	21477
852.299	21488
852.434	21523
852.569	21386
852.703	21439
852.838	21469
852.973	21431
853.107	21637
853.242	21287
853.376	21272
853.511	21161
853.645	21195
853.78	21416
853.914	21237
854.048	21127
854.183	21211
854.317	21252
854.451	21355
854.585	21252
854.72	21367
854.854	21260
854.988	21165
855.122	21241
855.256	21135
855.39	21245
855.524	21329
855.658	21279
855.792	21268
855.926	21230
856.06	21340
856.194	21367
856.327	21192
856.461	21146
856.595	21211
856.729	21283
856.862	21359
856.996	21226
857.13	21291
857.263	21317
857.397	21203
857.53	21150
857.664	21283
857.797	21306
857.931	21397
858.064	21275
858.197	21310
858.331	21351
858.464	21169
858.597	21256
858.731	21252
858.864	21085
858.997	21157
859.13	21222
859.263	21298
859.396	21249
859.529	21245
859.662	21116
859.795	21218
859.928	21241
860.061	21412
860.194	21382
860.327	21184
860.46	21249
860.592	21233
860.725	21435
860.858	21355
860.99	21195
861.123	21108
861.256	21294
861.388	21279
861.521	22017
861.653	21077
861.786	21123
861.918	21058
862.05	21211
862.183	21306
862.315	21237
862.447	21287
862.58	21161
862.712	21047
862.844	20967
862.976	21028
863.108	21028
863.24	21401
863.372	20975
863.504	20975
863.636	20952
863.768	20975
863.9	21013
864.032	20956
864.164	20925
864.296	20952
864.428	21028
864.559	21051
864.691	21055
864.823	20941
864.954	20902
865.086	20891
865.217	20906
865.349	20765
865.48	20910
865.612	20864
865.743	20861
865.875	20880
866.006	20857
866.137	20838
866.269	20712
866.4	20785
866.531	20796
866.662	20781
866.793	20724
866.924	20735
867.055	20769
867.186	20670
867.317	20796
867.448	20773
867.579	20800
867.71	20724
867.841	20689
867.972	20754
868.103	20659
868.233	20769
868.364	20762
868.495	20902
868.625	21013
868.756	21176
868.886	20990
869.017	20960
869.147	21085
869.278	21058
869.408	21138
869.539	21093
869.669	21188
869.799	21165
869.929	21108
870.06	21195
870.19	21272
870.32	21222
870.45	21325
870.58	21382
870.71	21515
870.84	21447
870.97	21412
871.1	21344
871.23	21618
871.36	21682
871.489	21557
871.619	21591
871.749	21534
871.879	21667
872.008	21774
872.138	21671
872.267	21682
872.397	21462
872.526	21332
872.656	21447
872.785	21405
872.915	21591
873.044	21660
873.173	21591
873.303	21652
873.432	21656
873.561	21789
873.69	21549
873.819	21694
873.948	21747
874.077	21762
874.206	21553
874.335	21572
874.464	21610
874.593	21800
874.722	21880
874.851	21911
874.979	21937
875.108	21907
875.237	21876
875.365	21831
875.494	21755
875.623	21895
875.751	21770
875.88	21873
876.008	21975
876.136	22063
876.265	22265
876.393	22440
876.521	22402
876.65	22230
876.778	22386
876.906	22177
877.034	22253
877.162	22230
877.29	22128
877.418	22280
877.546	22215
877.674	22162
877.802	22196
877.93	22181
878.058	22131
878.185	22070
878.313	22223
878.441	22265
878.568	22078
878.696	22147
878.824	22166
878.951	22367
879.079	22360
879.206	22497
879.333	22238
879.461	22139
879.588	22310
879.715	22432
879.842	22580
879.97	22322
880.097	22135
880.224	21915
880.351	22090
880.478	21968
880.605	22032
880.732	21994
880.859	22337
880.986	22040
881.112	22116
881.239	21850
881.366	21667
881.493	21739
881.619	21682
881.746	21804
881.872	21675
881.999	21618
882.125	21466
882.252	21576
882.378	21557
882.505	21724
882.631	21450
882.757	21332
882.883	21458
883.01	21332
883.136	21214
883.262	21260
883.388	21154
883.514	21272
883.64	21351
883.766	21237
883.892	21081
884.018	21066
884.143	21256
884.269	21302
884.395	21039
884.52	20880
884.646	21028
884.772	20876
884.897	20834
885.023	21028
885.148	21089
885.274	21100
885.399	21013
885.524	20979
885.65	20941
885.775	20941
885.9	20994
886.025	21146
886.15	21058
886.275	20967
886.4	20925
886.525	20990
886.65	20960
886.775	20937
886.9	21047
887.025	21214
887.149	20944
887.274	20674
887.399	20769
887.523	20674
887.648	20682
887.773	20743
887.897	20754
888.021	20743
888.146	20629
888.27	20762
888.395	20781
888.519	20804
888.643	20796
888.767	20720
888.891	20705
889.015	20598
889.139	20556
889.263	20533
889.387	20609
889.511	20693
889.635	20670
889.759	20480
889.883	20602
890.006	20609
890.13	20655
890.254	20423
890.377	20613
890.501	20347
890.624	20142
890.748	20434
890.871	20149
890.995	20145
891.118	20035
891.241	19993
891.364	20225
891.488	20336
891.611	20176
891.734	20176
891.857	20069
891.98	20119
892.103	20157
892.226	20130
892.349	20161
892.471	19928
892.594	20039
892.717	20012
892.839	19993
892.962	19947
893.085	20039
893.207	19986
893.33	19944
893.452	19795
893.575	20054
893.697	20016
893.819	20195
893.941	20290
894.064	19982
894.186	19986
894.308	19913
894.43	20050
894.552	20111
894.674	20050
894.796	20024
894.918	20001
895.04	19951
895.161	20058
895.283	20035
895.405	19932
895.526	19932
895.648	19917
895.769	19906
895.891	20039
896.012	19997
896.134	20065
896.255	20138
896.376	19906
896.498	20069
896.619	20043
896.74	19989
896.861	19963
896.982	20218
897.103	20339
897.224	20233
897.345	20229
897.466	20100
897.587	20244
897.708	20385
897.828	20218
897.949	20035
898.07	20062
898.19	20122
898.311	20256
898.431	20233
898.552	20259
898.672	20252
898.792	20358
898.913	20313
899.033	20088
899.153	20073
899.273	19921
899.393	20031
899.513	20039
899.633	19974
899.753	19970
899.873	19909
899.993	20016
900.113	19852
900.232	19826
900.352	19906
900.472	19845
900.591	19814
900.711	19769
900.83	19784
900.95	19868
901.069	19788
901.189	19575
901.308	19411
901.427	19270
901.546	19377
901.665	19320
901.784	19343
901.904	19133
902.023	19027
902.141	18829
902.26	18856
902.379	18981
902.498	18856
902.617	18688
902.735	18909
902.854	18833
902.973	18703
903.091	18464
903.21	18536
903.328	18551
903.446	18403
903.565	18254
903.683	18365
903.801	18239
903.919	18311
904.038	18216
904.156	18159
904.274	18216
904.392	18144
904.51	18114
904.627	18064
904.745	18076
904.863	18216
904.981	17878
905.098	17710
905.216	17828
905.334	17821
905.451	17790
905.569	17779
905.686	17809
905.803	17745
905.921	17577
906.038	17665
906.155	17577
906.272	17474
906.389	17478
906.506	17360
906.623	17239
906.74	17330
906.857	17185
906.974	17086
907.091	17337
907.208	17395
907.324	17299
907.441	17204
907.557	16987
907.674	17094
907.79	16991
907.907	16938
908.023	16953
908.139	16892
908.256	17003
908.372	16991
908.488	16820
908.604	16778
908.72	16801
908.836	16797
908.952	16729
909.068	16729
909.184	16786
909.3	16729
909.415	16755
909.531	16759
909.647	16443
909.762	16558
909.878	16386
909.993	16432
910.108	16390
910.224	16424
910.339	16409
910.454	16322
910.57	16246
910.685	16166
910.8	16470
910.915	16497
911.03	16143
911.145	16059
911.259	16017
911.374	16017
911.489	16006
911.604	15994
911.718	15789
911.833	15770
911.947	15713
912.062	15618
912.176	15804
912.291	15869
912.405	15686
912.519	15975
912.633	16055
912.748	15751
912.862	15823
912.976	15549
913.09	15492
913.204	15663
913.318	15644
913.431	15633
913.545	15736
913.659	15637
913.772	15576
913.886	15378
914	15344
914.113	15530
914.226	15515
914.34	15545
914.453	15351
914.566	15412
914.68	15370
914.793	15370
914.906	15062
915.019	14948
915.132	15009
915.245	14998
915.358	15055
915.47	15108
915.583	15013
915.696	15070
915.809	15146
915.921	15127
916.034	14933
916.146	14883
916.259	14963
916.371	14990
916.483	14944
916.595	14933
916.708	14891
916.82	14853
916.932	14769
917.044	14811
917.156	14735
917.268	14682
917.38	14739
917.491	14644
917.603	14651
917.715	14746
917.826	14743
917.938	14533
918.049	14503
918.161	14701
918.272	14876
918.384	14686
918.495	14705
918.606	14450
918.717	14324
918.828	14461
918.939	14476
919.05	14389
919.161	14374
919.272	14153
919.383	14343
919.494	14454
919.604	14678
919.715	14442
919.826	14282
919.936	14355
920.047	14396
920.157	14294
920.267	14621
920.378	14484
920.488	14374
920.598	14541
920.708	14598
920.818	14549
920.928	14568
921.038	14632
921.148	14693
921.258	14298
921.368	14256
921.477	14138
921.587	14134
921.697	14001
921.806	14172
921.916	13970
922.025	13841
922.134	13803
922.244	13784
922.353	13803
922.462	13662
922.571	13537
922.68	13445
922.789	13510
922.898	13392
923.007	13339
923.116	13434
923.224	13430
923.333	13377
923.442	13274
923.55	13255
923.659	13339
923.767	13445
923.876	13259
923.984	13225
924.092	13141
924.201	13259
924.309	13187
924.417	13289
924.525	13133
924.633	13122
924.741	13947
924.849	12932
924.956	13072
925.064	12928
925.172	12753
925.279	12760
925.387	12863
925.494	12859
925.602	12985
925.709	12905
925.816	12768
925.924	12795
926.031	12856
926.138	12802
926.245	12795
926.352	12719
926.459	12779
926.566	12871
926.673	12738
926.779	12650
926.886	12639
926.993	12475
927.099	12422
927.206	12308
927.312	12433
927.419	12475
927.525	12418
927.631	12429
927.737	12388
927.843	12205
927.95	12129
928.056	12232
928.162	12308
928.267	12334
928.373	12817
928.479	12311
928.585	12079
928.69	12190
928.796	12213
928.901	12114
929.007	12095
929.112	12175
929.218	12095
929.323	11999
929.428	11885
929.533	12045
929.638	11863
929.743	11912
929.848	11904
929.953	11897
930.058	11828
930.163	11802
930.267	11611
930.372	11836
930.477	11551
930.581	11817
930.685	11665
930.79	11661
930.894	11558
930.998	11444
931.103	11649
931.207	11303
931.311	11277
931.415	11166
931.519	10934
931.623	10980
