Data from test_V78500241_2702.txt Node
Date: Fri Mar 25 15:28:40 CST 2022
User: usil
Spectrometer: V785-0024
Trigger mode: 0
Integration Time (sec): 4.000000E-1
Scans to average: 1
Nonlinearity correction enabled: false
Boxcar width: 0
Storing dark spectrum: false
XAxis mode: Wavelengths
Number of Pixels in Spectrum: 1024
>>>>>Begin Spectral Data<<<<<
801.071	27055
801.214	27096
801.356	26872
801.499	26800
801.641	26655
801.783	26560
801.926	26861
802.068	26727
802.211	26663
802.353	26408
802.496	26332
802.638	26343
802.78	26282
802.923	26263
803.065	26259
803.208	26199
803.35	26282
803.492	26473
803.635	26419
803.777	26225
803.919	26476
804.061	26712
804.204	26465
804.346	26358
804.488	26324
804.63	26495
804.773	26370
804.915	26362
805.057	26560
805.199	26305
805.341	26522
805.483	26533
805.626	26537
805.768	26457
805.91	26541
806.052	26629
806.194	26461
806.336	26750
806.478	26499
806.62	26480
806.762	26564
806.904	26842
807.046	27032
807.188	27001
807.33	26914
807.472	27024
807.614	26925
807.756	26960
807.898	26682
808.04	26705
808.182	26804
808.324	26826
808.465	26857
808.607	26960
808.749	27233
808.891	27272
809.033	27359
809.174	27222
809.316	27104
809.458	27222
809.6	27093
809.741	27222
809.883	27260
810.025	27477
810.166	27519
810.308	27526
810.45	27279
810.591	27405
810.733	27146
810.875	27123
811.016	27138
811.158	27161
811.299	27321
811.441	27329
811.582	27397
811.724	27169
811.865	27104
812.007	27184
812.148	27051
812.29	27085
812.431	27279
812.573	27427
812.714	27523
812.855	27530
812.997	27694
813.138	27823
813.279	27781
813.421	27641
813.562	27564
813.703	27378
813.845	27237
813.986	27032
814.127	26994
814.268	26910
814.41	26826
814.551	26701
814.692	26864
814.833	26849
814.974	26705
815.115	26720
815.256	26701
815.397	26644
815.539	26549
815.68	26545
815.821	26613
815.962	26724
816.103	26594
816.244	26480
816.385	26305
816.526	26347
816.666	26267
816.807	26020
816.948	26221
817.089	26027
817.23	26168
817.371	26084
817.512	26027
817.653	25970
817.793	25864
817.934	26027
818.075	26092
818.216	26134
818.356	26050
818.497	25959
818.638	25833
818.778	25784
818.919	25704
819.06	26020
819.2	25925
819.341	26031
819.481	26005
819.622	26275
819.762	26434
819.903	26351
820.043	26225
820.184	26164
820.324	26149
820.465	26130
820.605	26240
820.746	26069
820.886	25902
821.026	26035
821.167	26138
821.307	26176
821.447	26046
821.588	25974
821.728	25894
821.868	25761
822.008	25567
822.149	25556
822.289	25445
822.429	25259
822.569	25316
822.709	25213
822.849	25148
822.99	25027
823.13	24947
823.27	25000
823.41	24829
823.55	24787
823.69	24772
823.83	24722
823.97	24787
824.11	24563
824.25	24631
824.389	24536
824.529	24616
824.669	24719
824.809	24757
824.949	24772
825.089	24806
825.228	24604
825.368	24350
825.508	24414
825.648	24570
825.787	24555
825.927	24696
826.067	24517
826.206	24566
826.346	24608
826.485	24585
826.625	24429
826.765	24677
826.904	24475
827.044	24216
827.183	24433
827.323	24129
827.462	24254
827.601	24262
827.741	24315
827.88	24197
828.02	24034
828.159	24155
828.298	24273
828.437	24262
828.577	24095
828.716	24285
828.855	24152
828.994	23958
829.134	23859
829.273	23973
829.412	23980
829.551	23904
829.69	23805
829.829	23874
829.968	23931
830.107	24007
830.246	23893
830.385	23920
830.524	23859
830.663	23836
830.802	23691
830.941	23558
831.08	23440
831.219	23630
831.357	23581
831.496	23718
831.635	23539
831.774	23444
831.913	23433
832.051	23322
832.19	23284
832.329	23280
832.467	23246
832.606	23212
832.744	23121
832.883	23064
833.022	23200
833.16	23185
833.299	23284
833.437	23223
833.576	23162
833.714	23296
833.852	23376
833.991	23356
834.129	23303
834.267	23414
834.406	23250
834.544	23364
834.682	23318
834.821	23395
834.959	23459
835.097	23220
835.235	23269
835.373	23364
835.511	23193
835.65	23151
835.788	23261
835.926	22972
836.064	22957
836.202	23025
836.34	23083
836.478	23174
836.615	23166
836.753	23079
836.891	23140
837.029	23140
837.167	22995
837.305	22968
837.443	23018
837.58	22991
837.718	23022
837.856	23067
837.993	22736
838.131	22965
838.269	22911
838.406	22923
838.544	22736
838.681	22679
838.819	22630
838.956	22375
839.094	22569
839.231	22554
839.369	22679
839.506	22911
839.643	22664
839.781	22394
839.918	22447
840.055	22466
840.193	22386
840.33	22375
840.467	22474
840.604	22519
840.742	22740
840.879	22253
841.016	22303
841.153	22390
841.29	22417
841.427	22325
841.564	22390
841.701	22356
841.838	22417
841.975	22268
842.112	22398
842.249	22257
842.385	22261
842.522	22413
842.659	22310
842.796	22086
842.933	22169
843.069	22070
843.206	22059
843.343	22173
843.479	22048
843.616	22200
843.752	21915
843.889	21911
844.025	22101
844.162	21964
844.298	21994
844.435	22044
844.571	22032
844.708	21979
844.844	22090
844.98	22128
845.117	22044
845.253	21781
845.389	21812
845.525	21880
845.661	21842
845.798	21701
845.934	21656
846.07	21618
846.206	21694
846.342	21793
846.478	21686
846.614	21496
846.75	21329
846.886	21591
847.022	21405
847.158	21454
847.294	21408
847.429	21488
847.565	21363
847.701	21633
847.837	21047
847.972	21112
848.108	21150
848.244	21256
848.379	21070
848.515	20849
848.65	20933
848.786	20975
848.921	20910
849.057	21058
849.192	21062
849.328	21058
849.463	21009
849.598	20887
849.734	20849
849.869	20929
850.004	20823
850.14	20853
850.275	20948
850.41	20651
850.545	20724
850.68	20693
850.815	20750
850.95	20545
851.085	20975
851.22	20735
851.355	20777
851.49	20762
851.625	20815
851.76	20670
851.895	20541
852.03	20819
852.165	20716
852.299	20819
852.434	20769
852.569	20773
852.703	20705
852.838	20963
852.973	20849
853.107	20861
853.242	20674
853.376	20541
853.511	20480
853.645	20590
853.78	20686
853.914	20594
854.048	20667
854.183	20492
854.317	20579
854.451	20826
854.585	20590
854.72	20617
854.854	20621
854.988	20598
855.122	20575
855.256	20370
855.39	20682
855.524	20686
855.658	20697
855.792	20590
855.926	20583
856.06	20609
856.194	20651
856.327	20549
856.461	20530
856.595	20431
856.729	20526
856.862	20701
856.996	20594
857.13	20632
857.263	20613
857.397	20602
857.53	20511
857.664	20598
857.797	20507
857.931	20720
858.064	20541
858.197	20762
858.331	20552
858.464	20632
858.597	20374
858.731	20602
858.864	20648
858.997	20530
859.13	20518
859.263	20648
859.396	20629
859.529	20434
859.662	20495
859.795	20499
859.928	20613
860.061	20705
860.194	20777
860.327	20724
860.46	20655
860.592	20750
860.725	20868
860.858	20746
860.99	20693
861.123	20442
861.256	20511
861.388	20514
861.521	21230
861.653	20446
861.786	20374
861.918	20492
862.05	20469
862.183	20469
862.315	20488
862.447	20552
862.58	20549
862.712	20408
862.844	20290
862.976	20389
863.108	20454
863.24	20826
863.372	20176
863.504	20328
863.636	20244
863.768	20332
863.9	20351
864.032	20218
864.164	20275
864.296	20374
864.428	20396
864.559	20362
864.691	20298
864.823	20309
864.954	20240
865.086	20278
865.217	20294
865.349	20142
865.48	20176
865.612	20180
865.743	20320
865.875	20138
866.006	20149
866.137	20134
866.269	20259
866.4	20278
866.531	20073
866.662	20161
866.793	20084
866.924	20111
867.055	20164
867.186	20058
867.317	20058
867.448	19928
867.579	20096
867.71	20008
867.841	20008
867.972	20062
868.103	20081
868.233	20100
868.364	20126
868.495	20252
868.625	20347
868.756	20454
868.886	20263
869.017	20393
869.147	20400
869.278	20503
869.408	20366
869.539	20259
869.669	20488
869.799	20400
869.929	20434
870.06	20518
870.19	20792
870.32	20682
870.45	20868
870.58	20743
870.71	20929
870.84	20914
870.97	20823
871.1	20724
871.23	21047
871.36	20975
871.489	20876
871.619	20948
871.749	21043
871.879	21020
872.008	21043
872.138	20975
872.267	20982
872.397	20804
872.526	20804
872.656	20853
872.785	20853
872.915	20921
873.044	21058
873.173	21032
873.303	21096
873.432	20971
873.561	21180
873.69	21043
873.819	21051
873.948	21043
874.077	20994
874.206	20895
874.335	21058
874.464	21119
874.593	21199
874.722	21169
874.851	21313
874.979	21268
875.108	21325
875.237	21142
875.365	21093
875.494	21302
875.623	21268
875.751	21157
875.88	21291
876.008	21370
876.136	21428
876.265	21679
876.393	21766
876.521	21686
876.65	21770
876.778	21599
876.906	21682
877.034	21576
877.162	21523
877.29	21500
877.418	21595
877.546	21705
877.674	21614
877.802	21682
877.93	21667
878.058	21557
878.185	21359
878.313	21576
878.441	21530
878.568	21454
878.696	21389
878.824	21614
878.951	21724
879.079	21713
879.206	21960
879.333	21766
879.461	21713
879.588	21652
879.715	21686
879.842	21869
879.97	21751
880.097	21481
880.224	21428
880.351	21557
880.478	21450
880.605	21477
880.732	21538
880.859	21686
880.986	21412
881.112	21351
881.239	21367
881.366	21184
881.493	21081
881.619	21005
881.746	21116
881.872	20891
881.999	21013
882.125	20960
882.252	21058
882.378	20982
882.505	21051
882.631	20872
882.757	20868
882.883	20895
883.01	20731
883.136	20785
883.262	20632
883.388	20590
883.514	20724
883.64	20651
883.766	20648
883.892	20438
884.018	20609
884.143	20750
884.269	20785
884.395	20404
884.52	20434
884.646	20389
884.772	20393
884.897	20336
885.023	20423
885.148	20484
885.274	20575
885.399	20370
885.524	20362
885.65	20393
885.775	20541
885.9	20431
886.025	20473
886.15	20389
886.275	20385
886.4	20233
886.525	20389
886.65	20339
886.775	20366
886.9	20541
887.025	20541
887.149	20267
887.274	20221
887.399	20221
887.523	20107
887.648	20138
887.773	20142
887.897	20294
888.021	20210
888.146	20119
888.27	20199
888.395	20233
888.519	20183
888.643	20183
888.767	20286
888.891	20100
889.015	20005
889.139	20130
889.263	20001
889.387	20043
889.511	20183
889.635	20145
889.759	19963
889.883	19906
890.006	19967
890.13	20119
890.254	19913
890.377	19898
890.501	19750
890.624	19712
890.748	19727
890.871	19620
890.995	19609
891.118	19556
891.241	19460
891.364	19578
891.488	19662
891.611	19540
891.734	19544
891.857	19647
891.98	19605
892.103	19613
892.226	19548
892.349	19586
892.471	19419
892.594	19468
892.717	19476
892.839	19468
892.962	19460
893.085	19590
893.207	19491
893.33	19301
893.452	19445
893.575	19575
893.697	19480
893.819	19597
893.941	19715
894.064	19674
894.186	19430
894.308	19480
894.43	19464
894.552	19689
894.674	19514
894.796	19381
894.918	19495
895.04	19411
895.161	19594
895.283	19518
895.405	19460
895.526	19483
895.648	19464
895.769	19460
895.891	19518
896.012	19616
896.134	19537
896.255	19552
896.376	19441
896.498	19510
896.619	19525
896.74	19548
896.861	19518
896.982	19845
897.103	19947
897.224	19655
897.345	19651
897.466	19750
897.587	19693
897.708	19814
897.828	19666
897.949	19681
898.07	19712
898.19	19700
898.311	19826
898.431	19616
898.552	19727
898.672	19811
898.792	19772
898.913	19856
899.033	19575
899.153	19518
899.273	19468
899.393	19502
899.513	19510
899.633	19434
899.753	19510
899.873	19468
899.993	19430
900.113	19377
900.232	19563
900.352	19354
900.472	19365
900.591	19194
900.711	19304
900.83	19240
900.95	19396
901.069	19289
901.189	19114
901.308	18993
901.427	18829
901.546	18783
901.665	19031
901.784	18844
901.904	18810
902.023	18589
902.141	18433
902.26	18361
902.379	18506
902.498	18407
902.617	18346
902.735	18353
902.854	18448
902.973	18232
903.091	18049
903.21	18106
903.328	18053
903.446	18011
903.565	17920
903.683	17847
903.801	17775
903.919	17885
904.038	17794
904.156	17672
904.274	17767
904.392	17535
904.51	17649
904.627	17608
904.745	17634
904.863	17722
904.981	17471
905.098	17391
905.216	17299
905.334	17250
905.451	17322
905.569	17250
905.686	17349
905.803	17277
905.921	17037
906.038	17140
906.155	17155
906.272	17071
906.389	17086
906.506	16869
906.623	16812
906.74	16858
906.857	16641
906.974	16873
907.091	16927
907.208	16976
907.324	16824
907.441	16755
907.557	16569
907.674	16622
907.79	16466
907.907	16516
908.023	16580
908.139	16653
908.256	16462
908.372	16436
908.488	16440
908.604	16382
908.72	16287
908.836	16295
908.952	16268
909.068	16185
909.184	16276
909.3	16272
909.415	16405
909.531	16238
909.647	16021
909.762	16002
909.878	15953
909.993	15949
910.108	15941
910.224	15960
910.339	15937
910.454	15922
910.57	15850
910.685	15808
910.8	16006
910.915	15983
911.03	15892
911.145	15656
911.259	15629
911.374	15553
911.489	15622
911.604	15367
911.718	15275
911.833	15363
911.947	15321
912.062	15214
912.176	15355
912.291	15454
912.405	15443
912.519	15629
912.633	15485
912.748	15431
912.862	15275
912.976	15272
913.09	15055
913.204	15157
913.318	15123
913.431	15287
913.545	15256
913.659	15370
913.772	15066
913.886	15066
914	15047
914.113	15028
914.226	15058
914.34	15051
914.453	14834
914.566	15017
914.68	14925
914.793	14842
914.906	14674
915.019	14659
915.132	14511
915.245	14648
915.358	14602
915.47	14503
915.583	14606
915.696	14556
915.809	14731
915.921	14629
916.034	14476
916.146	14560
916.259	14484
916.371	14636
916.483	14568
916.595	14469
916.708	14408
916.82	14431
916.932	14473
917.044	14336
917.156	14404
917.268	14278
917.38	14298
917.491	14221
917.603	14278
917.715	14343
917.826	14381
917.938	14218
918.049	14092
918.161	14313
918.272	14317
918.384	14385
918.495	14142
918.606	14191
918.717	13997
918.828	14134
918.939	14111
919.05	13944
919.161	14065
919.272	13852
919.383	13890
919.494	14069
919.604	14290
919.715	13947
919.826	13940
919.936	14065
920.047	14164
920.157	14031
920.267	14119
920.378	13921
920.488	14058
920.598	14145
920.708	14332
920.818	14233
920.928	14195
921.038	14305
921.148	14290
921.258	13986
921.368	13917
921.477	13803
921.587	13693
921.697	13712
921.806	13765
921.916	13651
922.025	13506
922.134	13415
922.244	13384
922.353	13354
922.462	13350
922.571	13278
922.68	13091
922.789	13126
922.898	13057
923.007	13038
923.116	13171
923.224	13038
923.333	13019
923.442	12951
923.55	12913
923.659	12875
923.767	13031
923.876	12840
923.984	13000
924.092	12848
924.201	12806
924.309	12833
924.417	12844
924.525	12840
924.633	12768
924.741	13723
924.849	12566
924.956	12768
925.064	12490
925.172	12384
925.279	12475
925.387	12525
925.494	12418
925.602	12700
925.709	12536
925.816	12486
925.924	12456
926.031	12612
926.138	12490
926.245	12498
926.352	12304
926.459	12597
926.566	12536
926.673	12380
926.779	12296
926.886	12304
926.993	12106
927.099	12087
927.206	12079
927.312	12034
927.419	12083
927.525	11874
927.631	12034
927.737	11965
927.843	11942
927.95	11722
928.056	11954
928.162	11942
928.267	12019
928.373	12506
928.479	11973
928.585	11817
928.69	11832
928.796	11923
928.901	11855
929.007	11668
929.112	11760
929.218	11847
929.323	11657
929.428	11630
929.533	11771
929.638	11600
929.743	11592
929.848	11600
929.953	11585
930.058	11478
930.163	11364
930.267	11356
930.372	11554
930.477	11322
930.581	11554
930.685	11368
930.79	11261
930.894	11322
930.998	11197
931.103	11391
931.207	11018
931.311	10995
931.415	10850
931.519	10554
931.623	10637
