Data from test_V78500241_1210.txt Node
Date: Fri Mar 25 15:18:16 CST 2022
User: usil
Spectrometer: V785-0024
Trigger mode: 0
Integration Time (sec): 4.000000E-1
Scans to average: 1
Nonlinearity correction enabled: false
Boxcar width: 0
Storing dark spectrum: false
XAxis mode: Wavelengths
Number of Pixels in Spectrum: 1024
>>>>>Begin Spectral Data<<<<<
801.071	28265
801.214	28040
801.356	27857
801.499	27850
801.641	27705
801.783	27759
801.926	27812
802.068	27762
802.211	27595
802.353	27576
802.496	27439
802.638	27389
802.78	27268
802.923	27359
803.065	27348
803.208	27363
803.35	27507
803.492	27526
803.635	27523
803.777	27393
803.919	27743
804.061	27972
804.204	27671
804.346	27530
804.488	27496
804.63	27557
804.773	27462
804.915	27660
805.057	27812
805.199	27595
805.341	27751
805.483	27793
805.626	27591
805.768	27701
805.91	27717
806.052	27781
806.194	27705
806.336	28051
806.478	27686
806.62	27857
806.762	27732
806.904	28059
807.046	28322
807.188	28124
807.33	28150
807.472	28367
807.614	28291
807.756	28265
807.898	28078
808.04	28093
808.182	28082
808.324	28101
808.465	28101
808.607	28306
808.749	28390
808.891	28500
809.033	28478
809.174	28500
809.316	28333
809.458	28451
809.6	28265
809.741	28554
809.883	28592
810.025	28622
810.166	28782
810.308	28721
810.45	28790
810.591	28584
810.733	28451
810.875	28398
811.016	28375
811.158	28375
811.299	28493
811.441	28478
811.582	28698
811.724	28493
811.865	28367
812.007	28519
812.148	28375
812.29	28424
812.431	28618
812.573	28713
812.714	28831
812.855	29056
812.997	29067
813.138	29178
813.279	29162
813.421	29006
813.562	28938
813.703	28771
813.845	28622
813.986	28432
814.127	28386
814.268	28219
814.41	28128
814.551	28090
814.692	28158
814.833	28044
814.974	28025
815.115	28124
815.256	27956
815.397	27987
815.539	27956
815.68	28105
815.821	27964
815.962	28025
816.103	27922
816.244	27861
816.385	27698
816.526	27739
816.666	27606
816.807	27374
816.948	27542
817.089	27538
817.23	27408
817.371	27462
817.512	27424
817.653	27500
817.793	27412
817.934	27268
818.075	27458
818.216	27492
818.356	27466
818.497	27279
818.638	27207
818.778	27184
818.919	27093
819.06	27207
819.2	27325
819.341	27614
819.481	27545
819.622	27591
819.762	27778
819.903	27686
820.043	27679
820.184	27515
820.324	27504
820.465	27477
820.605	27572
820.746	27477
820.886	27542
821.026	27561
821.167	27542
821.307	27603
821.447	27321
821.588	27313
821.728	27370
821.868	27036
822.008	26883
822.149	26902
822.289	26937
822.429	26663
822.569	26499
822.709	26564
822.849	26324
822.99	26446
823.13	26518
823.27	26339
823.41	26278
823.55	26176
823.69	26294
823.83	26252
823.97	26183
824.11	26100
824.25	26027
824.389	26134
824.529	26339
824.669	26107
824.809	26202
824.949	26195
825.089	26176
825.228	26202
825.368	25917
825.508	25864
825.648	26001
825.787	26031
825.927	25936
826.067	26005
826.206	25986
826.346	25982
826.485	25955
826.625	25986
826.765	26039
826.904	26031
827.044	25784
827.183	25715
827.323	25696
827.462	25742
827.601	25803
827.741	25632
827.88	25734
828.02	25620
828.159	25723
828.298	25689
828.437	25723
828.577	25525
828.716	25784
828.855	25704
828.994	25441
829.134	25457
829.273	25445
829.412	25297
829.551	25343
829.69	25365
829.829	25266
829.968	25472
830.107	25491
830.246	25331
830.385	25308
830.524	25289
830.663	25232
830.802	25053
830.941	25008
831.08	25069
831.219	25103
831.357	25133
831.496	25198
831.635	25084
831.774	24962
831.913	24939
832.051	24844
832.19	24848
832.329	24837
832.467	24764
832.606	24703
832.744	24623
832.883	24703
833.022	24772
833.16	24722
833.299	24745
833.437	24616
833.576	24760
833.714	24684
833.852	24753
833.991	24814
834.129	24779
834.267	24871
834.406	24779
834.544	24791
834.682	24802
834.821	24703
834.959	24954
835.097	24703
835.235	24882
835.373	24726
835.511	24741
835.65	24574
835.788	24551
835.926	24475
836.064	24502
836.202	24380
836.34	24570
836.478	24688
836.615	24559
836.753	24665
836.891	24681
837.029	24620
837.167	24578
837.305	24551
837.443	24475
837.58	24467
837.718	24452
837.856	24445
837.993	24483
838.131	24323
838.269	24384
838.406	24296
838.544	24292
838.681	24072
838.819	24053
838.956	23904
839.094	23946
839.231	23973
839.369	24114
839.506	24197
839.643	24174
839.781	23859
839.918	23866
840.055	24064
840.193	23840
840.33	23790
840.467	23878
840.604	23912
840.742	24167
840.879	23638
841.016	23722
841.153	23805
841.29	23863
841.427	23745
841.564	23973
841.701	23760
841.838	23767
841.975	23653
842.112	23653
842.249	23672
842.385	23543
842.522	23699
842.659	23589
842.796	23630
842.933	23589
843.069	23551
843.206	23543
843.343	23581
843.479	23573
843.616	23459
843.752	23349
843.889	23376
844.025	23493
844.162	23421
844.298	23474
844.435	23296
844.571	23216
844.708	23440
844.844	23501
844.98	23376
845.117	23379
845.253	23326
845.389	23223
845.525	23235
845.661	23193
845.798	23079
845.934	22991
846.07	22995
846.206	23086
846.342	23197
846.478	23003
846.614	22820
846.75	22812
846.886	22767
847.022	22854
847.158	22873
847.294	22881
847.429	22725
847.565	22733
847.701	22995
847.837	22436
847.972	22618
848.108	22653
848.244	22588
848.379	22409
848.515	22421
848.65	22421
848.786	22363
848.921	22356
849.057	22478
849.192	22432
849.328	22504
849.463	22375
849.598	22314
849.734	22276
849.869	22257
850.004	22173
850.14	22169
850.275	22105
850.41	22109
850.545	22246
850.68	22226
850.815	22124
850.95	22177
851.085	22375
851.22	22299
851.355	22280
851.49	22135
851.625	22158
851.76	22105
851.895	22150
852.03	22082
852.165	22143
852.299	22196
852.434	22261
852.569	22196
852.703	22120
852.838	22215
852.973	22299
853.107	22325
853.242	22090
853.376	21994
853.511	21941
853.645	22029
853.78	22101
853.914	22036
854.048	21975
854.183	22040
854.317	22082
854.451	22150
854.585	21945
854.72	21956
854.854	22002
854.988	21869
855.122	22006
855.256	21861
855.39	21888
855.524	22051
855.658	22048
855.792	21930
855.926	22010
856.06	22010
856.194	21987
856.327	21911
856.461	21899
856.595	22059
856.729	22017
856.862	21972
856.996	22116
857.13	21941
857.263	21915
857.397	22044
857.53	21991
857.664	21956
857.797	22082
857.931	22101
858.064	21937
858.197	22116
858.331	22017
858.464	21876
858.597	21911
858.731	21964
858.864	21903
858.997	22036
859.13	21888
859.263	21926
859.396	22021
859.529	22013
859.662	21876
859.795	21949
859.928	22070
860.061	22048
860.194	22303
860.327	21964
860.46	22002
860.592	22158
860.725	22013
860.858	22029
860.99	22147
861.123	21823
861.256	21884
861.388	22067
861.521	22721
861.653	21831
861.786	21724
861.918	21808
862.05	21888
862.183	22013
862.315	21918
862.447	21964
862.58	21884
862.712	21800
862.844	21679
862.976	21743
863.108	21804
863.24	22207
863.372	21511
863.504	21717
863.636	21701
863.768	21701
863.9	21656
864.032	21523
864.164	21675
864.296	21652
864.428	21751
864.559	21701
864.691	21808
864.823	21656
864.954	21538
865.086	21652
865.217	21633
865.349	21568
865.48	21542
865.612	21648
865.743	21682
865.875	21549
866.006	21492
866.137	21572
866.269	21507
866.4	21447
866.531	21523
866.662	21515
866.793	21485
866.924	21439
867.055	21485
867.186	21557
867.317	21420
867.448	21249
867.579	21526
867.71	21473
867.841	21454
867.972	21576
868.103	21492
868.233	21447
868.364	21572
868.495	21523
868.625	21751
868.756	21823
868.886	21671
869.017	21701
869.147	21698
869.278	21816
869.408	21838
869.539	21679
869.669	21701
869.799	21770
869.929	21926
870.06	21671
870.19	22013
870.32	21983
870.45	22173
870.58	22112
870.71	22226
870.84	22318
870.97	22021
871.1	22181
871.23	22154
871.36	22379
871.489	22291
871.619	22299
871.749	22363
871.879	22436
872.008	22424
872.138	22268
872.267	22253
872.397	22169
872.526	22181
872.656	22185
872.785	22192
872.915	22333
873.044	22436
873.173	22333
873.303	22268
873.432	22474
873.561	22409
873.69	22367
873.819	22303
873.948	22341
874.077	22341
874.206	22284
874.335	22287
874.464	22382
874.593	22546
874.722	22523
874.851	22561
874.979	22626
875.108	22634
875.237	22580
875.365	22333
875.494	22500
875.623	22641
875.751	22561
875.88	22485
876.008	22752
876.136	22740
876.265	22938
876.393	22991
876.521	23018
876.65	22961
876.778	22980
876.906	23003
877.034	22858
877.162	22919
877.29	22843
877.418	22904
877.546	22904
877.674	22881
877.802	22797
877.93	22961
878.058	22854
878.185	22782
878.313	22816
878.441	22812
878.568	22748
878.696	22824
878.824	22957
878.951	23033
879.079	23006
879.206	23166
879.333	23159
879.461	22839
879.588	23056
879.715	23071
879.842	23216
879.97	23044
880.097	22805
880.224	22637
880.351	22656
880.478	22675
880.605	22771
880.732	22630
880.859	22968
880.986	22687
881.112	22653
881.239	22653
881.366	22504
881.493	22341
881.619	22276
881.746	22253
881.872	22162
881.999	22226
882.125	22287
882.252	22409
882.378	22246
882.505	22371
882.631	22101
882.757	22010
882.883	22002
883.01	22048
883.136	21838
883.262	21766
883.388	21846
883.514	21915
883.64	22051
883.766	21842
883.892	21831
884.018	21842
884.143	21911
884.269	21964
884.395	21690
884.52	21545
884.646	21568
884.772	21610
884.897	21549
885.023	21614
885.148	21671
885.274	21644
885.399	21728
885.524	21568
885.65	21679
885.775	21682
885.9	21515
886.025	21686
886.15	21728
886.275	21515
886.4	21675
886.525	21652
886.65	21492
886.775	21458
886.9	21648
887.025	21819
887.149	21614
887.274	21355
887.399	21321
887.523	21431
887.648	21329
887.773	21351
887.897	21386
888.021	21447
888.146	21336
888.27	21443
888.395	21591
888.519	21416
888.643	21591
888.767	21458
888.891	21321
889.015	21192
889.139	21230
889.263	21169
889.387	21256
889.511	21374
889.635	21188
889.759	21112
889.883	21188
890.006	21100
890.13	21287
890.254	21157
890.377	21001
890.501	21005
890.624	20804
890.748	20990
890.871	20796
890.995	20777
891.118	20785
891.241	20724
891.364	20686
891.488	20838
891.611	20746
891.734	20651
891.857	20845
891.98	20689
892.103	20773
892.226	20663
892.349	20678
892.471	20511
892.594	20651
892.717	20629
892.839	20731
892.962	20686
893.085	20689
893.207	20503
893.33	20476
893.452	20545
893.575	20651
893.697	20552
893.819	20765
893.941	20876
894.064	20754
894.186	20701
894.308	20590
894.43	20739
894.552	20708
894.674	20667
894.796	20522
894.918	20686
895.04	20507
895.161	20495
895.283	20644
895.405	20537
895.526	20629
895.648	20530
895.769	20655
895.891	20663
896.012	20594
896.134	20617
896.255	20629
896.376	20552
896.498	20731
896.619	20564
896.74	20507
896.861	20689
896.982	20861
897.103	20963
897.224	20826
897.345	20845
897.466	20705
897.587	20743
897.708	20986
897.828	20838
897.949	20754
898.07	20636
898.19	20655
898.311	20845
898.431	20785
898.552	20807
898.672	20963
898.792	20853
898.913	20807
899.033	20621
899.153	20533
899.273	20655
899.393	20537
899.513	20541
899.633	20594
899.753	20526
899.873	20446
899.993	20476
900.113	20412
900.232	20427
900.352	20343
900.472	20111
900.591	20252
900.711	20355
900.83	20259
900.95	20393
901.069	20374
901.189	20233
901.308	20050
901.427	19906
901.546	19997
901.665	19845
901.784	19967
901.904	19700
902.023	19681
902.141	19392
902.26	19419
902.379	19590
902.498	19449
902.617	19213
902.735	19354
902.854	19400
902.973	19331
903.091	19099
903.21	19110
903.328	19046
903.446	18951
903.565	18882
903.683	18951
903.801	18810
903.919	18825
904.038	18726
904.156	18566
904.274	18654
904.392	18528
904.51	18722
904.627	18601
904.745	18673
904.863	18601
904.981	18490
905.098	18266
905.216	18448
905.334	18372
905.451	18338
905.569	18292
905.686	18292
905.803	18330
905.921	18045
906.038	18125
906.155	18083
906.272	17984
906.389	18072
906.506	17920
906.623	17809
906.74	17855
906.857	17771
906.974	17737
907.091	17832
907.208	17916
907.324	17843
907.441	17737
907.557	17562
907.674	17505
907.79	17474
907.907	17474
908.023	17501
908.139	17604
908.256	17459
908.372	17448
908.488	17429
908.604	17368
908.72	17216
908.836	17292
908.952	17181
909.068	17330
909.184	17322
909.3	17159
909.415	17159
909.531	17204
909.647	16999
909.762	16957
909.878	16934
909.993	16995
910.108	16873
910.224	16968
910.339	17067
910.454	16771
910.57	16797
910.685	16668
910.8	17025
910.915	16995
911.03	16866
911.145	16618
911.259	16694
911.374	16565
911.489	16478
911.604	16394
911.718	16344
911.833	16265
911.947	16051
912.062	16025
912.176	16204
912.291	16234
912.405	16261
912.519	16470
912.633	16428
912.748	16280
912.862	16246
912.976	16086
913.09	16040
913.204	15983
913.318	16124
913.431	16177
913.545	16059
913.659	16139
913.772	16097
913.886	15819
914	15827
914.113	15949
914.226	16105
914.34	15937
914.453	15793
914.566	15895
914.68	15751
914.793	15698
914.906	15587
915.019	15606
915.132	15504
915.245	15515
915.358	15492
915.47	15530
915.583	15492
915.696	15500
915.809	15481
915.921	15610
916.034	15450
916.146	15416
916.259	15363
916.371	15485
916.483	15443
916.595	15268
916.708	15329
916.82	15336
916.932	15268
917.044	15302
917.156	15275
917.268	15119
917.38	15157
917.491	15116
917.603	15085
917.715	15241
917.826	15165
917.938	14906
918.049	14929
918.161	15058
918.272	15207
918.384	15199
918.495	14994
918.606	14861
918.717	14906
918.828	14925
918.939	14986
919.05	14762
919.161	14842
919.272	14686
919.383	14682
919.494	14906
919.604	15180
919.715	14891
919.826	14845
919.936	14845
920.047	14929
920.157	14891
920.267	15020
920.378	14788
920.488	14845
920.598	14929
920.708	15104
920.818	14956
920.928	14868
921.038	15077
921.148	15081
921.258	14750
921.368	14629
921.477	14549
921.587	14644
921.697	14499
921.806	14571
921.916	14389
922.025	14282
922.134	14172
922.244	14123
922.353	14218
922.462	14119
922.571	13993
922.68	13845
922.789	13875
922.898	13928
923.007	13757
923.116	13940
923.224	13818
923.333	13845
923.442	13723
923.55	13666
923.659	13799
923.767	13677
923.876	13651
923.984	13674
924.092	13529
924.201	13548
924.309	13639
924.417	13594
924.525	13502
924.633	13521
924.741	14259
924.849	13209
924.956	13365
925.064	13255
925.172	13278
925.279	13316
925.387	13285
925.494	13255
925.602	13304
925.709	13316
925.816	13133
925.924	13110
926.031	13228
926.138	13168
926.245	13247
926.352	13171
926.459	13244
926.566	13175
926.673	13156
926.779	13095
926.886	13053
926.993	12897
927.099	12791
927.206	12802
927.312	12616
927.419	12920
927.525	12757
927.631	12760
927.737	12711
927.843	12730
927.95	12597
928.056	12601
928.162	12623
928.267	12711
928.373	13080
928.479	12582
928.585	12418
928.69	12521
928.796	12604
928.901	12464
929.007	12292
929.112	12460
929.218	12490
929.323	12399
929.428	12285
929.533	12395
929.638	12235
929.743	12357
929.848	12357
929.953	12296
930.058	12136
930.163	11946
930.267	11954
930.372	12175
930.477	12038
930.581	12155
930.685	12102
930.79	11882
930.894	11961
930.998	11916
931.103	12003
931.207	11657
931.311	11547
931.415	11482
931.519	11231
931.623	11299
