Data from test_V78500241_8.txt Node
Date: Fri Mar 25 15:09:55 CST 2022
User: usil
Spectrometer: V785-0024
Trigger mode: 0
Integration Time (sec): 4.000000E-1
Scans to average: 1
Nonlinearity correction enabled: false
Boxcar width: 0
Storing dark spectrum: false
XAxis mode: Wavelengths
Number of Pixels in Spectrum: 1024
>>>>>Begin Spectral Data<<<<<
801.071	27648
801.214	27545
801.356	27275
801.499	27173
801.641	27085
801.783	27055
801.926	27104
802.068	27070
802.211	26872
802.353	26842
802.496	26769
802.638	26712
802.78	26590
802.923	26651
803.065	26484
803.208	26427
803.35	26564
803.492	26651
803.635	26769
803.777	26663
803.919	26765
804.061	27070
804.204	26743
804.346	26579
804.488	26564
804.63	26609
804.773	26446
804.915	26598
805.057	26773
805.199	26511
805.341	26731
805.483	26648
805.626	26697
805.768	26503
805.91	26716
806.052	26659
806.194	26518
806.336	26750
806.478	26735
806.62	26632
806.762	26724
806.904	26853
807.046	27233
807.188	26948
807.33	26956
807.472	27013
807.614	26956
807.756	26979
807.898	26746
808.04	26705
808.182	26693
808.324	26701
808.465	26765
808.607	26823
808.749	26899
808.891	27085
809.033	27207
809.174	27089
809.316	27062
809.458	27104
809.6	26998
809.741	27039
809.883	27028
810.025	27180
810.166	27264
810.308	27279
810.45	27249
810.591	27188
810.733	26986
810.875	26975
811.016	26933
811.158	26861
811.299	26952
811.441	26940
811.582	27028
811.724	26979
811.865	27024
812.007	26876
812.148	26883
812.29	26872
812.431	27036
812.573	27260
812.714	27378
812.855	27408
812.997	27606
813.138	27705
813.279	27743
813.421	27496
813.562	27454
813.703	27131
813.845	27252
813.986	26800
814.127	26629
814.268	26575
814.41	26648
814.551	26560
814.692	26727
814.833	26408
814.974	26537
815.115	26492
815.256	26259
815.397	26355
815.539	26370
815.68	26259
815.821	26282
815.962	26229
816.103	26088
816.244	26069
816.385	26005
816.526	26046
816.666	25795
816.807	25559
816.948	25670
817.089	25712
817.23	25620
817.371	25677
817.512	25597
817.653	25575
817.793	25658
817.934	25510
818.075	25594
818.216	25559
818.356	25616
818.497	25422
818.638	25228
818.778	25297
818.919	25411
819.06	25301
819.2	25324
819.341	25411
819.481	25434
819.622	25609
819.762	25772
819.903	25780
820.043	25605
820.184	25613
820.324	25544
820.465	25613
820.605	25502
820.746	25518
820.886	25411
821.026	25578
821.167	25373
821.307	25601
821.447	25487
821.588	25438
821.728	25282
821.868	25034
822.008	24951
822.149	24916
822.289	24924
822.429	24597
822.569	24566
822.709	24673
822.849	24369
822.99	24456
823.13	24281
823.27	24213
823.41	24125
823.55	24003
823.69	24270
823.83	24247
823.97	24110
824.11	23817
824.25	23901
824.389	23927
824.529	24011
824.669	23863
824.809	24053
824.949	24007
825.089	24026
825.228	23996
825.368	23748
825.508	23767
825.648	23813
825.787	23703
825.927	23775
826.067	23585
826.206	23615
826.346	23672
826.485	23687
826.625	23699
826.765	23813
826.904	23783
827.044	23482
827.183	23414
827.323	23280
827.462	23452
827.601	23315
827.741	23277
827.88	23303
828.02	23159
828.159	23296
828.298	23296
828.437	23414
828.577	23204
828.716	23463
828.855	23273
828.994	23151
829.134	23086
829.273	23220
829.412	23037
829.551	22991
829.69	23064
829.829	22972
829.968	23121
830.107	23048
830.246	23067
830.385	22824
830.524	22908
830.663	22793
830.802	22706
830.941	22634
831.08	22565
831.219	22607
831.357	22660
831.496	22778
831.635	22432
831.774	22519
831.913	22440
832.051	22295
832.19	22466
832.329	22382
832.467	22162
832.606	22101
832.744	22173
832.883	22192
833.022	22147
833.16	22154
833.299	22207
833.437	22291
833.576	22299
833.714	22204
833.852	22242
833.991	22223
834.129	22116
834.267	22257
834.406	22162
834.544	22268
834.682	22128
834.821	22135
834.959	22341
835.097	22166
835.235	22204
835.373	22070
835.511	22154
835.65	21994
835.788	21987
835.926	21884
836.064	21838
836.202	22036
836.34	22139
836.478	22238
836.615	21983
836.753	22036
836.891	22036
837.029	22025
837.167	22013
837.305	21926
837.443	22013
837.58	21941
837.718	21960
837.856	21949
837.993	21922
838.131	21926
838.269	21766
838.406	21747
838.544	21648
838.681	21583
838.819	21492
838.956	21165
839.094	21245
839.231	21332
839.369	21435
839.506	21739
839.643	21538
839.781	21348
839.918	21275
840.055	21298
840.193	21226
840.33	21211
840.467	21211
840.604	21367
840.742	21473
840.879	21089
841.016	21195
841.153	21104
841.29	21249
841.427	21207
841.564	21058
841.701	21192
841.838	21157
841.975	20944
842.112	20918
842.249	20944
842.385	20853
842.522	21024
842.659	20979
842.796	20788
842.933	21001
843.069	20918
843.206	20788
843.343	20796
843.479	20861
843.616	20963
843.752	20807
843.889	20724
844.025	20819
844.162	20575
844.298	20773
844.435	20571
844.571	20682
844.708	20632
844.844	20765
844.98	20788
845.117	20762
845.253	20473
845.389	20434
845.525	20575
845.661	20507
845.798	20488
845.934	20400
846.07	20355
846.206	20396
846.342	20499
846.478	20309
846.614	20199
846.75	20050
846.886	20046
847.022	20221
847.158	20126
847.294	20027
847.429	20111
847.565	20115
847.701	20248
847.837	19826
847.972	19674
848.108	19967
848.244	19898
848.379	19666
848.515	19499
848.65	19643
848.786	19662
848.921	19605
849.057	19731
849.192	19738
849.328	19613
849.463	19628
849.598	19628
849.734	19567
849.869	19548
850.004	19419
850.14	19358
850.275	19282
850.41	19335
850.545	19244
850.68	19343
850.815	19430
850.95	19388
851.085	19620
851.22	19407
851.355	19335
851.49	19324
851.625	19327
851.76	19331
851.895	19118
852.03	19107
852.165	19194
852.299	19316
852.434	19293
852.569	19369
852.703	19316
852.838	19373
852.973	19377
853.107	19422
853.242	19285
853.376	19217
853.511	19012
853.645	19179
853.78	19320
853.914	19164
854.048	19095
854.183	19156
854.317	19175
854.451	19324
854.585	19194
854.72	19156
854.854	19209
854.988	19095
855.122	19145
855.256	19008
855.39	19190
855.524	19278
855.658	19232
855.792	19179
855.926	19168
856.06	19270
856.194	19236
856.327	19088
856.461	19122
856.595	19080
856.729	19118
856.862	19346
856.996	19152
857.13	19225
857.263	19141
857.397	19225
857.53	19046
857.664	19160
857.797	19255
857.931	19240
858.064	19183
858.197	19232
858.331	19225
858.464	19069
858.597	19027
858.731	18977
858.864	19141
858.997	19084
859.13	19012
859.263	19053
859.396	19240
859.529	19034
859.662	19065
859.795	18996
859.928	19095
860.061	19183
860.194	19274
860.327	19187
860.46	19053
860.592	19168
860.725	19179
860.858	19213
860.99	19129
861.123	19069
861.256	19019
861.388	19050
861.521	19742
861.653	18916
861.786	18947
861.918	19046
862.05	19084
862.183	19179
862.315	19198
862.447	19240
862.58	19057
862.712	18951
862.844	18871
862.976	18894
863.108	18928
863.24	19244
863.372	18692
863.504	18882
863.636	18700
863.768	18829
863.9	18859
864.032	18696
864.164	18688
864.296	18749
864.428	18768
864.559	18886
864.691	18875
864.823	18814
864.954	18764
865.086	18795
865.217	18783
865.349	18715
865.48	18726
865.612	18692
865.743	18867
865.875	18715
866.006	18715
866.137	18856
866.269	18654
866.4	18703
866.531	18620
866.662	18673
866.793	18681
866.924	18604
867.055	18791
867.186	18700
867.317	18692
867.448	18593
867.579	18620
867.71	18513
867.841	18479
867.972	18696
868.103	18669
868.233	18688
868.364	18734
868.495	18814
868.625	18779
868.756	18954
868.886	18817
869.017	18897
869.147	18993
869.278	18943
869.408	18970
869.539	18859
869.669	19015
869.799	18905
869.929	18951
870.06	19008
870.19	19091
870.32	19282
870.45	19202
870.58	19377
870.71	19422
870.84	19373
870.97	19343
871.1	19244
871.23	19396
871.36	19476
871.489	19441
871.619	19419
871.749	19544
871.879	19620
872.008	19613
872.138	19434
872.267	19457
872.397	19388
872.526	19346
872.656	19198
872.785	19377
872.915	19396
873.044	19480
873.173	19483
873.303	19480
873.432	19613
873.561	19525
873.69	19601
873.819	19476
873.948	19632
874.077	19521
874.206	19590
874.335	19430
874.464	19563
874.593	19784
874.722	19727
874.851	19795
874.979	19830
875.108	19852
875.237	19822
875.365	19704
875.494	19788
875.623	19757
875.751	19727
875.88	19791
876.008	19989
876.136	19970
876.265	20218
876.393	20298
876.521	20328
876.65	20153
876.778	20168
876.906	20176
877.034	20126
877.162	20176
877.29	20119
877.418	20180
877.546	20107
877.674	20088
877.802	20073
877.93	20073
878.058	20187
878.185	20016
878.313	20168
878.441	20183
878.568	20039
878.696	20187
878.824	20210
878.951	20145
879.079	20324
879.206	20431
879.333	20393
879.461	20233
879.588	20149
879.715	20278
879.842	20469
879.97	20164
880.097	19978
880.224	19978
880.351	20073
880.478	20081
880.605	19982
880.732	20008
880.859	20164
880.986	20027
881.112	19986
881.239	19909
881.366	19734
881.493	19712
881.619	19613
881.746	19639
881.872	19544
881.999	19609
882.125	19601
882.252	19632
882.378	19738
882.505	19689
882.631	19430
882.757	19415
882.883	19514
883.01	19415
883.136	19358
883.262	19179
883.388	19156
883.514	19263
883.64	19312
883.766	19354
883.892	19103
884.018	19228
884.143	19358
884.269	19487
884.395	19221
884.52	19042
884.646	19061
884.772	19129
884.897	18909
885.023	19015
885.148	19027
885.274	19107
885.399	19099
885.524	18932
885.65	19000
885.775	19019
885.9	18932
886.025	19057
886.15	19031
886.275	18977
886.4	18947
886.525	18913
886.65	18920
886.775	18924
886.9	19042
887.025	19274
887.149	18985
887.274	18817
887.399	18791
887.523	18673
887.648	18730
887.773	18601
887.897	18684
888.021	18852
888.146	18726
888.27	18787
888.395	18764
888.519	18833
888.643	18821
888.767	18856
888.891	18585
889.015	18544
889.139	18601
889.263	18536
889.387	18730
889.511	18825
889.635	18681
889.759	18532
889.883	18517
890.006	18517
890.13	18639
890.254	18490
890.377	18513
890.501	18273
890.624	18289
890.748	18361
890.871	18262
890.995	18091
891.118	18041
891.241	18148
891.364	18178
891.488	18319
891.611	18213
891.734	18095
891.857	18243
891.98	18266
892.103	18270
892.226	18235
892.349	18148
892.471	17942
892.594	18011
892.717	18251
892.839	17988
892.962	18243
893.085	18148
893.207	18159
893.33	18003
893.452	18026
893.575	18102
893.697	18079
893.819	18315
893.941	18353
894.064	18232
894.186	18136
894.308	18117
894.43	18167
894.552	18292
894.674	18232
894.796	18083
894.918	18034
895.04	18117
895.161	18254
895.283	18159
895.405	18178
895.526	18129
895.648	18136
895.769	18129
895.891	18197
896.012	18342
896.134	18277
896.255	18133
896.376	18159
896.498	18285
896.619	18235
896.74	18319
896.861	18342
896.982	18585
897.103	18715
897.224	18597
897.345	18483
897.466	18342
897.587	18414
897.708	18464
897.828	18467
897.949	18384
898.07	18346
898.19	18429
898.311	18578
898.431	18319
898.552	18502
898.672	18555
898.792	18414
898.913	18346
899.033	18330
899.153	18167
899.273	18076
899.393	18182
899.513	18121
899.633	18095
899.753	18247
899.873	18064
899.993	18163
900.113	18114
900.232	18053
900.352	18079
900.472	18106
900.591	17786
900.711	17980
900.83	17916
900.95	18045
901.069	18148
901.189	17920
901.308	17684
901.427	17486
901.546	17703
901.665	17630
901.784	17661
901.904	17566
902.023	17406
902.141	17162
902.26	17128
902.379	17250
902.498	17083
902.617	17140
902.735	17254
902.854	17075
902.973	17037
903.091	16805
903.21	16847
903.328	16725
903.446	16664
903.565	16618
903.683	16618
903.801	16580
903.919	16588
904.038	16462
904.156	16432
904.274	16523
904.392	16360
904.51	16409
904.627	16371
904.745	16394
904.863	16493
904.981	16253
905.098	16067
905.216	16044
905.334	16059
905.451	16078
905.569	16048
905.686	16112
905.803	16067
905.921	15842
906.038	15983
906.155	15892
906.272	15873
906.389	15812
906.506	15610
906.623	15603
906.74	15705
906.857	15481
906.974	15610
907.091	15755
907.208	15755
907.324	15633
907.441	15504
907.557	15412
907.674	15359
907.79	15245
907.907	15359
908.023	15310
908.139	15355
908.256	15268
908.372	15222
908.488	15135
908.604	15062
908.72	14994
908.836	14971
908.952	15032
909.068	15062
909.184	15009
909.3	15013
909.415	15024
909.531	14918
909.647	14739
909.762	14720
909.878	14659
909.993	14720
910.108	14727
910.224	14667
910.339	14720
910.454	14602
910.57	14629
910.685	14473
910.8	14746
910.915	14720
911.03	14488
911.145	14434
911.259	14404
911.374	14324
911.489	14237
911.604	14172
911.718	14088
911.833	14035
911.947	13947
912.062	14008
912.176	14039
912.291	14088
912.405	13982
912.519	14271
912.633	14309
912.748	14016
912.862	14073
912.976	13917
913.09	13845
913.204	13849
913.318	13947
913.431	13963
913.545	13974
913.659	14008
913.772	13917
913.886	13712
914	13788
914.113	13871
914.226	13944
914.34	13799
914.453	13601
914.566	13795
914.68	13693
914.793	13609
914.906	13480
915.019	13480
915.132	13316
915.245	13441
915.358	13415
915.47	13377
915.583	13377
915.696	13384
915.809	13597
915.921	13537
916.034	13362
916.146	13350
916.259	13312
916.371	13369
916.483	13388
916.595	13304
916.708	13194
916.82	13259
916.932	13232
917.044	13232
917.156	13183
917.268	13061
917.38	13141
917.491	13065
917.603	13206
917.715	13171
917.826	13183
917.938	13072
918.049	12928
918.161	13012
918.272	13190
918.384	13190
918.495	12993
918.606	12966
918.717	12817
918.828	12856
918.939	12913
919.05	12852
919.161	12894
919.272	12730
919.383	12764
919.494	12996
919.604	13008
919.715	12856
919.826	12749
919.936	12829
920.047	12939
920.157	12859
920.267	13133
920.378	12875
920.488	12844
920.598	12966
920.708	13244
920.818	13023
920.928	13008
921.038	13225
921.148	13149
921.258	12863
921.368	12783
921.477	12677
921.587	12589
921.697	12574
921.806	12631
921.916	12547
922.025	12410
922.134	12388
922.244	12330
922.353	12365
922.462	12144
922.571	12155
922.68	11950
922.789	11874
922.898	11885
923.007	11912
923.116	11897
923.224	11866
923.333	11794
923.442	11855
923.55	11859
923.659	11809
923.767	11794
923.876	11752
923.984	11775
924.092	11680
924.201	11737
924.309	11699
924.417	11805
924.525	11661
924.633	11684
924.741	12597
924.849	11509
924.956	11551
925.064	11467
925.172	11425
925.279	11429
925.387	11459
925.494	11398
925.602	11611
925.709	11532
925.816	11376
925.924	11383
926.031	11570
926.138	11417
926.245	11547
926.352	11387
926.459	11417
926.566	11535
926.673	11334
926.779	11239
926.886	11204
926.993	11155
927.099	11178
927.206	11014
927.312	11003
927.419	11132
927.525	10976
927.631	11056
927.737	10984
927.843	10889
927.95	10847
928.056	10961
928.162	10938
928.267	10946
928.373	11592
928.479	11014
928.585	10744
928.69	10839
928.796	10854
928.901	10786
929.007	10656
929.112	10793
929.218	10748
929.323	10672
929.428	10656
929.533	10786
929.638	10554
929.743	10653
929.848	10668
929.953	10607
930.058	10542
930.163	10409
930.267	10413
930.372	10481
930.477	10268
930.581	10615
930.685	10390
930.79	10211
930.894	10287
930.998	10211
931.103	10409
931.207	10036
931.311	9903
931.415	9812
931.519	9667
931.623	9701
