Data from test_V78500241_1227.txt Node
Date: Fri Mar 25 15:18:24 CST 2022
User: usil
Spectrometer: V785-0024
Trigger mode: 0
Integration Time (sec): 4.000000E-1
Scans to average: 1
Nonlinearity correction enabled: false
Boxcar width: 0
Storing dark spectrum: false
XAxis mode: Wavelengths
Number of Pixels in Spectrum: 1024
>>>>>Begin Spectral Data<<<<<
801.071	28207
801.214	28063
801.356	27808
801.499	27728
801.641	27485
801.783	27660
801.926	27690
802.068	27637
802.211	27572
802.353	27416
802.496	27424
802.638	27237
802.78	27344
802.923	27214
803.065	27089
803.208	27165
803.35	27123
803.492	27393
803.635	27367
803.777	27378
803.919	27534
804.061	27846
804.204	27466
804.346	27454
804.488	27367
804.63	27435
804.773	27370
804.915	27545
805.057	27500
805.199	27355
805.341	27587
805.483	27675
805.626	27698
805.768	27561
805.91	27679
806.052	27534
806.194	27534
806.336	27755
806.478	27663
806.62	27542
806.762	27709
806.904	27945
807.046	28082
807.188	28070
807.33	28029
807.472	28105
807.614	28048
807.756	27888
807.898	27880
808.04	27861
808.182	27911
808.324	27934
808.465	27972
808.607	28192
808.749	28185
808.891	28318
809.033	28470
809.174	28291
809.316	28211
809.458	28280
809.6	28177
809.741	28352
809.883	28424
810.025	28603
810.166	28527
810.308	28607
810.45	28436
810.591	28428
810.733	28333
810.875	28226
811.016	28200
811.158	28162
811.299	28261
811.441	28512
811.582	28493
811.724	28295
811.865	28322
812.007	28261
812.148	28268
812.29	28424
812.431	28409
812.573	28656
812.714	28687
812.855	28869
812.997	28843
813.138	29003
813.279	28919
813.421	28881
813.562	28904
813.703	28512
813.845	28421
813.986	28257
814.127	28036
814.268	27956
814.41	27972
814.551	27899
814.692	28029
814.833	28010
814.974	27968
815.115	28021
815.256	27831
815.397	27941
815.539	27884
815.68	27937
815.821	27686
815.962	27717
816.103	27720
816.244	27778
816.385	27534
816.526	27545
816.666	27378
816.807	27306
816.948	27264
817.089	27374
817.23	27230
817.371	27340
817.512	27252
817.653	27233
817.793	27176
817.934	27298
818.075	27252
818.216	27386
818.356	27382
818.497	27249
818.638	27055
818.778	27028
818.919	27047
819.06	27226
819.2	27195
819.341	27268
819.481	27367
819.622	27401
819.762	27599
819.903	27572
820.043	27447
820.184	27351
820.324	27386
820.465	27473
820.605	27332
820.746	27450
820.886	27272
821.026	27291
821.167	27332
821.307	27542
821.447	27176
821.588	27241
821.728	27089
821.868	26944
822.008	26842
822.149	26845
822.289	26773
822.429	26469
822.569	26556
822.709	26427
822.849	26286
822.99	26233
823.13	26248
823.27	26290
823.41	26157
823.55	25997
823.69	26153
823.83	26119
823.97	26020
824.11	25856
824.25	25932
824.389	25852
824.529	26183
824.669	25898
824.809	26164
824.949	25970
825.089	26069
825.228	25993
825.368	25795
825.508	25746
825.648	25837
825.787	25906
825.927	25894
826.067	25647
826.206	25700
826.346	25906
826.485	25856
826.625	25811
826.765	25879
826.904	25898
827.044	25609
827.183	25696
827.323	25426
827.462	25594
827.601	25548
827.741	25464
827.88	25483
828.02	25422
828.159	25597
828.298	25731
828.437	25548
828.577	25533
828.716	25609
828.855	25468
828.994	25225
829.134	25259
829.273	25266
829.412	25137
829.551	25175
829.69	25289
829.829	25365
829.968	25278
830.107	25232
830.246	25316
830.385	25069
830.524	25095
830.663	25107
830.802	24886
830.941	24897
831.08	24779
831.219	24958
831.357	24916
831.496	25084
831.635	24905
831.774	24806
831.913	24764
832.051	24722
832.19	24654
832.329	24623
832.467	24574
832.606	24509
832.744	24536
832.883	24471
833.022	24479
833.16	24441
833.299	24597
833.437	24631
833.576	24525
833.714	24646
833.852	24692
833.991	24566
834.129	24566
834.267	24654
834.406	24551
834.544	24509
834.682	24715
834.821	24578
834.959	24878
835.097	24429
835.235	24555
835.373	24589
835.511	24509
835.65	24422
835.788	24483
835.926	24334
836.064	24247
836.202	24254
836.34	24376
836.478	24570
836.615	24361
836.753	24494
836.891	24509
837.029	24471
837.167	24384
837.305	24429
837.443	24262
837.58	24254
837.718	24247
837.856	24361
837.993	24190
838.131	24220
838.269	24159
838.406	24220
838.544	24018
838.681	23950
838.819	23863
838.956	23798
839.094	23779
839.231	23764
839.369	23901
839.506	24049
839.643	24102
839.781	23840
839.918	23687
840.055	23779
840.193	23653
840.33	23589
840.467	23661
840.604	23775
840.742	23889
840.879	23554
841.016	23668
841.153	23505
841.29	23726
841.427	23828
841.564	23745
841.701	23573
841.838	23646
841.975	23562
842.112	23535
842.249	23444
842.385	23364
842.522	23478
842.659	23516
842.796	23414
842.933	23444
843.069	23368
843.206	23360
843.343	23410
843.479	23436
843.616	23501
843.752	23136
843.889	23220
844.025	23379
844.162	23136
844.298	23220
844.435	23204
844.571	23136
844.708	23033
844.844	23254
844.98	23254
845.117	23356
845.253	23083
845.389	23185
845.525	22976
845.661	23151
845.798	22869
845.934	23003
846.07	22995
846.206	22839
846.342	22984
846.478	22790
846.614	22736
846.75	22645
846.886	22706
847.022	22710
847.158	22588
847.294	22565
847.429	22710
847.565	22683
847.701	22820
847.837	22481
847.972	22322
848.108	22538
848.244	22367
848.379	22333
848.515	22303
848.65	22261
848.786	22150
848.921	22223
849.057	22367
849.192	22344
849.328	22234
849.463	22215
849.598	22082
849.734	22055
849.869	22048
850.004	22131
850.14	21972
850.275	22093
850.41	21918
850.545	21960
850.68	22036
850.815	21991
850.95	22044
851.085	22238
851.22	22105
851.355	22006
851.49	22013
851.625	21964
851.76	22017
851.895	22010
852.03	21888
852.165	22112
852.299	21983
852.434	22101
852.569	22055
852.703	22002
852.838	21937
852.973	22135
853.107	22109
853.242	21983
853.376	21880
853.511	21755
853.645	21743
853.78	21941
853.914	21789
854.048	21743
854.183	21907
854.317	21759
854.451	21994
854.585	21736
854.72	21819
854.854	21975
854.988	21736
855.122	21789
855.256	21743
855.39	21774
855.524	21838
855.658	21823
855.792	21778
855.926	21865
856.06	21797
856.194	21930
856.327	21865
856.461	21774
856.595	21766
856.729	21876
856.862	21751
856.996	21850
857.13	21907
857.263	21949
857.397	21945
857.53	21797
857.664	21903
857.797	21842
857.931	21873
858.064	21911
858.197	21956
858.331	21759
858.464	21732
858.597	21728
858.731	21785
858.864	21717
858.997	21728
859.13	21812
859.263	21876
859.396	21880
859.529	21774
859.662	21816
859.795	21648
859.928	21781
860.061	21895
860.194	22010
860.327	21930
860.46	21846
860.592	21876
860.725	21975
860.858	21888
860.99	21804
861.123	21785
861.256	21793
861.388	21884
861.521	22413
861.653	21701
861.786	21515
861.918	21686
862.05	21603
862.183	21766
862.315	21762
862.447	21793
862.58	21736
862.712	21500
862.844	21405
862.976	21553
863.108	21519
863.24	21983
863.372	21492
863.504	21424
863.636	21564
863.768	21473
863.9	21507
864.032	21405
864.164	21466
864.296	21542
864.428	21553
864.559	21648
864.691	21568
864.823	21466
864.954	21469
865.086	21553
865.217	21393
865.349	21294
865.48	21351
865.612	21340
865.743	21496
865.875	21454
866.006	21431
866.137	21340
866.269	21313
866.4	21412
866.531	21397
866.662	21321
866.793	21397
866.924	21351
867.055	21291
867.186	21298
867.317	21351
867.448	21226
867.579	21230
867.71	21249
867.841	21142
867.972	21359
868.103	21332
868.233	21317
868.364	21363
868.495	21553
868.625	21576
868.756	21606
868.886	21530
869.017	21549
869.147	21663
869.278	21614
869.408	21618
869.539	21587
869.669	21690
869.799	21583
869.929	21660
870.06	21701
870.19	21823
870.32	21930
870.45	21842
870.58	21918
870.71	22074
870.84	21979
870.97	21922
871.1	21991
871.23	22093
871.36	22166
871.489	21987
871.619	22063
871.749	22120
871.879	22215
872.008	22295
872.138	22082
872.267	22109
872.397	22048
872.526	21968
872.656	21964
872.785	22017
872.915	22181
873.044	22215
873.173	22215
873.303	22253
873.432	22226
873.561	22219
873.69	22344
873.819	22169
873.948	22246
874.077	22109
874.206	22215
874.335	22147
874.464	22375
874.593	22394
874.722	22352
874.851	22386
874.979	22386
875.108	22363
875.237	22402
875.365	22371
875.494	22398
875.623	22470
875.751	22424
875.88	22455
876.008	22596
876.136	22535
876.265	22797
876.393	22866
876.521	22911
876.65	22923
876.778	22828
876.906	22649
877.034	22729
877.162	22725
877.29	22679
877.418	22790
877.546	22805
877.674	22729
877.802	22805
877.93	22797
878.058	22812
878.185	22668
878.313	22660
878.441	22786
878.568	22557
878.696	22656
878.824	22831
878.951	22835
879.079	22866
879.206	23151
879.333	22968
879.461	22797
879.588	22828
879.715	22987
879.842	23010
879.97	22774
880.097	22508
880.224	22504
880.351	22668
880.478	22565
880.605	22478
880.732	22706
880.859	22782
880.986	22512
881.112	22546
881.239	22360
881.366	22325
881.493	22223
881.619	22150
881.746	22116
881.872	22173
881.999	22192
882.125	22101
882.252	22192
882.378	22086
882.505	22196
882.631	22063
882.757	21850
882.883	21865
883.01	21759
883.136	21736
883.262	21660
883.388	21694
883.514	21804
883.64	21850
883.766	21705
883.892	21663
884.018	21739
884.143	21732
884.269	21762
884.395	21652
884.52	21393
884.646	21530
884.772	21313
884.897	21439
885.023	21450
885.148	21469
885.274	21625
885.399	21660
885.524	21477
885.65	21515
885.775	21538
885.9	21393
886.025	21504
886.15	21488
886.275	21374
886.4	21443
886.525	21549
886.65	21317
886.775	21405
886.9	21583
887.025	21625
887.149	21458
887.274	21211
887.399	21268
887.523	21192
887.648	21142
887.773	21173
887.897	21233
888.021	21268
888.146	21199
888.27	21275
888.395	21359
888.519	21363
888.643	21245
888.767	21252
888.891	21108
889.015	21089
889.139	21112
889.263	20963
889.387	21131
889.511	21272
889.635	21161
889.759	21135
889.883	20921
890.006	20990
890.13	21150
890.254	20941
890.377	21047
890.501	20648
890.624	20670
890.748	20815
890.871	20750
890.995	20473
891.118	20526
891.241	20670
891.364	20636
891.488	20758
891.611	20636
891.734	20533
891.857	20758
891.98	20609
892.103	20636
892.226	20568
892.349	20590
892.471	20465
892.594	20499
892.717	20488
892.839	20457
892.962	20533
893.085	20590
893.207	20556
893.33	20362
893.452	20377
893.575	20480
893.697	20358
893.819	20686
893.941	20632
894.064	20518
894.186	20461
894.308	20347
894.43	20473
894.552	20602
894.674	20552
894.796	20355
894.918	20461
895.04	20488
895.161	20503
895.283	20583
895.405	20389
895.526	20377
895.648	20377
895.769	20495
895.891	20514
896.012	20556
896.134	20374
896.255	20560
896.376	20446
896.498	20480
896.619	20476
896.74	20541
896.861	20568
896.982	20800
897.103	20906
897.224	20762
897.345	20678
897.466	20571
897.587	20712
897.708	20739
897.828	20716
897.949	20651
898.07	20465
898.19	20659
898.311	20663
898.431	20594
898.552	20640
898.672	20667
898.792	20781
898.913	20682
899.033	20648
899.153	20362
899.273	20362
899.393	20309
899.513	20412
899.633	20317
899.753	20415
899.873	20244
899.993	20442
900.113	20301
900.232	20473
900.352	20324
900.472	20180
900.591	20298
900.711	20237
900.83	20065
900.95	20233
901.069	20275
901.189	20126
901.308	19875
901.427	19731
901.546	19723
901.665	19799
901.784	19822
901.904	19552
902.023	19540
902.141	19217
902.26	19373
902.379	19327
902.498	19202
902.617	19110
902.735	19278
902.854	19209
902.973	19156
903.091	18958
903.21	19015
903.328	18932
903.446	18795
903.565	18897
903.683	18833
903.801	18631
903.919	18658
904.038	18684
904.156	18490
904.274	18544
904.392	18547
904.51	18467
904.627	18532
904.745	18452
904.863	18593
904.981	18319
905.098	18304
905.216	18220
905.334	18190
905.451	18182
905.569	18178
905.686	18281
905.803	18152
905.921	18015
906.038	18178
906.155	18011
906.272	17923
906.389	17942
906.506	17828
906.623	17733
906.74	17707
906.857	17497
906.974	17570
907.091	17691
907.208	17843
907.324	17722
907.441	17615
907.557	17558
907.674	17532
907.79	17360
907.907	17372
908.023	17497
908.139	17395
908.256	17467
908.372	17254
908.488	17284
908.604	17212
908.72	17132
908.836	17124
908.952	17083
909.068	17170
909.184	17250
909.3	17235
909.415	17212
909.531	17185
909.647	16957
909.762	16877
909.878	16854
909.993	16908
910.108	16744
910.224	16763
910.339	16824
910.454	16759
910.57	16679
910.685	16634
910.8	16938
910.915	16968
911.03	16626
911.145	16535
911.259	16440
911.374	16405
911.489	16360
911.604	16367
911.718	16257
911.833	16253
911.947	16048
912.062	16063
912.176	16188
912.291	16280
912.405	16204
912.519	16436
912.633	16367
912.748	16261
912.862	16192
912.976	16063
913.09	16013
913.204	15972
913.318	15960
913.431	16124
913.545	16055
913.659	16135
913.772	16051
913.886	15918
914	15785
914.113	15953
914.226	15888
914.34	15808
914.453	15717
914.566	15831
914.68	15838
914.793	15652
914.906	15515
915.019	15511
915.132	15382
915.245	15340
915.358	15412
915.47	15466
915.583	15420
915.696	15477
915.809	15549
915.921	15519
916.034	15291
916.146	15252
916.259	15431
916.371	15424
916.483	15351
916.595	15291
916.708	15260
916.82	15317
916.932	15195
917.044	15275
917.156	15127
917.268	15062
917.38	15093
917.491	15074
917.603	15176
917.715	15173
917.826	15165
917.938	14906
918.049	14948
918.161	14998
918.272	15161
918.384	15127
918.495	15024
918.606	14944
918.717	14735
918.828	14883
918.939	14819
919.05	14697
919.161	14739
919.272	14655
919.383	14648
919.494	14887
919.604	14979
919.715	14731
919.826	14731
919.936	14727
920.047	14845
920.157	14804
920.267	14986
920.378	14792
920.488	14686
920.598	14921
920.708	15108
920.818	14941
920.928	14872
921.038	15093
921.148	14948
921.258	14762
921.368	14636
921.477	14552
921.587	14480
921.697	14358
921.806	14533
921.916	14347
922.025	14195
922.134	14195
922.244	14084
922.353	14233
922.462	14081
922.571	13970
922.68	13784
922.789	13871
922.898	13807
923.007	13761
923.116	13708
923.224	13761
923.333	13750
923.442	13643
923.55	13597
923.659	13556
923.767	13655
923.876	13559
923.984	13708
924.092	13426
924.201	13639
924.309	13529
924.417	13559
924.525	13430
924.633	13434
924.741	14157
924.849	13244
924.956	13426
925.064	13187
925.172	13206
925.279	13152
925.387	13285
925.494	13274
925.602	13255
925.709	13301
925.816	13118
925.924	13145
926.031	13232
926.138	13107
926.245	13179
926.352	13023
926.459	13225
926.566	13129
926.673	13061
926.779	12890
926.886	12924
926.993	12821
927.099	12730
927.206	12707
927.312	12654
927.419	12875
927.525	12817
927.631	12779
927.737	12700
927.843	12612
927.95	12494
928.056	12525
928.162	12593
928.267	12616
928.373	13228
928.479	12502
928.585	12369
928.69	12475
928.796	12597
928.901	12388
929.007	12350
929.112	12441
929.218	12395
929.323	12308
929.428	12281
929.533	12407
929.638	12171
929.743	12228
929.848	12232
929.953	12243
930.058	12114
930.163	11946
930.267	12038
930.372	12148
930.477	11954
930.581	12171
930.685	11920
930.79	11843
930.894	11847
930.998	11847
931.103	11958
931.207	11627
931.311	11490
931.415	11436
931.519	11162
931.623	11136
