Data from test_V78500241_2236.txt Node
Date: Fri Mar 25 15:25:25 CST 2022
User: usil
Spectrometer: V785-0024
Trigger mode: 0
Integration Time (sec): 4.000000E-1
Scans to average: 1
Nonlinearity correction enabled: false
Boxcar width: 0
Storing dark spectrum: false
XAxis mode: Wavelengths
Number of Pixels in Spectrum: 1024
>>>>>Begin Spectral Data<<<<<
801.071	27785
801.214	27732
801.356	27397
801.499	27329
801.641	27188
801.783	27287
801.926	27298
802.068	27252
802.211	27188
802.353	27207
802.496	27154
802.638	26906
802.78	27055
802.923	27005
803.065	26845
803.208	26963
803.35	27020
803.492	27058
803.635	27150
803.777	27074
803.919	27188
804.061	27447
804.204	27237
804.346	27131
804.488	27089
804.63	27279
804.773	27058
804.915	27055
805.057	27218
805.199	27180
805.341	27203
805.483	27294
805.626	27264
805.768	27146
805.91	27287
806.052	27230
806.194	27321
806.336	27481
806.478	27393
806.62	27249
806.762	27397
806.904	27663
807.046	27660
807.188	27800
807.33	27770
807.472	27656
807.614	27572
807.756	27549
807.898	27538
808.04	27591
808.182	27431
808.324	27671
808.465	27580
808.607	27762
808.749	27975
808.891	27892
809.033	28097
809.174	27827
809.316	27739
809.458	27899
809.6	27994
809.741	28074
809.883	27911
810.025	27953
810.166	28196
810.308	28303
810.45	28070
810.591	28162
810.733	27835
810.875	27861
811.016	27842
811.158	27717
811.299	28021
811.441	28059
811.582	28032
811.724	27934
811.865	27964
812.007	27770
812.148	27911
812.29	28078
812.431	28147
812.573	28211
812.714	28310
812.855	28360
812.997	28443
813.138	28622
813.279	28618
813.421	28428
813.562	28367
813.703	28204
813.845	28143
813.986	27892
814.127	27739
814.268	27557
814.41	27496
814.551	27466
814.692	27629
814.833	27507
814.974	27519
815.115	27564
815.256	27473
815.397	27424
815.539	27389
815.68	27393
815.821	27427
815.962	27481
816.103	27298
816.244	27367
816.385	27039
816.526	27074
816.666	26956
816.807	26845
816.948	26876
817.089	27001
817.23	26887
817.371	26781
817.512	26750
817.653	26861
817.793	26815
817.934	26868
818.075	26906
818.216	26792
818.356	26807
818.497	26693
818.638	26678
818.778	26590
818.919	26678
819.06	26724
819.2	26804
819.341	26876
819.481	26895
819.622	27009
819.762	27241
819.903	27020
820.043	26895
820.184	27077
820.324	27032
820.465	26933
820.605	26921
820.746	26902
820.886	26765
821.026	26868
821.167	26914
821.307	27020
821.447	26853
821.588	26739
821.728	26571
821.868	26533
822.008	26282
822.149	26271
822.289	26320
822.429	25997
822.569	25906
822.709	25993
822.849	25894
822.99	25906
823.13	25765
823.27	25643
823.41	25601
823.55	25548
823.69	25708
823.83	25712
823.97	25537
824.11	25419
824.25	25415
824.389	25438
824.529	25495
824.669	25552
824.809	25586
824.949	25479
825.089	25479
825.228	25449
825.368	25274
825.508	25396
825.648	25419
825.787	25472
825.927	25339
826.067	25373
826.206	25308
826.346	25365
826.485	25270
826.625	25346
826.765	25308
826.904	25419
827.044	25198
827.183	25122
827.323	24989
827.462	25171
827.601	25046
827.741	25034
827.88	25183
828.02	24840
828.159	25053
828.298	25080
828.437	25038
828.577	24905
828.716	25107
828.855	24989
828.994	24692
829.134	24749
829.273	24810
829.412	24692
829.551	24654
829.69	24646
829.829	24696
829.968	24791
830.107	24722
830.246	24738
830.385	24646
830.524	24696
830.663	24563
830.802	24372
830.941	24323
831.08	24232
831.219	24376
831.357	24369
831.496	24517
831.635	24292
831.774	24334
831.913	24060
832.051	24152
832.19	24057
832.329	24201
832.467	24049
832.606	24076
832.744	23931
832.883	24049
833.022	24079
833.16	23859
833.299	24133
833.437	24026
833.576	24083
833.714	23984
833.852	24083
833.991	24110
834.129	24060
834.267	24049
834.406	23973
834.544	24068
834.682	24174
834.821	24205
834.959	24266
835.097	24079
835.235	24155
835.373	24034
835.511	23954
835.65	23908
835.788	23878
835.926	23764
836.064	23562
836.202	23779
836.34	23992
836.478	23805
836.615	23889
836.753	23866
836.891	23988
837.029	23710
837.167	23779
837.305	23798
837.443	23748
837.58	23611
837.718	23889
837.856	23771
837.993	23745
838.131	23726
838.269	23608
838.406	23570
838.544	23539
838.681	23467
838.819	23353
838.956	23166
839.094	23200
839.231	23143
839.369	23391
839.506	23539
839.643	23353
839.781	23170
839.918	23239
840.055	23147
840.193	23033
840.33	23231
840.467	23155
840.604	23048
840.742	23452
840.879	23067
841.016	23033
841.153	22976
841.29	23284
841.427	23029
841.564	23117
841.701	23037
841.838	23090
841.975	23037
842.112	22949
842.249	22930
842.385	22831
842.522	23109
842.659	22873
842.796	22812
842.933	22881
843.069	22729
843.206	22820
843.343	22915
843.479	22923
843.616	22877
843.752	22569
843.889	22675
844.025	22748
844.162	22573
844.298	22816
844.435	22592
844.571	22592
844.708	22664
844.844	22672
844.98	22801
845.117	22850
845.253	22489
845.389	22478
845.525	22493
845.661	22493
845.798	22325
845.934	22516
846.07	22291
846.206	22440
846.342	22417
846.478	22379
846.614	22188
846.75	22120
846.886	22234
847.022	22234
847.158	22109
847.294	22082
847.429	22128
847.565	22124
847.701	22367
847.837	21819
847.972	21816
848.108	21865
848.244	21835
848.379	21686
848.515	21622
848.65	21553
848.786	21812
848.921	21694
849.057	21945
849.192	21778
849.328	21705
849.463	21591
849.598	21656
849.734	21625
849.869	21568
850.004	21488
850.14	21431
850.275	21557
850.41	21359
850.545	21355
850.68	21408
850.815	21393
850.95	21370
851.085	21637
851.22	21488
851.355	21568
851.49	21397
851.625	21500
851.76	21428
851.895	21428
852.03	21310
852.165	21382
852.299	21492
852.434	21507
852.569	21477
852.703	21504
852.838	21450
852.973	21485
853.107	21576
853.242	21370
853.376	21298
853.511	21249
853.645	21252
853.78	21405
853.914	21192
854.048	21195
854.183	21321
854.317	21264
854.451	21424
854.585	21260
854.72	21367
854.854	21374
854.988	21154
855.122	21344
855.256	21199
855.39	21332
855.524	21447
855.658	21302
855.792	21279
855.926	21207
856.06	21302
856.194	21359
856.327	21370
856.461	21169
856.595	21222
856.729	21203
856.862	21351
856.996	21416
857.13	21405
857.263	21348
857.397	21450
857.53	21302
857.664	21195
857.797	21393
857.931	21393
858.064	21272
858.197	21287
858.331	21283
858.464	21214
858.597	21188
858.731	21256
858.864	21188
858.997	21268
859.13	21268
859.263	21260
859.396	21325
859.529	21298
859.662	21123
859.795	21180
859.928	21306
860.061	21439
860.194	21431
860.327	21313
860.46	21203
860.592	21386
860.725	21408
860.858	21367
860.99	21370
861.123	21207
861.256	21157
861.388	21180
861.521	21930
861.653	21146
861.786	21077
861.918	21108
862.05	21131
862.183	21332
862.315	21252
862.447	21298
862.58	21173
862.712	21119
862.844	20933
862.976	21074
863.108	21074
863.24	21355
863.372	20941
863.504	20952
863.636	20986
863.768	20914
863.9	21058
864.032	21001
864.164	20895
864.296	21119
864.428	21081
864.559	21093
864.691	20994
864.823	20921
864.954	21017
865.086	20986
865.217	20948
865.349	20781
865.48	20982
865.612	20788
865.743	21020
865.875	20902
866.006	20769
866.137	20845
866.269	20823
866.4	20895
866.531	20845
866.662	20815
866.793	20857
866.924	20739
867.055	20929
867.186	20845
867.317	20804
867.448	20689
867.579	20899
867.71	20697
867.841	20655
867.972	20838
868.103	20716
868.233	20781
868.364	20773
868.495	20819
868.625	20979
868.756	21237
868.886	20990
869.017	21047
869.147	21116
869.278	21131
869.408	21013
869.539	21108
869.669	21154
869.799	21074
869.929	21176
870.06	21211
870.19	21264
870.32	21378
870.45	21370
870.58	21447
870.71	21603
870.84	21439
870.97	21504
871.1	21321
871.23	21610
871.36	21568
871.489	21610
871.619	21549
871.749	21698
871.879	21720
872.008	21644
872.138	21671
872.267	21698
872.397	21473
872.526	21572
872.656	21443
872.785	21534
872.915	21679
873.044	21679
873.173	21713
873.303	21800
873.432	21610
873.561	21705
873.69	21724
873.819	21747
873.948	21751
874.077	21690
874.206	21591
874.335	21682
874.464	21781
874.593	21972
874.722	21804
874.851	21998
874.979	21827
875.108	21964
875.237	21876
875.365	21804
875.494	21968
875.623	22044
875.751	21713
875.88	21949
876.008	22051
876.136	22044
876.265	22215
876.393	22405
876.521	22306
876.65	22409
876.778	22356
876.906	22200
877.034	22185
877.162	22375
877.29	22253
877.418	22276
877.546	22318
877.674	22215
877.802	22280
877.93	22272
878.058	22139
878.185	22082
878.313	22211
878.441	22215
878.568	22105
878.696	22120
878.824	22295
878.951	22341
879.079	22371
879.206	22504
879.333	22466
879.461	22318
879.588	22295
879.715	22447
879.842	22500
879.97	22306
880.097	22029
880.224	22013
880.351	22154
880.478	21949
880.605	22048
880.732	22078
880.859	22204
880.986	22166
881.112	22093
881.239	21915
881.366	21812
881.493	21759
881.619	21667
881.746	21728
881.872	21595
881.999	21656
882.125	21713
882.252	21705
882.378	21610
882.505	21675
882.631	21610
882.757	21397
882.883	21408
883.01	21222
883.136	21389
883.262	21211
883.388	21233
883.514	21431
883.64	21317
883.766	21313
883.892	21104
884.018	21066
884.143	21218
884.269	21412
884.395	21230
884.52	20914
884.646	21043
884.772	20899
884.897	20971
885.023	20998
885.148	21039
885.274	21146
885.399	21043
885.524	21013
885.65	21039
885.775	21062
885.9	20876
886.025	21062
886.15	21100
886.275	20918
886.4	20811
886.525	20967
886.65	20918
886.775	20914
886.9	21039
887.025	21249
887.149	20838
887.274	20823
887.399	20693
887.523	20739
887.648	20670
887.773	20629
887.897	20750
888.021	20765
888.146	20724
888.27	20758
888.395	20906
888.519	20800
888.643	20845
888.767	20804
888.891	20648
889.015	20530
889.139	20606
889.263	20663
889.387	20705
889.511	20807
889.635	20689
889.759	20526
889.883	20533
890.006	20530
890.13	20575
890.254	20549
890.377	20507
890.501	20332
890.624	20294
890.748	20294
890.871	20298
890.995	20161
891.118	20077
891.241	20191
891.364	20191
891.488	20286
891.611	20084
891.734	20202
891.857	20267
891.98	20183
892.103	20244
892.226	20229
892.349	20126
892.471	19887
892.594	20081
892.717	20039
892.839	20126
892.962	20031
893.085	20237
893.207	20046
893.33	19925
893.452	20020
893.575	20054
893.697	20096
893.819	20187
893.941	20237
894.064	20084
894.186	20062
894.308	20058
894.43	20103
894.552	20252
894.674	20134
894.796	20073
894.918	19986
895.04	20012
895.161	20180
895.283	20122
895.405	20005
895.526	20103
895.648	20088
895.769	20100
895.891	20077
896.012	20153
896.134	20077
896.255	20172
896.376	19921
896.498	19967
896.619	20088
896.74	20027
896.861	20100
896.982	20415
897.103	20473
897.224	20381
897.345	20298
897.466	20286
897.587	20225
897.708	20400
897.828	20362
897.949	20187
898.07	20164
898.19	20271
898.311	20309
898.431	20225
898.552	20168
898.672	20370
898.792	20275
898.913	20301
899.033	20221
899.153	20043
899.273	20027
899.393	20130
899.513	20031
899.633	20092
899.753	20065
899.873	20031
899.993	20058
900.113	19890
900.232	19986
900.352	19917
900.472	19868
900.591	19723
900.711	19837
900.83	19750
900.95	19830
901.069	19871
901.189	19666
901.308	19502
901.427	19464
901.546	19487
901.665	19415
901.784	19415
901.904	19270
902.023	19156
902.141	19088
902.26	18947
902.379	19015
902.498	18966
902.617	18829
902.735	18958
902.854	18863
902.973	18878
903.091	18555
903.21	18589
903.328	18582
903.446	18509
903.565	18464
903.683	18254
903.801	18327
903.919	18308
904.038	18429
904.156	18152
904.274	18350
904.392	18114
904.51	18178
904.627	18174
904.745	18220
904.863	18121
904.981	18015
905.098	17939
905.216	17847
905.334	17790
905.451	17737
905.569	17737
905.686	17737
905.803	17832
905.921	17623
906.038	17653
906.155	17729
906.272	17615
906.389	17471
906.506	17349
906.623	17277
906.74	17231
906.857	17250
906.974	17159
907.091	17463
907.208	17383
907.324	17391
907.441	17277
907.557	17079
907.674	16976
907.79	17045
907.907	17064
908.023	17151
908.139	17041
908.256	17079
908.372	17025
908.488	16896
908.604	16885
908.72	16805
908.836	16820
908.952	16755
909.068	16797
909.184	16968
909.3	16797
909.415	16793
909.531	16767
909.647	16554
909.762	16558
909.878	16421
909.993	16485
910.108	16413
910.224	16443
910.339	16527
910.454	16375
910.57	16344
910.685	16188
910.8	16523
910.915	16474
911.03	16348
911.145	16143
911.259	16040
911.374	16166
911.489	16074
911.604	15960
911.718	15842
911.833	15835
911.947	15846
912.062	15656
912.176	15800
912.291	15781
912.405	15819
912.519	16013
912.633	16086
912.748	15876
912.862	15873
912.976	15724
913.09	15485
913.204	15618
913.318	15667
913.431	15743
913.545	15808
913.659	15751
913.772	15584
913.886	15507
914	15477
914.113	15511
914.226	15656
914.34	15599
914.453	15256
914.566	15443
914.68	15397
914.793	15321
914.906	15199
915.019	15161
915.132	14967
915.245	15070
915.358	15233
915.47	15135
915.583	15020
915.696	15039
915.809	15192
915.921	15142
916.034	14986
916.146	15077
916.259	14960
916.371	15005
916.483	14944
916.595	14883
916.708	14937
916.82	14982
916.932	14857
917.044	14861
917.156	14781
917.268	14769
917.38	14807
917.491	14743
917.603	14777
917.715	14842
917.826	14754
917.938	14674
918.049	14583
918.161	14583
918.272	14838
918.384	14762
918.495	14663
918.606	14454
918.717	14526
918.828	14423
918.939	14518
919.05	14393
919.161	14473
919.272	14256
919.383	14313
919.494	14533
919.604	14598
919.715	14400
919.826	14412
919.936	14438
920.047	14415
920.157	14476
920.267	14655
920.378	14484
920.488	14366
920.598	14594
920.708	14712
920.818	14594
920.928	14507
921.038	14792
921.148	14667
921.258	14358
921.368	14332
921.477	14218
921.587	14187
921.697	14039
921.806	14168
921.916	14062
922.025	13951
922.134	13822
922.244	13746
922.353	13830
922.462	13731
922.571	13616
922.68	13521
922.789	13521
922.898	13571
923.007	13430
923.116	13476
923.224	13491
923.333	13407
923.442	13285
923.55	13365
923.659	13377
923.767	13320
923.876	13228
923.984	13354
924.092	13213
924.201	13285
924.309	13247
924.417	13171
924.525	13072
924.633	13107
924.741	13921
924.849	12920
924.956	13133
925.064	12981
925.172	12878
925.279	12863
925.387	12806
925.494	12970
925.602	12985
925.709	12993
925.816	12696
925.924	12776
926.031	12852
926.138	12798
926.245	12833
926.352	12703
926.459	12871
926.566	12909
926.673	12749
926.779	12635
926.886	12616
926.993	12502
927.099	12494
927.206	12426
927.312	12486
927.419	12513
927.525	12483
927.631	12528
927.737	12270
927.843	12353
927.95	12167
928.056	12273
928.162	12270
928.267	12357
928.373	12871
928.479	12399
928.585	12121
928.69	12182
928.796	12254
928.901	12102
929.007	12019
929.112	12159
929.218	12083
929.323	12079
929.428	11950
929.533	12102
929.638	11973
929.743	11893
929.848	11908
929.953	11996
930.058	11847
930.163	11718
930.267	11737
930.372	11794
930.477	11615
930.581	11885
930.685	11813
930.79	11573
930.894	11684
930.998	11566
931.103	11722
931.207	11349
931.311	11246
931.415	11250
931.519	10984
931.623	10904
