Data from test_V78500241_17.txt Node
Date: Fri Mar 25 15:09:58 CST 2022
User: usil
Spectrometer: V785-0024
Trigger mode: 0
Integration Time (sec): 4.000000E-1
Scans to average: 1
Nonlinearity correction enabled: false
Boxcar width: 0
Storing dark spectrum: false
XAxis mode: Wavelengths
Number of Pixels in Spectrum: 1024
>>>>>Begin Spectral Data<<<<<
801.071	28040
801.214	27812
801.356	27660
801.499	27682
801.641	27450
801.783	27492
801.926	27408
802.068	27287
802.211	27226
802.353	27199
802.496	27146
802.638	26986
802.78	26895
802.923	26800
803.065	26849
803.208	26872
803.35	26834
803.492	26986
803.635	27116
803.777	26895
803.919	27020
804.061	27367
804.204	27123
804.346	26868
804.488	26921
804.63	26956
804.773	26929
804.915	27051
805.057	27112
805.199	26975
805.341	26895
805.483	27047
805.626	27100
805.768	26956
805.91	27077
806.052	27150
806.194	26971
806.336	27222
806.478	27047
806.62	27039
806.762	27291
806.904	27192
807.046	27363
807.188	27424
807.33	27401
807.472	27424
807.614	27150
807.756	27241
807.898	27135
808.04	27237
808.182	27165
808.324	27180
808.465	27188
808.607	27306
808.749	27523
808.891	27542
809.033	27622
809.174	27542
809.316	27534
809.458	27473
809.6	27435
809.741	27572
809.883	27526
810.025	27667
810.166	27671
810.308	27709
810.45	27789
810.591	27526
810.733	27447
810.875	27367
811.016	27230
811.158	27226
811.299	27443
811.441	27458
811.582	27492
811.724	27283
811.865	27329
812.007	27355
812.148	27218
812.29	27279
812.431	27443
812.573	27637
812.714	27781
812.855	27968
812.997	27861
813.138	28105
813.279	28048
813.421	27785
813.562	27808
813.703	27694
813.845	27351
813.986	27165
814.127	27001
814.268	26967
814.41	26918
814.551	26845
814.692	26929
814.833	26857
814.974	26910
815.115	26899
815.256	26731
815.397	26727
815.539	26765
815.68	26629
815.821	26499
815.962	26678
816.103	26571
816.244	26560
816.385	26393
816.526	26294
816.666	26142
816.807	26062
816.948	26062
817.089	26172
817.23	26153
817.371	26031
817.512	26001
817.653	26001
817.793	26058
817.934	26012
818.075	25944
818.216	25951
818.356	25757
818.497	25753
818.638	25605
818.778	25662
818.919	25639
819.06	25898
819.2	25723
819.341	25894
819.481	25955
819.622	25966
819.762	26244
819.903	26035
820.043	25951
820.184	26020
820.324	25906
820.465	26122
820.605	26012
820.746	25913
820.886	25772
821.026	25925
821.167	25879
821.307	26046
821.447	25780
821.588	25875
821.728	25677
821.868	25476
822.008	25358
822.149	25377
822.289	25278
822.429	25133
822.569	25023
822.709	24878
822.849	24757
822.99	24810
823.13	24635
823.27	24753
823.41	24563
823.55	24407
823.69	24635
823.83	24597
823.97	24582
824.11	24372
824.25	24334
824.389	24273
824.529	24441
824.669	24258
824.809	24517
824.949	24285
825.089	24311
825.228	24407
825.368	24053
825.508	24098
825.648	24155
825.787	24205
825.927	24125
826.067	24129
826.206	24235
826.346	24285
826.485	24106
826.625	24167
826.765	24277
826.904	24125
827.044	23980
827.183	23809
827.323	23722
827.462	23809
827.601	23767
827.741	23653
827.88	23783
828.02	23756
828.159	23775
828.298	23840
828.437	23676
828.577	23699
828.716	23714
828.855	23760
828.994	23512
829.134	23425
829.273	23554
829.412	23383
829.551	23383
829.69	23360
829.829	23463
829.968	23558
830.107	23395
830.246	23349
830.385	23414
830.524	23353
830.663	23235
830.802	23067
830.941	23022
831.08	22938
831.219	23033
831.357	23113
831.496	23216
831.635	23041
831.774	22786
831.913	22896
832.051	22828
832.19	22771
832.329	22771
832.467	22733
832.606	22577
832.744	22489
832.883	22542
833.022	22481
833.16	22645
833.299	22626
833.437	22424
833.576	22634
833.714	22668
833.852	22744
833.991	22561
834.129	22599
834.267	22771
834.406	22702
834.544	22687
834.682	22565
834.821	22569
834.959	22748
835.097	22565
835.235	22622
835.373	22512
835.511	22459
835.65	22409
835.788	22424
835.926	22253
836.064	22238
836.202	22261
836.34	22474
836.478	22500
836.615	22481
836.753	22599
836.891	22497
837.029	22455
837.167	22386
837.305	22344
837.443	22394
837.58	22238
837.718	22360
837.856	22265
837.993	22112
838.131	22249
838.269	22128
838.406	22051
838.544	22147
838.681	21930
838.819	21945
838.956	21698
839.094	21728
839.231	21759
839.369	21998
839.506	22188
839.643	22032
839.781	21724
839.918	21625
840.055	21610
840.193	21694
840.33	21488
840.467	21606
840.604	21690
840.742	21926
840.879	21492
841.016	21443
841.153	21614
841.29	21751
841.427	21663
841.564	21568
841.701	21481
841.838	21443
841.975	21408
842.112	21428
842.249	21439
842.385	21188
842.522	21542
842.659	21291
842.796	21344
842.933	21283
843.069	21150
843.206	21192
843.343	21325
843.479	21302
843.616	21298
843.752	21028
843.889	20975
844.025	21226
844.162	20998
844.298	21127
844.435	21024
844.571	21009
844.708	21112
844.844	21100
844.98	21146
845.117	21146
845.253	20906
845.389	20705
845.525	20868
845.661	20861
845.798	20735
845.934	20743
846.07	20705
846.206	20739
846.342	20777
846.478	20762
846.614	20526
846.75	20366
846.886	20640
847.022	20511
847.158	20495
847.294	20358
847.429	20526
847.565	20488
847.701	20712
847.837	20294
847.972	20122
848.108	20248
848.244	20237
848.379	20092
848.515	20062
848.65	19822
848.786	20073
848.921	19982
849.057	20218
849.192	20050
849.328	20142
849.463	20111
849.598	19982
849.734	19921
849.869	19712
850.004	19727
850.14	19700
850.275	19803
850.41	19689
850.545	19791
850.68	19807
850.815	19731
850.95	19662
851.085	19955
851.22	19795
851.355	19715
851.49	19723
851.625	19734
851.76	19727
851.895	19613
852.03	19575
852.165	19837
852.299	19791
852.434	19772
852.569	19849
852.703	19753
852.838	19750
852.973	19818
853.107	19856
853.242	19643
853.376	19651
853.511	19499
853.645	19438
853.78	19658
853.914	19460
854.048	19616
854.183	19449
854.317	19582
854.451	19750
854.585	19563
854.72	19472
854.854	19567
854.988	19369
855.122	19434
855.256	19331
855.39	19510
855.524	19491
855.658	19594
855.792	19594
855.926	19620
856.06	19567
856.194	19662
856.327	19529
856.461	19476
856.595	19514
856.729	19373
856.862	19575
856.996	19468
857.13	19628
857.263	19472
857.397	19708
857.53	19601
857.664	19662
857.797	19601
857.931	19704
858.064	19506
858.197	19689
858.331	19396
858.464	19343
858.597	19396
858.731	19506
858.864	19411
858.997	19403
859.13	19426
859.263	19521
859.396	19548
859.529	19460
859.662	19377
859.795	19487
859.928	19426
860.061	19609
860.194	19556
860.327	19590
860.46	19373
860.592	19396
860.725	19563
860.858	19613
860.99	19514
861.123	19274
861.256	19384
861.388	19415
861.521	19917
861.653	19331
861.786	19171
861.918	19392
862.05	19419
862.183	19540
862.315	19422
862.447	19639
862.58	19441
862.712	19198
862.844	19156
862.976	19168
863.108	19190
863.24	19632
863.372	19072
863.504	19179
863.636	19213
863.768	19202
863.9	19118
864.032	19057
864.164	19137
864.296	19137
864.428	19168
864.559	19259
864.691	19312
864.823	19152
864.954	19137
865.086	19152
865.217	19095
865.349	18954
865.48	19145
865.612	19095
865.743	19145
865.875	19084
866.006	19080
866.137	19034
866.269	19065
866.4	19034
866.531	19031
866.662	19080
866.793	18901
866.924	19027
867.055	19031
867.186	19057
867.317	18890
867.448	18913
867.579	18989
867.71	18947
867.841	18905
867.972	18989
868.103	18958
868.233	18943
868.364	18920
868.495	19053
868.625	19152
868.756	19301
868.886	19202
869.017	19099
869.147	19282
869.278	19430
869.408	19274
869.539	19221
869.669	19232
869.799	19213
869.929	19324
870.06	19247
870.19	19590
870.32	19415
870.45	19544
870.58	19628
870.71	19845
870.84	19677
870.97	19662
871.1	19670
871.23	19731
871.36	19784
871.489	19731
871.619	19822
871.749	19822
871.879	19890
872.008	20005
872.138	19856
872.267	19795
872.397	19746
872.526	19693
872.656	19639
872.785	19727
872.915	19803
873.044	19940
873.173	19788
873.303	19932
873.432	19967
873.561	19879
873.69	20001
873.819	19860
873.948	19883
874.077	19887
874.206	19913
874.335	19841
874.464	19951
874.593	20035
874.722	20043
874.851	20084
874.979	20195
875.108	20218
875.237	19947
875.365	20001
875.494	20092
875.623	20248
875.751	20031
875.88	20214
876.008	20218
876.136	20324
876.265	20526
876.393	20632
876.521	20640
876.65	20625
876.778	20568
876.906	20560
877.034	20404
877.162	20533
877.29	20370
877.418	20465
877.546	20518
877.674	20377
877.802	20385
877.93	20495
878.058	20503
878.185	20313
878.313	20503
878.441	20594
878.568	20400
878.696	20275
878.824	20541
878.951	20609
879.079	20659
879.206	20804
879.333	20568
879.461	20457
879.588	20575
879.715	20648
879.842	20731
879.97	20484
880.097	20240
880.224	20309
880.351	20377
880.478	20298
880.605	20301
880.732	20351
880.859	20442
880.986	20275
881.112	20214
881.239	20122
881.366	20145
881.493	20005
881.619	20001
881.746	19978
881.872	19993
881.999	19947
882.125	19826
882.252	19902
882.378	19860
882.505	20054
882.631	19875
882.757	19708
882.883	19761
883.01	19833
883.136	19651
883.262	19537
883.388	19506
883.514	19655
883.64	19693
883.766	19594
883.892	19430
884.018	19552
884.143	19647
884.269	19852
884.395	19476
884.52	19365
884.646	19426
884.772	19289
884.897	19107
885.023	19354
885.148	19400
885.274	19521
885.399	19506
885.524	19312
885.65	19327
885.775	19293
885.9	19244
886.025	19422
886.15	19419
886.275	19263
886.4	19225
886.525	19244
886.65	19259
886.775	19198
886.9	19327
887.025	19441
887.149	19327
887.274	19190
887.399	19088
887.523	19080
887.648	18996
887.773	18989
887.897	19175
888.021	19069
888.146	19004
888.27	19129
888.395	19152
888.519	19118
888.643	19088
888.767	19187
888.891	18916
889.015	18996
889.139	19000
889.263	18867
889.387	19015
889.511	19061
889.635	19027
889.759	18905
889.883	18875
890.006	18935
890.13	18920
890.254	18707
890.377	18753
890.501	18631
890.624	18623
890.748	18730
890.871	18513
890.995	18502
891.118	18369
891.241	18502
891.364	18448
891.488	18574
891.611	18456
891.734	18536
891.857	18388
891.98	18521
892.103	18517
892.226	18509
892.349	18483
892.471	18194
892.594	18391
892.717	18528
892.839	18517
892.962	18384
893.085	18532
893.207	18391
893.33	18182
893.452	18361
893.575	18517
893.697	18384
893.819	18540
893.941	18555
894.064	18536
894.186	18353
894.308	18350
894.43	18616
894.552	18601
894.674	18407
894.796	18296
894.918	18441
895.04	18353
895.161	18490
895.283	18437
895.405	18410
895.526	18486
895.648	18407
895.769	18403
895.891	18521
896.012	18631
896.134	18528
896.255	18483
896.376	18460
896.498	18631
896.619	18498
896.74	18547
896.861	18635
896.982	18829
897.103	18970
897.224	18764
897.345	18722
897.466	18745
897.587	18673
897.708	18837
897.828	18760
897.949	18669
898.07	18589
898.19	18635
898.311	18787
898.431	18681
898.552	18734
898.672	18787
898.792	18798
898.913	18722
899.033	18513
899.153	18467
899.273	18418
899.393	18433
899.513	18376
899.633	18570
899.753	18452
899.873	18384
899.993	18441
900.113	18426
900.232	18445
900.352	18296
900.472	18273
900.591	18224
900.711	18338
900.83	18144
900.95	18380
901.069	18273
901.189	18197
901.308	17923
901.427	17771
901.546	17824
901.665	17935
901.784	17821
901.904	17798
902.023	17543
902.141	17417
902.26	17463
902.379	17398
902.498	17414
902.617	17273
902.735	17360
902.854	17353
902.973	17189
903.091	17083
903.21	17124
903.328	16995
903.446	16957
903.565	16900
903.683	16938
903.801	16900
903.919	16896
904.038	16831
904.156	16675
904.274	16782
904.392	16702
904.51	16615
904.627	16660
904.745	16691
904.863	16786
904.981	16417
905.098	16265
905.216	16291
905.334	16424
905.451	16322
905.569	16253
905.686	16375
905.803	16390
905.921	16124
906.038	16249
906.155	16150
906.272	15998
906.389	16051
906.506	15922
906.623	15892
906.74	15873
906.857	15675
906.974	15656
907.091	15892
907.208	15903
907.324	15975
907.441	15797
907.557	15599
907.674	15641
907.79	15420
907.907	15504
908.023	15622
908.139	15641
908.256	15488
908.372	15466
908.488	15450
908.604	15291
908.72	15256
908.836	15268
908.952	15230
909.068	15241
909.184	15302
909.3	15233
909.415	15325
909.531	15214
909.647	14975
909.762	14906
909.878	15017
909.993	14921
910.108	14868
910.224	14979
910.339	14914
910.454	14861
910.57	14883
910.685	14640
910.8	14876
910.915	14937
911.03	14746
911.145	14495
911.259	14606
911.374	14560
911.489	14545
911.604	14461
911.718	14442
911.833	14355
911.947	14199
912.062	14100
912.176	14313
912.291	14244
912.405	14370
912.519	14507
912.633	14438
912.748	14305
912.862	14301
912.976	14134
913.09	13982
913.204	14058
913.318	14134
913.431	14313
913.545	14157
913.659	14218
913.772	14168
913.886	13944
914	13982
914.113	13986
914.226	14161
914.34	14161
914.453	13837
914.566	13997
914.68	13852
914.793	13909
914.906	13674
915.019	13567
915.132	13552
915.245	13605
915.358	13613
915.47	13620
915.583	13712
915.696	13723
915.809	13750
915.921	13803
916.034	13540
916.146	13578
916.259	13502
916.371	13685
916.483	13609
916.595	13571
916.708	13415
916.82	13521
916.932	13403
917.044	13483
917.156	13449
917.268	13282
917.38	13358
917.491	13282
917.603	13381
917.715	13502
917.826	13384
917.938	13183
918.049	13168
918.161	13377
918.272	13407
918.384	13483
918.495	13244
918.606	13187
918.717	13038
918.828	13050
918.939	13221
919.05	13103
919.161	13046
919.272	12863
919.383	12981
919.494	13046
919.604	13259
919.715	13122
919.826	12905
919.936	13019
920.047	13141
920.157	13072
920.267	13301
920.378	13053
920.488	12993
920.598	13247
920.708	13396
920.818	13202
920.928	13118
921.038	13312
921.148	13225
921.258	13008
921.368	12920
921.477	12894
921.587	12905
921.697	12665
921.806	12928
921.916	12730
922.025	12593
922.134	12433
922.244	12483
922.353	12566
922.462	12388
922.571	12350
922.68	12292
922.789	12171
922.898	12049
923.007	12117
923.116	12175
923.224	12125
923.333	12060
923.442	11973
923.55	12064
923.659	11927
923.767	12102
923.876	11931
923.984	11889
924.092	11851
924.201	11946
924.309	11946
924.417	11893
924.525	11802
924.633	11843
924.741	12574
924.849	11638
924.956	11756
925.064	11573
925.172	11623
925.279	11619
925.387	11699
925.494	11627
925.602	11767
925.709	11661
925.816	11547
925.924	11619
926.031	11714
926.138	11668
926.245	11608
926.352	11539
926.459	11668
926.566	11665
926.673	11490
926.779	11406
926.886	11387
926.993	11303
927.099	11246
927.206	11204
927.312	11178
927.419	11227
927.525	11299
927.631	11261
927.737	11102
927.843	11079
927.95	10927
928.056	11086
928.162	11223
928.267	11143
928.373	11695
928.479	11208
928.585	10915
928.69	10987
928.796	11174
928.901	10938
929.007	10816
929.112	10991
929.218	10839
929.323	10816
929.428	10820
929.533	10946
929.638	10736
929.743	10805
929.848	10820
929.953	10759
930.058	10725
930.163	10504
930.267	10550
930.372	10683
930.477	10535
930.581	10790
930.685	10656
930.79	10394
930.894	10447
930.998	10466
931.103	10634
931.207	10166
931.311	10074
931.415	10071
931.519	9930
931.623	9819
