Data from test_V78500241_492.txt Node
Date: Fri Mar 25 15:13:17 CST 2022
User: usil
Spectrometer: V785-0024
Trigger mode: 0
Integration Time (sec): 4.000000E-1
Scans to average: 1
Nonlinearity correction enabled: false
Boxcar width: 0
Storing dark spectrum: false
XAxis mode: Wavelengths
Number of Pixels in Spectrum: 1024
>>>>>Begin Spectral Data<<<<<
801.071	27572
801.214	27523
801.356	27249
801.499	27321
801.641	27085
801.783	27096
801.926	27173
802.068	27077
802.211	26971
802.353	27017
802.496	26918
802.638	26724
802.78	26663
802.923	26678
803.065	26674
803.208	26727
803.35	26750
803.492	26906
803.635	26811
803.777	26857
803.919	26933
804.061	27214
804.204	26838
804.346	26864
804.488	26925
804.63	26864
804.773	26807
804.915	26804
805.057	26967
805.199	26899
805.341	26982
805.483	27043
805.626	26944
805.768	26743
805.91	26902
806.052	27001
806.194	26967
806.336	27165
806.478	27074
806.62	26994
806.762	27028
806.904	27211
807.046	27504
807.188	27462
807.33	27374
807.472	27458
807.614	27507
807.756	27359
807.898	27279
808.04	27310
808.182	27222
808.324	27348
808.465	27146
808.607	27443
808.749	27545
808.891	27823
809.033	27781
809.174	27724
809.316	27705
809.458	27660
809.6	27724
809.741	27633
809.883	27747
810.025	27831
810.166	27972
810.308	27937
810.45	27953
810.591	27785
810.733	27755
810.875	27599
811.016	27515
811.158	27603
811.299	27766
811.441	27838
811.582	27682
811.724	27622
811.865	27637
812.007	27637
812.148	27526
812.29	27580
812.431	27854
812.573	28017
812.714	28029
812.855	28154
812.997	28219
813.138	28276
813.279	28261
813.421	28219
813.562	28044
813.703	27949
813.845	27899
813.986	27530
814.127	27378
814.268	27313
814.41	27310
814.551	27142
814.692	27458
814.833	27218
814.974	27329
815.115	27237
815.256	27218
815.397	27051
815.539	27131
815.68	27150
815.821	27051
815.962	27203
816.103	26887
816.244	26952
816.385	26830
816.526	26769
816.666	26819
816.807	26609
816.948	26651
817.089	26746
817.23	26659
817.371	26575
817.512	26632
817.653	26583
817.793	26450
817.934	26503
818.075	26598
818.216	26480
818.356	26446
818.497	26438
818.638	26271
818.778	26271
818.919	26263
819.06	26294
819.2	26495
819.341	26663
819.481	26415
819.622	26743
819.762	26914
819.903	26906
820.043	26769
820.184	26864
820.324	26762
820.465	26746
820.605	26613
820.746	26712
820.886	26507
821.026	26545
821.167	26708
821.307	26655
821.447	26625
821.588	26465
821.728	26347
821.868	26191
822.008	26016
822.149	26012
822.289	26012
822.429	25811
822.569	25731
822.709	25719
822.849	25556
822.99	25586
823.13	25472
823.27	25365
823.41	25358
823.55	25373
823.69	25198
823.83	25343
823.97	25282
824.11	25084
824.25	25076
824.389	25152
824.529	25335
824.669	25308
824.809	25365
824.949	25206
825.089	25209
825.228	25297
825.368	25065
825.508	25053
825.648	25076
825.787	24996
825.927	25126
826.067	24897
826.206	24958
826.346	25038
826.485	25145
826.625	24916
826.765	25206
826.904	25072
827.044	24764
827.183	24924
827.323	24806
827.462	24817
827.601	24692
827.741	24798
827.88	24722
828.02	24642
828.159	24635
828.298	24871
828.437	24814
828.577	24757
828.716	24916
828.855	24631
828.994	24376
829.134	24410
829.273	24593
829.412	24604
829.551	24414
829.69	24441
829.829	24521
829.968	24692
830.107	24589
830.246	24486
830.385	24395
830.524	24319
830.663	24319
830.802	24182
830.941	24121
831.08	24041
831.219	24228
831.357	24102
831.496	24429
831.635	24232
831.774	24030
831.913	23958
832.051	23996
832.19	23840
832.329	23908
832.467	23748
832.606	23695
832.744	23661
832.883	23779
833.022	23805
833.16	23817
833.299	23824
833.437	23790
833.576	23920
833.714	23988
833.852	23950
833.991	23954
834.129	23973
834.267	23988
834.406	23836
834.544	23840
834.682	23836
834.821	23851
834.959	23912
835.097	23718
835.235	23893
835.373	23843
835.511	23737
835.65	23562
835.788	23726
835.926	23539
836.064	23535
836.202	23531
836.34	23733
836.478	23619
836.615	23783
836.753	23733
836.891	23676
837.029	23646
837.167	23634
837.305	23627
837.443	23558
837.58	23497
837.718	23531
837.856	23608
837.993	23615
838.131	23501
838.269	23478
838.406	23539
838.544	23326
838.681	23090
838.819	23083
838.956	22961
839.094	23033
839.231	22995
839.369	23231
839.506	23379
839.643	23204
839.781	23124
839.918	22908
840.055	22930
840.193	23006
840.33	22949
840.467	22938
840.604	22946
840.742	23204
840.879	22892
841.016	22915
841.153	22820
841.29	23151
841.427	22965
841.564	22999
841.701	22877
841.838	22805
841.975	22801
842.112	22801
842.249	22748
842.385	22744
842.522	22949
842.659	22733
842.796	22660
842.933	22622
843.069	22622
843.206	22706
843.343	22797
843.479	22611
843.616	22660
843.752	22546
843.889	22421
844.025	22603
844.162	22481
844.298	22459
844.435	22409
844.571	22489
844.708	22485
844.844	22641
844.98	22607
845.117	22645
845.253	22390
845.389	22367
845.525	22375
845.661	22299
845.798	22166
845.934	22238
846.07	22268
846.206	22177
846.342	22325
846.478	22124
846.614	22059
846.75	21975
846.886	21930
847.022	21979
847.158	21937
847.294	21968
847.429	22006
847.565	21899
847.701	22223
847.837	21625
847.972	21698
848.108	21808
848.244	21880
848.379	21580
848.515	21534
848.65	21515
848.786	21576
848.921	21591
849.057	21629
849.192	21698
849.328	21583
849.463	21469
849.598	21466
849.734	21405
849.869	21302
850.004	21321
850.14	21363
850.275	21313
850.41	21184
850.545	21245
850.68	21214
850.815	21313
850.95	21329
851.085	21416
851.22	21473
851.355	21359
851.49	21408
851.625	21340
851.76	21310
851.895	21173
852.03	21142
852.165	21180
852.299	21329
852.434	21245
852.569	21218
852.703	21416
852.838	21412
852.973	21401
853.107	21412
853.242	21245
853.376	21211
853.511	21036
853.645	21108
853.78	21207
853.914	21089
854.048	21043
854.183	21039
854.317	20956
854.451	21226
854.585	21112
854.72	21119
854.854	21142
854.988	21043
855.122	21089
855.256	20967
855.39	21024
855.524	21283
855.658	21150
855.792	21089
855.926	21195
856.06	21218
856.194	21096
856.327	21081
856.461	21001
856.595	21047
856.729	21131
856.862	21150
856.996	21176
857.13	21135
857.263	21287
857.397	21161
857.53	21043
857.664	21184
857.797	21180
857.931	21325
858.064	21112
858.197	21291
858.331	21108
858.464	21043
858.597	21036
858.731	21070
858.864	21039
858.997	21150
859.13	21119
859.263	21146
859.396	21176
859.529	21127
859.662	21055
859.795	21131
859.928	21058
860.061	21142
860.194	21294
860.327	21150
860.46	21116
860.592	21203
860.725	21294
860.858	21233
860.99	21131
861.123	20963
861.256	20952
861.388	21077
861.521	21709
861.653	21001
861.786	20891
861.918	21074
862.05	21066
862.183	20914
862.315	21077
862.447	21180
862.58	20845
862.712	20754
862.844	20739
862.976	20948
863.108	20925
863.24	21195
863.372	20583
863.504	20861
863.636	20762
863.768	20880
863.9	20819
864.032	20743
864.164	20762
864.296	20864
864.428	20982
864.559	20845
864.691	20960
864.823	20815
864.954	20842
865.086	20686
865.217	20842
865.349	20701
865.48	20594
865.612	20678
865.743	20918
865.875	20705
866.006	20724
866.137	20613
866.269	20735
866.4	20701
866.531	20663
866.662	20621
866.793	20583
866.924	20689
867.055	20609
867.186	20568
867.317	20571
867.448	20434
867.579	20632
867.71	20632
867.841	20609
867.972	20636
868.103	20636
868.233	20598
868.364	20659
868.495	20781
868.625	20830
868.756	20906
868.886	20773
869.017	20876
869.147	21024
869.278	20982
869.408	20826
869.539	20777
869.669	21005
869.799	20979
869.929	20998
870.06	20952
870.19	21199
870.32	21275
870.45	21222
870.58	21313
870.71	21329
870.84	21466
870.97	21279
871.1	21329
871.23	21496
871.36	21500
871.489	21416
871.619	21488
871.749	21443
871.879	21526
872.008	21599
872.138	21363
872.267	21405
872.397	21458
872.526	21226
872.656	21340
872.785	21211
872.915	21545
873.044	21553
873.173	21473
873.303	21553
873.432	21667
873.561	21618
873.69	21564
873.819	21462
873.948	21667
874.077	21523
874.206	21549
874.335	21515
874.464	21564
874.593	21698
874.722	21663
874.851	21755
874.979	21698
875.108	21766
875.237	21720
875.365	21648
875.494	21800
875.623	21686
875.751	21618
875.88	21728
876.008	21873
876.136	21979
876.265	22162
876.393	22246
876.521	22135
876.65	22090
876.778	22200
876.906	22025
877.034	22086
877.162	22101
877.29	21941
877.418	22055
877.546	22147
877.674	22051
877.802	21968
877.93	22029
878.058	22025
878.185	21953
878.313	22025
878.441	21991
878.568	21964
878.696	21987
878.824	22120
878.951	22200
879.079	22249
879.206	22291
879.333	22322
879.461	22051
879.588	22128
879.715	22291
879.842	22310
879.97	22124
880.097	21979
880.224	21797
880.351	22040
880.478	21960
880.605	21816
880.732	21922
880.859	22097
880.986	21937
881.112	21907
881.239	21713
881.366	21652
881.493	21587
881.619	21496
881.746	21469
881.872	21500
881.999	21428
882.125	21462
882.252	21580
882.378	21386
882.505	21709
882.631	21477
882.757	21260
882.883	21321
883.01	21085
883.136	21252
883.262	21150
883.388	21036
883.514	21226
883.64	21199
883.766	21074
883.892	20921
884.018	20986
884.143	21150
884.269	21169
884.395	20861
884.52	20750
884.646	20891
884.772	20796
884.897	20697
885.023	20864
885.148	20967
885.274	20952
885.399	20811
885.524	20811
885.65	20914
885.775	20746
885.9	20883
886.025	21028
886.15	20925
886.275	20853
886.4	20705
886.525	20724
886.65	20769
886.775	20667
886.9	20941
887.025	20986
887.149	20857
887.274	20621
887.399	20564
887.523	20697
887.648	20598
887.773	20450
887.897	20655
888.021	20625
888.146	20621
888.27	20697
888.395	20651
888.519	20720
888.643	20602
888.767	20644
888.891	20530
889.015	20362
889.139	20427
889.263	20480
889.387	20469
889.511	20765
889.635	20640
889.759	20355
889.883	20355
890.006	20377
890.13	20533
890.254	20396
890.377	20275
890.501	20149
890.624	20142
890.748	20218
890.871	20073
890.995	19902
891.118	20069
891.241	19978
891.364	20039
891.488	20126
891.611	19944
891.734	20046
891.857	20024
891.98	20092
892.103	20039
892.226	19917
892.349	19852
892.471	19799
892.594	19951
892.717	20031
892.839	19799
892.962	19871
893.085	19993
893.207	19769
893.33	19830
893.452	19898
893.575	19883
893.697	19772
893.819	19944
893.941	20103
894.064	20054
894.186	19845
894.308	19807
894.43	20027
894.552	19993
894.674	19951
894.796	19822
894.918	19871
895.04	19784
895.161	19925
895.283	19875
895.405	19746
895.526	19894
895.648	19799
895.769	19963
895.891	19925
896.012	19894
896.134	19830
896.255	19894
896.376	19818
896.498	19932
896.619	19841
896.74	19906
896.861	19947
896.982	20126
897.103	20358
897.224	20103
897.345	20161
897.466	20084
897.587	20065
897.708	20202
897.828	20191
897.949	20065
898.07	19989
898.19	20103
898.311	20180
898.431	20130
898.552	20107
898.672	20088
898.792	20339
898.913	20092
899.033	20096
899.153	20039
899.273	19822
899.393	19837
899.513	19807
899.633	19814
899.753	19830
899.873	19860
899.993	19932
900.113	19753
900.232	19830
900.352	19811
900.472	19590
900.591	19696
900.711	19681
900.83	19548
900.95	19704
901.069	19761
901.189	19476
901.308	19190
901.427	19164
901.546	19263
901.665	19255
901.784	19183
901.904	19091
902.023	18894
902.141	18848
902.26	18749
902.379	18688
902.498	18814
902.617	18734
902.735	18726
902.854	18738
902.973	18711
903.091	18433
903.21	18357
903.328	18551
903.446	18376
903.565	18334
903.683	18273
903.801	18110
903.919	18133
904.038	18228
904.156	17973
904.274	18068
904.392	18011
904.51	18049
904.627	17901
904.745	18053
904.863	18045
904.981	17775
905.098	17691
905.216	17581
905.334	17729
905.451	17623
905.569	17657
905.686	17672
905.803	17714
905.921	17585
906.038	17501
906.155	17459
906.272	17395
906.389	17299
906.506	17200
906.623	17349
906.74	17258
906.857	17064
906.974	17067
907.091	17345
907.208	17360
907.324	17216
907.441	17151
907.557	16961
907.674	16835
907.79	16835
907.907	16949
908.023	16915
908.139	16835
908.256	16896
908.372	16801
908.488	16733
908.604	16649
908.72	16664
908.836	16645
908.952	16546
909.068	16729
909.184	16698
909.3	16637
909.415	16736
909.531	16683
909.647	16428
909.762	16363
909.878	16322
909.993	16299
910.108	16398
910.224	16303
910.339	16337
910.454	16272
910.57	16120
910.685	16093
910.8	16348
910.915	16284
911.03	16238
911.145	15937
911.259	16010
911.374	15998
911.489	15831
911.604	15804
911.718	15625
911.833	15812
911.947	15553
912.062	15481
912.176	15629
912.291	15690
912.405	15766
912.519	15934
912.633	15846
912.748	15698
912.862	15717
912.976	15564
913.09	15454
913.204	15504
913.318	15492
913.431	15564
913.545	15599
913.659	15557
913.772	15447
913.886	15344
914	15344
914.113	15370
914.226	15393
914.34	15321
914.453	15241
914.566	15348
914.68	15161
914.793	15138
914.906	15005
915.019	14986
915.132	14845
915.245	14933
915.358	15116
915.47	15013
915.583	14872
915.696	14929
915.809	15043
915.921	15077
916.034	14853
916.146	14849
916.259	14765
916.371	14960
916.483	14834
916.595	14785
916.708	14823
916.82	14785
916.932	14800
917.044	14834
917.156	14617
917.268	14590
917.38	14655
917.491	14610
917.603	14556
917.715	14640
917.826	14670
917.938	14533
918.049	14396
918.161	14507
918.272	14705
918.384	14610
918.495	14514
918.606	14374
918.717	14282
918.828	14499
918.939	14347
919.05	14248
919.161	14374
919.272	14161
919.383	14199
919.494	14412
919.604	14530
919.715	14465
919.826	14244
919.936	14301
920.047	14358
920.157	14370
920.267	14594
920.378	14309
920.488	14298
920.598	14446
920.708	14571
920.818	14408
920.928	14408
921.038	14590
921.148	14659
921.258	14301
921.368	14149
921.477	14077
921.587	14103
921.697	13887
921.806	14088
921.916	13875
922.025	13727
922.134	13738
922.244	13594
922.353	13712
922.462	13544
922.571	13514
922.68	13369
922.789	13384
922.898	13396
923.007	13365
923.116	13373
923.224	13362
923.333	13278
923.442	13217
923.55	13175
923.659	13160
923.767	13259
923.876	13072
923.984	13244
924.092	13091
924.201	13145
924.309	13103
924.417	12989
924.525	13061
924.633	13110
924.741	13765
924.849	12825
924.956	12993
925.064	12833
925.172	12764
925.279	12787
925.387	12688
925.494	12867
925.602	12886
925.709	12798
925.816	12654
925.924	12715
926.031	12848
926.138	12768
926.245	12738
926.352	12536
926.459	12768
926.566	12833
926.673	12734
926.779	12574
926.886	12475
926.993	12418
927.099	12365
927.206	12342
927.312	12258
927.419	12353
927.525	12391
927.631	12372
927.737	12197
927.843	12251
927.95	12136
928.056	12140
928.162	12186
928.267	12148
928.373	12783
928.479	12209
928.585	12110
928.69	12114
928.796	12117
928.901	12022
929.007	11863
929.112	12114
929.218	11988
929.323	11885
929.428	11798
929.533	12022
929.638	11828
929.743	11775
929.848	11954
929.953	11923
930.058	11756
930.163	11562
930.267	11611
930.372	11688
930.477	11547
930.581	11767
930.685	11680
930.79	11414
930.894	11474
930.998	11398
931.103	11623
931.207	11318
931.311	11174
931.415	11128
931.519	10812
931.623	10881
