Data from test_V78500241_1799.txt Node
Date: Fri Mar 25 15:22:22 CST 2022
User: usil
Spectrometer: V785-0024
Trigger mode: 0
Integration Time (sec): 4.000000E-1
Scans to average: 1
Nonlinearity correction enabled: false
Boxcar width: 0
Storing dark spectrum: false
XAxis mode: Wavelengths
Number of Pixels in Spectrum: 1024
>>>>>Begin Spectral Data<<<<<
801.071	27888
801.214	27747
801.356	27412
801.499	27473
801.641	27420
801.783	27443
801.926	27439
802.068	27313
802.211	27260
802.353	27249
802.496	27051
802.638	27146
802.78	27036
802.923	27013
803.065	26883
803.208	26861
803.35	27096
803.492	27230
803.635	27245
803.777	27047
803.919	27386
804.061	27641
804.204	27313
804.346	27199
804.488	27093
804.63	27176
804.773	27146
804.915	27306
805.057	27412
805.199	27131
805.341	27317
805.483	27538
805.626	27359
805.768	27264
805.91	27397
806.052	27332
806.194	27370
806.336	27515
806.478	27370
806.62	27488
806.762	27496
806.904	27564
807.046	27987
807.188	27652
807.33	27724
807.472	27819
807.614	27861
807.756	27869
807.898	27606
808.04	27591
808.182	27717
808.324	27819
808.465	27766
808.607	27838
808.749	27987
808.891	27911
809.033	28147
809.174	28158
809.316	27964
809.458	28044
809.6	27983
809.741	28135
809.883	27937
810.025	28242
810.166	28265
810.308	28261
810.45	28204
810.591	28169
810.733	27941
810.875	28013
811.016	27846
811.158	27899
811.299	28013
811.441	28211
811.582	28090
811.724	28082
811.865	28017
812.007	28093
812.148	28036
812.29	28032
812.431	28211
812.573	28291
812.714	28455
812.855	28500
812.997	28577
813.138	28675
813.279	28710
813.421	28580
813.562	28474
813.703	28234
813.845	28219
813.986	27884
814.127	27728
814.268	27660
814.41	27724
814.551	27717
814.692	27770
814.833	27618
814.974	27610
815.115	27728
815.256	27477
815.397	27488
815.539	27549
815.68	27496
815.821	27420
815.962	27504
816.103	27389
816.244	27332
816.385	27272
816.526	27199
816.666	27032
816.807	26956
816.948	27058
817.089	27081
817.23	26876
817.371	26963
817.512	26986
817.653	26842
817.793	26918
817.934	27028
818.075	26952
818.216	26975
818.356	26944
818.497	26906
818.638	26629
818.778	26750
818.919	26826
819.06	26857
819.2	26979
819.341	26948
819.481	26982
819.622	27085
819.762	27378
819.903	27203
820.043	27146
820.184	27051
820.324	27150
820.465	27218
820.605	27165
820.746	27089
820.886	26914
821.026	27150
821.167	27055
821.307	26998
821.447	27024
821.588	26925
821.728	26769
821.868	26815
822.008	26400
822.149	26488
822.289	26317
822.429	26138
822.569	26077
822.709	26218
822.849	25932
822.99	25928
823.13	26039
823.27	25864
823.41	25784
823.55	25632
823.69	25852
823.83	25841
823.97	25658
824.11	25506
824.25	25521
824.389	25609
824.529	25746
824.669	25628
824.809	25651
824.949	25674
825.089	25594
825.228	25674
825.368	25449
825.508	25400
825.648	25563
825.787	25487
825.927	25460
826.067	25479
826.206	25331
826.346	25601
826.485	25438
826.625	25472
826.765	25601
826.904	25552
827.044	25209
827.183	25301
827.323	25103
827.462	25198
827.601	25278
827.741	25145
827.88	25194
828.02	25084
828.159	25099
828.298	25050
828.437	25350
828.577	25206
828.716	25289
828.855	25084
828.994	24875
829.134	24947
829.273	24962
829.412	24859
829.551	24863
829.69	24962
829.829	24886
829.968	24867
830.107	24939
830.246	24920
830.385	24897
830.524	24753
830.663	24700
830.802	24642
830.941	24589
831.08	24486
831.219	24555
831.357	24593
831.496	24798
831.635	24547
831.774	24445
831.913	24254
832.051	24178
832.19	24353
832.329	24277
832.467	24262
832.606	24117
832.744	24026
832.883	24174
833.022	24186
833.16	24174
833.299	24315
833.437	24232
833.576	24338
833.714	24266
833.852	24262
833.991	24159
834.129	24395
834.267	24323
834.406	24220
834.544	24273
834.682	24213
834.821	24228
834.959	24433
835.097	24190
835.235	24232
835.373	24334
835.511	24216
835.65	24083
835.788	24289
835.926	24034
836.064	23863
836.202	23893
836.34	24079
836.478	24190
836.615	24053
836.753	24144
836.891	24205
837.029	24171
837.167	24034
837.305	23927
837.443	23851
837.58	23920
837.718	24072
837.856	23923
837.993	23912
838.131	23935
838.269	23790
838.406	23802
838.544	23684
838.681	23623
838.819	23680
838.956	23501
839.094	23497
839.231	23429
839.369	23570
839.506	23855
839.643	23691
839.781	23402
839.918	23334
840.055	23341
840.193	23334
840.33	23417
840.467	23231
840.604	23353
840.742	23547
840.879	23208
841.016	23212
841.153	23235
841.29	23436
841.427	23277
841.564	23296
841.701	23334
841.838	23231
841.975	23239
842.112	23170
842.249	22987
842.385	23064
842.522	23258
842.659	23208
842.796	23086
842.933	23181
843.069	23102
843.206	23132
843.343	23113
843.479	23140
843.616	23174
843.752	22991
843.889	22892
844.025	23022
844.162	22839
844.298	23025
844.435	22866
844.571	22805
844.708	22847
844.844	23147
844.98	23090
845.117	23041
845.253	22911
845.389	22653
845.525	22748
845.661	22778
845.798	22634
845.934	22596
846.07	22664
846.206	22687
846.342	22744
846.478	22569
846.614	22314
846.75	22287
846.886	22394
847.022	22421
847.158	22421
847.294	22337
847.429	22428
847.565	22356
847.701	22584
847.837	21964
847.972	21926
848.108	22105
848.244	22124
848.379	21964
848.515	21907
848.65	21918
848.786	21854
848.921	21991
849.057	22059
849.192	21968
849.328	22013
849.463	21880
849.598	21854
849.734	21899
849.869	21869
850.004	21682
850.14	21614
850.275	21838
850.41	21523
850.545	21690
850.68	21660
850.815	21793
850.95	21667
851.085	21899
851.22	21713
851.355	21770
851.49	21610
851.625	21717
851.76	21732
851.895	21572
852.03	21694
852.165	21652
852.299	21759
852.434	21720
852.569	21800
852.703	21728
852.838	21865
852.973	21789
853.107	21934
853.242	21641
853.376	21561
853.511	21458
853.645	21504
853.78	21618
853.914	21644
854.048	21530
854.183	21340
854.317	21507
854.451	21743
854.585	21599
854.72	21564
854.854	21473
854.988	21530
855.122	21488
855.256	21481
855.39	21732
855.524	21625
855.658	21606
855.792	21557
855.926	21648
856.06	21591
856.194	21549
856.327	21603
856.461	21538
856.595	21496
856.729	21557
856.862	21542
856.996	21519
857.13	21610
857.263	21690
857.397	21523
857.53	21656
857.664	21644
857.797	21507
857.931	21591
858.064	21686
858.197	21591
858.331	21477
858.464	21481
858.597	21466
858.731	21530
858.864	21500
858.997	21504
859.13	21587
859.263	21663
859.396	21644
859.529	21401
859.662	21545
859.795	21450
859.928	21466
860.061	21717
860.194	21743
860.327	21622
860.46	21473
860.592	21603
860.725	21720
860.858	21724
860.99	21599
861.123	21515
861.256	21530
861.388	21462
861.521	22223
861.653	21481
861.786	21317
861.918	21382
862.05	21351
862.183	21447
862.315	21549
862.447	21477
862.58	21469
862.712	21249
862.844	21233
862.976	21348
863.108	21382
863.24	21591
863.372	21241
863.504	21279
863.636	21222
863.768	21317
863.9	21317
864.032	21184
864.164	21169
864.296	21237
864.428	21268
864.559	21325
864.691	21412
864.823	21344
864.954	21264
865.086	21146
865.217	20990
865.349	21070
865.48	21077
865.612	21036
865.743	21279
865.875	21245
866.006	21089
866.137	21135
866.269	21062
866.4	21131
866.531	20990
866.662	21001
866.793	21070
866.924	21119
867.055	21176
867.186	21214
867.317	21028
867.448	20986
867.579	20967
867.71	20849
867.841	20937
867.972	21062
868.103	21051
868.233	21062
868.364	21142
868.495	21199
868.625	21249
868.756	21431
868.886	21157
869.017	21355
869.147	21450
869.278	21405
869.408	21252
869.539	21378
869.669	21386
869.799	21416
869.929	21374
870.06	21412
870.19	21625
870.32	21629
870.45	21633
870.58	21694
870.71	21720
870.84	21778
870.97	21679
871.1	21717
871.23	21953
871.36	21884
871.489	21766
871.619	21899
871.749	21797
871.879	21941
872.008	21987
872.138	21987
872.267	21892
872.397	21751
872.526	21690
872.656	21816
872.785	21690
872.915	21915
873.044	22051
873.173	21930
873.303	22032
873.432	21975
873.561	22036
873.69	22067
873.819	21835
873.948	21998
874.077	21812
874.206	21804
874.335	21945
874.464	21983
874.593	22185
874.722	22109
874.851	22112
874.979	22150
875.108	22169
875.237	22063
875.365	22070
875.494	22090
875.623	22257
875.751	22059
875.88	22158
876.008	22177
876.136	22398
876.265	22546
876.393	22637
876.521	22580
876.65	22546
876.778	22615
876.906	22474
877.034	22485
877.162	22375
877.29	22451
877.418	22554
877.546	22485
877.674	22455
877.802	22550
877.93	22485
878.058	22443
878.185	22367
878.313	22398
878.441	22459
878.568	22344
878.696	22352
878.824	22542
878.951	22478
879.079	22672
879.206	22698
879.333	22683
879.461	22447
879.588	22527
879.715	22603
879.842	22843
879.97	22596
880.097	22314
880.224	22246
880.351	22440
880.478	22348
880.605	22158
880.732	22356
880.859	22527
880.986	22402
881.112	22287
881.239	22242
881.366	22116
881.493	21895
881.619	21861
881.746	21911
881.872	21937
881.999	21949
882.125	21770
882.252	21838
882.378	21838
882.505	21915
882.631	21747
882.757	21603
882.883	21660
883.01	21633
883.136	21515
883.262	21386
883.388	21439
883.514	21420
883.64	21701
883.766	21473
883.892	21310
884.018	21386
884.143	21488
884.269	21526
884.395	21180
884.52	21214
884.646	21317
884.772	21116
884.897	21192
885.023	21306
885.148	21329
885.274	21443
885.399	21272
885.524	21260
885.65	21161
885.775	21214
885.9	21146
886.025	21374
886.15	21184
886.275	21192
886.4	21100
886.525	21211
886.65	21127
886.775	21218
886.9	21291
887.025	21408
887.149	21188
887.274	20906
887.399	20933
887.523	20948
887.648	20941
887.773	20929
887.897	21089
888.021	20994
888.146	21081
888.27	21077
888.395	21066
888.519	20967
888.643	20994
888.767	21077
888.891	20956
889.015	20769
889.139	20845
889.263	20735
889.387	20823
889.511	21055
889.635	20804
889.759	20880
889.883	20735
890.006	20880
890.13	20918
890.254	20712
890.377	20636
890.501	20514
890.624	20469
890.748	20461
890.871	20423
890.995	20328
891.118	20366
891.241	20381
891.364	20366
891.488	20518
891.611	20370
891.734	20351
891.857	20366
891.98	20328
892.103	20488
892.226	20282
892.349	20396
892.471	20195
892.594	20324
892.717	20218
892.839	20248
892.962	20237
893.085	20366
893.207	20275
893.33	20065
893.452	20103
893.575	20370
893.697	20187
893.819	20495
893.941	20339
894.064	20339
894.186	20183
894.308	20103
894.43	20317
894.552	20423
894.674	20290
894.796	20164
894.918	20100
895.04	20100
895.161	20278
895.283	20244
895.405	20073
895.526	20138
895.648	20176
895.769	20278
895.891	20214
896.012	20309
896.134	20286
896.255	20210
896.376	20161
896.498	20240
896.619	20206
896.74	20317
896.861	20317
896.982	20495
897.103	20648
897.224	20530
897.345	20461
897.466	20454
897.587	20423
897.708	20488
897.828	20400
897.949	20370
898.07	20267
898.19	20343
898.311	20621
898.431	20393
898.552	20450
898.672	20507
898.792	20495
898.913	20579
899.033	20294
899.153	20267
899.273	20164
899.393	20126
899.513	20275
899.633	20240
899.753	20180
899.873	20100
899.993	20191
900.113	20225
900.232	20111
900.352	20031
900.472	20027
900.591	19940
900.711	19921
900.83	19864
900.95	20050
901.069	20081
901.189	19700
901.308	19666
901.427	19628
901.546	19540
901.665	19521
901.784	19483
901.904	19460
902.023	19301
902.141	19187
902.26	19168
902.379	19038
902.498	19053
902.617	19099
902.735	19152
902.854	19050
902.973	18985
903.091	18795
903.21	18730
903.328	18722
903.446	18757
903.565	18574
903.683	18464
903.801	18426
903.919	18471
904.038	18471
904.156	18251
904.274	18372
904.392	18315
904.51	18289
904.627	18292
904.745	18384
904.863	18327
904.981	18117
905.098	18007
905.216	17961
905.334	18041
905.451	17965
905.569	17939
905.686	18034
905.803	17984
905.921	17680
906.038	17904
906.155	17748
906.272	17646
906.389	17687
906.506	17505
906.623	17604
906.74	17478
906.857	17273
906.974	17433
907.091	17600
907.208	17608
907.324	17509
907.441	17497
907.557	17242
907.674	17246
907.79	17299
907.907	17200
908.023	17170
908.139	17284
908.256	17235
908.372	17033
908.488	17006
908.604	16991
908.72	16949
908.836	16934
908.952	16938
909.068	16938
909.184	17060
909.3	16991
909.415	16991
909.531	16854
909.647	16771
909.762	16740
909.878	16721
909.993	16603
910.108	16588
910.224	16512
910.339	16607
910.454	16478
910.57	16470
910.685	16459
910.8	16679
910.915	16630
911.03	16451
911.145	16421
911.259	16306
911.374	16246
911.489	16169
911.604	16124
911.718	16025
911.833	16025
911.947	15861
912.062	15869
912.176	15907
912.291	15911
912.405	16032
912.519	16150
912.633	16135
912.748	15918
912.862	15991
912.976	15850
913.09	15679
913.204	15751
913.318	15774
913.431	15903
913.545	15854
913.659	15956
913.772	15728
913.886	15644
914	15523
914.113	15644
914.226	15770
914.34	15652
914.453	15492
914.566	15656
914.68	15443
914.793	15405
914.906	15313
915.019	15211
915.132	15051
915.245	15199
915.358	15287
915.47	15241
915.583	15142
915.696	15272
915.809	15329
915.921	15230
916.034	15119
916.146	15165
916.259	15127
916.371	15112
916.483	15131
916.595	15009
916.708	15032
916.82	14914
916.932	14944
917.044	14975
917.156	14933
917.268	14842
917.38	14857
917.491	14781
917.603	14861
917.715	14823
917.826	14838
917.938	14781
918.049	14731
918.161	14807
918.272	14902
918.384	14982
918.495	14834
918.606	14552
918.717	14537
918.828	14590
918.939	14659
919.05	14454
919.161	14659
919.272	14415
919.383	14518
919.494	14617
919.604	14788
919.715	14587
919.826	14537
919.936	14537
920.047	14648
920.157	14564
920.267	14731
920.378	14629
920.488	14564
920.598	14678
920.708	14998
920.818	14682
920.928	14686
921.038	14781
921.148	14842
921.258	14526
921.368	14415
921.477	14358
921.587	14298
921.697	14183
921.806	14355
921.916	14206
922.025	14020
922.134	13879
922.244	13887
922.353	14020
922.462	13704
922.571	13841
922.68	13655
922.789	13784
922.898	13578
923.007	13582
923.116	13613
923.224	13597
923.333	13559
923.442	13373
923.55	13346
923.659	13365
923.767	13533
923.876	13445
923.984	13502
924.092	13285
924.201	13316
924.309	13350
924.417	13285
924.525	13202
924.633	13217
924.741	14225
924.849	13103
924.956	13206
925.064	13038
925.172	13038
925.279	12943
925.387	13031
925.494	13015
925.602	13110
925.709	12954
925.816	12871
925.924	12905
926.031	13042
926.138	12920
926.245	12973
926.352	12802
926.459	13019
926.566	13038
926.673	12890
926.779	12719
926.886	12734
926.993	12593
927.099	12692
927.206	12544
927.312	12483
927.419	12673
927.525	12532
927.631	12544
927.737	12410
927.843	12517
927.95	12357
928.056	12380
928.162	12388
928.267	12418
928.373	13095
928.479	12380
928.585	12228
928.69	12353
928.796	12384
928.901	12273
929.007	12114
929.112	12224
929.218	12167
929.323	12155
929.428	12148
929.533	12281
929.638	11992
929.743	12034
929.848	12007
929.953	12038
930.058	11904
930.163	11805
930.267	11828
930.372	11893
930.477	11775
930.581	11931
930.685	11805
930.79	11733
930.894	11707
930.998	11676
931.103	11828
931.207	11520
931.311	11303
931.415	11337
931.519	11064
931.623	10953
