Data from test_V78500241_1326.txt Node
Date: Fri Mar 25 15:19:05 CST 2022
User: usil
Spectrometer: V785-0024
Trigger mode: 0
Integration Time (sec): 4.000000E-1
Scans to average: 1
Nonlinearity correction enabled: false
Boxcar width: 0
Storing dark spectrum: false
XAxis mode: Wavelengths
Number of Pixels in Spectrum: 1024
>>>>>Begin Spectral Data<<<<<
801.071	28166
801.214	28044
801.356	27686
801.499	27701
801.641	27564
801.783	27629
801.926	27614
802.068	27686
802.211	27477
802.353	27492
802.496	27298
802.638	27321
802.78	27359
802.923	27332
803.065	27020
803.208	27089
803.35	27245
803.492	27351
803.635	27378
803.777	27382
803.919	27583
804.061	27671
804.204	27492
804.346	27393
804.488	27397
804.63	27435
804.773	27458
804.915	27572
805.057	27686
805.199	27416
805.341	27583
805.483	27766
805.626	27679
805.768	27572
805.91	27595
806.052	27572
806.194	27492
806.336	27778
806.478	27644
806.62	27808
806.762	27701
806.904	27816
807.046	27991
807.188	28059
807.33	28230
807.472	28143
807.614	27937
807.756	28074
807.898	28006
808.04	27835
808.182	27918
808.324	27949
808.465	27987
808.607	28154
808.749	28261
808.891	28371
809.033	28280
809.174	28306
809.316	28166
809.458	28219
809.6	28185
809.741	28246
809.883	28417
810.025	28554
810.166	28675
810.308	28538
810.45	28508
810.591	28379
810.733	28390
810.875	28265
811.016	28185
811.158	28272
811.299	28386
811.441	28413
811.582	28390
811.724	28310
811.865	28242
812.007	28306
812.148	28238
812.29	28211
812.431	28550
812.573	28653
812.714	28820
812.855	28755
812.997	28927
813.138	29025
813.279	28873
813.421	28820
813.562	28866
813.703	28710
813.845	28489
813.986	28276
814.127	28166
814.268	28048
814.41	27934
814.551	27895
814.692	28070
814.833	27991
814.974	27930
815.115	28105
815.256	27694
815.397	27846
815.539	27838
815.68	27747
815.821	27732
815.962	27736
816.103	27739
816.244	27458
816.385	27618
816.526	27564
816.666	27317
816.807	27302
816.948	27294
817.089	27260
817.23	27348
817.371	27317
817.512	27268
817.653	27287
817.793	27123
817.934	27355
818.075	27374
818.216	27408
818.356	27298
818.497	27062
818.638	27074
818.778	27017
818.919	27047
819.06	27230
819.2	27188
819.341	27199
819.481	27241
819.622	27397
819.762	27663
819.903	27519
820.043	27572
820.184	27450
820.324	27382
820.465	27538
820.605	27473
820.746	27317
820.886	27195
821.026	27237
821.167	27317
821.307	27477
821.447	27405
821.588	27131
821.728	26956
821.868	26811
822.008	26724
822.149	26746
822.289	26705
822.429	26362
822.569	26362
822.709	26427
822.849	26305
822.99	26252
823.13	26317
823.27	26145
823.41	26195
823.55	25963
823.69	26119
823.83	26119
823.97	26008
824.11	25799
824.25	25925
824.389	25921
824.529	25909
824.669	25852
824.809	25993
824.949	26043
825.089	25974
825.228	26050
825.368	25769
825.508	25700
825.648	25719
825.787	25951
825.927	25906
826.067	25761
826.206	25586
826.346	25887
826.485	25769
826.625	25639
826.765	25875
826.904	25917
827.044	25521
827.183	25552
827.323	25537
827.462	25601
827.601	25362
827.741	25434
827.88	25506
828.02	25301
828.159	25415
828.298	25350
828.437	25548
828.577	25422
828.716	25479
828.855	25289
828.994	25164
829.134	25251
829.273	25152
829.412	25285
829.551	25114
829.69	25118
829.829	25160
829.968	25278
830.107	25198
830.246	25183
830.385	25065
830.524	25038
830.663	25004
830.802	24897
830.941	24757
831.08	24776
831.219	24806
831.357	24913
831.496	25072
831.635	24715
831.774	24631
831.913	24741
832.051	24570
832.19	24509
832.329	24547
832.467	24544
832.606	24460
832.744	24410
832.883	24338
833.022	24566
833.16	24403
833.299	24521
833.437	24414
833.576	24654
833.714	24467
833.852	24566
833.991	24498
834.129	24745
834.267	24563
834.406	24528
834.544	24525
834.682	24498
834.821	24555
834.959	24734
835.097	24464
835.235	24555
835.373	24544
835.511	24445
835.65	24292
835.788	24429
835.926	24334
836.064	24266
836.202	24251
836.34	24403
836.478	24498
836.615	24281
836.753	24289
836.891	24544
837.029	24346
837.167	24460
837.305	24270
837.443	24277
837.58	24270
837.718	24163
837.856	24239
837.993	24095
838.131	24182
838.269	24144
838.406	24095
838.544	24121
838.681	23863
838.819	23901
838.956	23779
839.094	23646
839.231	23623
839.369	23901
839.506	24064
839.643	23931
839.781	23707
839.918	23687
840.055	23623
840.193	23707
840.33	23520
840.467	23627
840.604	23676
840.742	23882
840.879	23429
841.016	23322
841.153	23440
841.29	23741
841.427	23452
841.564	23524
841.701	23600
841.838	23531
841.975	23395
842.112	23509
842.249	23360
842.385	23273
842.522	23524
842.659	23501
842.796	23292
842.933	23280
843.069	23258
843.206	23337
843.343	23402
843.479	23402
843.616	23353
843.752	23071
843.889	23033
844.025	23349
844.162	22957
844.298	23216
844.435	23079
844.571	23178
844.708	23162
844.844	23265
844.98	23162
845.117	23242
845.253	22995
845.389	22949
845.525	22999
845.661	22911
845.798	22710
845.934	22885
846.07	22706
846.206	22900
846.342	22942
846.478	22786
846.614	22713
846.75	22519
846.886	22485
847.022	22656
847.158	22508
847.294	22599
847.429	22698
847.565	22535
847.701	22816
847.837	22356
847.972	22219
848.108	22447
848.244	22386
848.379	22215
848.515	22314
848.65	22185
848.786	22082
848.921	22173
849.057	22265
849.192	22261
849.328	22325
849.463	22105
849.598	22074
849.734	21987
849.869	22013
850.004	21899
850.14	22074
850.275	21876
850.41	21884
850.545	21915
850.68	21823
850.815	21922
850.95	21983
851.085	21945
851.22	21960
851.355	21945
851.49	21854
851.625	21930
851.76	21876
851.895	21827
852.03	21797
852.165	21899
852.299	21956
852.434	22025
852.569	21991
852.703	21956
852.838	21907
852.973	22074
853.107	21998
853.242	21884
853.376	21854
853.511	21717
853.645	21808
853.78	21812
853.914	21732
854.048	21785
854.183	21785
854.317	21812
854.451	21861
854.585	21804
854.72	21656
854.854	21766
854.988	21675
855.122	21808
855.256	21663
855.39	21614
855.524	21827
855.658	21911
855.792	21789
855.926	21781
856.06	21793
856.194	21781
856.327	21743
856.461	21793
856.595	21838
856.729	21736
856.862	21884
856.996	21804
857.13	21918
857.263	21934
857.397	21819
857.53	21778
857.664	21739
857.797	21926
857.931	21964
858.064	21728
858.197	21949
858.331	21831
858.464	21728
858.597	21610
858.731	21789
858.864	21766
858.997	21667
859.13	21808
859.263	21774
859.396	21854
859.529	21728
859.662	21732
859.795	21724
859.928	21857
860.061	22067
860.194	21956
860.327	21899
860.46	21831
860.592	21857
860.725	21854
860.858	21869
860.99	21679
861.123	21675
861.256	21793
861.388	21812
861.521	22440
861.653	21644
861.786	21511
861.918	21561
862.05	21599
862.183	21743
862.315	21774
862.447	21778
862.58	21690
862.712	21564
862.844	21538
862.976	21576
863.108	21534
863.24	21899
863.372	21458
863.504	21443
863.636	21507
863.768	21572
863.9	21507
864.032	21405
864.164	21412
864.296	21477
864.428	21469
864.559	21614
864.691	21526
864.823	21439
864.954	21428
865.086	21454
865.217	21428
865.349	21397
865.48	21325
865.612	21332
865.743	21500
865.875	21496
866.006	21374
866.137	21370
866.269	21382
866.4	21340
866.531	21321
866.662	21310
866.793	21180
866.924	21233
867.055	21222
867.186	21275
867.317	21184
867.448	21325
867.579	21241
867.71	21096
867.841	21256
867.972	21340
868.103	21272
868.233	21325
868.364	21260
868.495	21367
868.625	21435
868.756	21591
868.886	21435
869.017	21519
869.147	21614
869.278	21682
869.408	21610
869.539	21591
869.669	21576
869.799	21511
869.929	21652
870.06	21504
870.19	21846
870.32	21781
870.45	21835
870.58	21930
870.71	22109
870.84	22086
870.97	21884
871.1	21865
871.23	22128
871.36	22097
871.489	21987
871.619	22086
871.749	22120
871.879	22196
872.008	22238
872.138	22185
872.267	22105
872.397	21934
872.526	21960
872.656	22032
872.785	21880
872.915	22150
873.044	22158
873.173	22120
873.303	22173
873.432	22249
873.561	22261
873.69	22086
873.819	22166
873.948	22257
874.077	22173
874.206	22051
874.335	22185
874.464	22181
874.593	22382
874.722	22466
874.851	22424
874.979	22329
875.108	22303
875.237	22249
875.365	22234
875.494	22386
875.623	22325
875.751	22246
875.88	22379
876.008	22455
876.136	22497
876.265	22729
876.393	22854
876.521	22881
876.65	22858
876.778	22774
876.906	22733
877.034	22736
877.162	22645
877.29	22850
877.418	22717
877.546	22710
877.674	22573
877.802	22710
877.93	22630
878.058	22850
878.185	22523
878.313	22668
878.441	22618
878.568	22519
878.696	22580
878.824	22656
878.951	22740
879.079	22847
879.206	22965
879.333	22885
879.461	22702
879.588	22793
879.715	22778
879.842	23014
879.97	22710
880.097	22527
880.224	22409
880.351	22489
880.478	22512
880.605	22371
880.732	22466
880.859	22675
880.986	22447
881.112	22596
881.239	22379
881.366	22299
881.493	22295
881.619	22051
881.746	22124
881.872	22040
881.999	22139
882.125	21926
882.252	22169
882.378	22029
882.505	22139
882.631	21945
882.757	21861
882.883	21945
883.01	21762
883.136	21835
883.262	21648
883.388	21694
883.514	21762
883.64	21781
883.766	21663
883.892	21507
884.018	21591
884.143	21698
884.269	21857
884.395	21580
884.52	21355
884.646	21447
884.772	21329
884.897	21344
885.023	21469
885.148	21485
885.274	21648
885.399	21515
885.524	21420
885.65	21416
885.775	21348
885.9	21298
886.025	21530
886.15	21466
886.275	21344
886.4	21367
886.525	21401
886.65	21283
886.775	21310
886.9	21622
887.025	21720
887.149	21245
887.274	21169
887.399	21180
887.523	21180
887.648	21146
887.773	21096
887.897	21089
888.021	21287
888.146	21184
888.27	21226
888.395	21317
888.519	21245
888.643	21268
888.767	21272
888.891	21077
889.015	21123
889.139	20944
889.263	20918
889.387	20941
889.511	21192
889.635	21093
889.759	21074
889.883	21020
890.006	21066
890.13	21104
890.254	20773
890.377	20811
890.501	20743
890.624	20708
890.748	20785
890.871	20575
890.995	20617
891.118	20461
891.241	20617
891.364	20564
891.488	20659
891.611	20712
891.734	20465
891.857	20651
891.98	20568
892.103	20629
892.226	20526
892.349	20404
892.471	20442
892.594	20461
892.717	20530
892.839	20423
892.962	20454
893.085	20518
893.207	20480
893.33	20305
893.452	20324
893.575	20450
893.697	20442
893.819	20644
893.941	20571
894.064	20583
894.186	20358
894.308	20351
894.43	20541
894.552	20727
894.674	20476
894.796	20294
894.918	20332
895.04	20404
895.161	20541
895.283	20393
895.405	20404
895.526	20461
895.648	20549
895.769	20454
895.891	20473
896.012	20511
896.134	20408
896.255	20431
896.376	20324
896.498	20419
896.619	20434
896.74	20457
896.861	20526
896.982	20727
897.103	20902
897.224	20773
897.345	20609
897.466	20537
897.587	20579
897.708	20868
897.828	20724
897.949	20583
898.07	20393
898.19	20545
898.311	20735
898.431	20526
898.552	20514
898.672	20750
898.792	20632
898.913	20682
899.033	20522
899.153	20495
899.273	20328
899.393	20301
899.513	20503
899.633	20355
899.753	20389
899.873	20377
899.993	20473
900.113	20339
900.232	20252
900.352	20229
900.472	20172
900.591	20214
900.711	20161
900.83	20107
900.95	20214
901.069	20191
901.189	20107
901.308	19738
901.427	19605
901.546	19696
901.665	19738
901.784	19750
901.904	19624
902.023	19601
902.141	19282
902.26	19320
902.379	19343
902.498	19225
902.617	19152
902.735	19316
902.854	19244
902.973	19118
903.091	18920
903.21	18901
903.328	18882
903.446	18798
903.565	18589
903.683	18642
903.801	18642
903.919	18604
904.038	18585
904.156	18479
904.274	18460
904.392	18486
904.51	18528
904.627	18327
904.745	18429
904.863	18544
904.981	18315
905.098	18171
905.216	18083
905.334	18140
905.451	18102
905.569	18182
905.686	18224
905.803	18194
905.921	17954
906.038	18015
906.155	18041
906.272	17824
906.389	17802
906.506	17638
906.623	17733
906.74	17634
906.857	17547
906.974	17558
907.091	17745
907.208	17779
907.324	17817
907.441	17543
907.557	17425
907.674	17387
907.79	17398
907.907	17372
908.023	17417
908.139	17414
908.256	17341
908.372	17258
908.488	17311
908.604	17231
908.72	17121
908.836	17162
908.952	17052
909.068	17094
909.184	17197
909.3	17193
909.415	17121
909.531	17109
909.647	16915
909.762	16900
909.878	16824
909.993	16721
910.108	16774
910.224	16740
910.339	16774
910.454	16656
910.57	16710
910.685	16527
910.8	16805
910.915	16801
911.03	16554
911.145	16421
911.259	16523
911.374	16447
911.489	16375
911.604	16257
911.718	16181
911.833	16169
911.947	16036
912.062	15964
912.176	16067
912.291	16131
912.405	16112
912.519	16215
912.633	16306
912.748	16032
912.862	16048
912.976	16036
913.09	15827
913.204	15934
913.318	16025
913.431	15956
913.545	16032
913.659	16032
913.772	15930
913.886	15667
914	15876
914.113	15903
914.226	15876
914.34	15899
914.453	15644
914.566	15819
914.68	15561
914.793	15614
914.906	15458
915.019	15443
915.132	15344
915.245	15264
915.358	15359
915.47	15332
915.583	15355
915.696	15351
915.809	15405
915.921	15431
916.034	15287
916.146	15173
916.259	15237
916.371	15351
916.483	15344
916.595	15188
916.708	15161
916.82	15100
916.932	15161
917.044	15020
917.156	15104
917.268	15066
917.38	14941
917.491	14948
917.603	15062
917.715	15116
917.826	15074
917.938	14956
918.049	14769
918.161	15051
918.272	15032
918.384	15051
918.495	14960
918.606	14765
918.717	14716
918.828	14842
918.939	14773
919.05	14735
919.161	14727
919.272	14511
919.383	14644
919.494	14644
919.604	15036
919.715	14659
919.826	14621
919.936	14674
920.047	14693
920.157	14590
920.267	14910
920.378	14743
920.488	14705
920.598	14906
920.708	14937
920.818	14792
920.928	14735
921.038	14982
921.148	14933
921.258	14708
921.368	14564
921.477	14389
921.587	14419
921.697	14332
921.806	14393
921.916	14263
922.025	14221
922.134	14073
922.244	14050
922.353	14157
922.462	13928
922.571	13864
922.68	13712
922.789	13666
922.898	13738
923.007	13685
923.116	13666
923.224	13772
923.333	13685
923.442	13597
923.55	13502
923.659	13548
923.767	13544
923.876	13468
923.984	13586
924.092	13434
924.201	13518
924.309	13476
924.417	13468
924.525	13441
924.633	13346
924.741	14305
924.849	13202
924.956	13293
925.064	13194
925.172	13095
925.279	13149
925.387	13190
925.494	13069
925.602	13312
925.709	13168
925.816	13027
925.924	12973
926.031	13099
926.138	13031
926.245	13031
926.352	13000
926.459	13076
926.566	13133
926.673	13053
926.779	12909
926.886	12954
926.993	12776
927.099	12719
927.206	12604
927.312	12639
927.419	12635
927.525	12654
927.631	12684
927.737	12532
927.843	12578
927.95	12388
928.056	12566
928.162	12506
928.267	12521
928.373	13145
928.479	12460
928.585	12304
928.69	12418
928.796	12475
928.901	12315
929.007	12190
929.112	12258
929.218	12369
929.323	12182
929.428	12213
929.533	12304
929.638	12178
929.743	12159
929.848	12186
929.953	12136
930.058	12038
930.163	11855
930.267	11988
930.372	12110
930.477	11805
930.581	12114
930.685	11912
930.79	11863
930.894	11897
930.998	11680
931.103	11912
931.207	11436
931.311	11543
931.415	11414
931.519	11162
931.623	11143
