Data from test_V78500241_1760.txt Node
Date: Fri Mar 25 15:22:06 CST 2022
User: usil
Spectrometer: V785-0024
Trigger mode: 0
Integration Time (sec): 4.000000E-1
Scans to average: 1
Nonlinearity correction enabled: false
Boxcar width: 0
Storing dark spectrum: false
XAxis mode: Wavelengths
Number of Pixels in Spectrum: 1024
>>>>>Begin Spectral Data<<<<<
801.071	27949
801.214	27762
801.356	27572
801.499	27469
801.641	27424
801.783	27435
801.926	27576
802.068	27374
802.211	27443
802.353	27230
802.496	27123
802.638	27047
802.78	27150
802.923	27108
803.065	27036
803.208	27169
803.35	27104
803.492	27218
803.635	27313
803.777	27207
803.919	27378
804.061	27496
804.204	27454
804.346	27298
804.488	27302
804.63	27249
804.773	27142
804.915	27386
805.057	27351
805.199	27237
805.341	27450
805.483	27435
805.626	27351
805.768	27367
805.91	27450
806.052	27538
806.194	27424
806.336	27405
806.478	27348
806.62	27336
806.762	27610
806.904	27720
807.046	27926
807.188	27899
807.33	27918
807.472	27964
807.614	27865
807.756	27747
807.898	27747
808.04	27793
808.182	27591
808.324	27709
808.465	27846
808.607	27854
808.749	28181
808.891	28040
809.033	28017
809.174	28070
809.316	28013
809.458	28055
809.6	27994
809.741	28139
809.883	28166
810.025	28413
810.166	28398
810.308	28310
810.45	28409
810.591	28109
810.733	28067
810.875	28105
811.016	27899
811.158	27895
811.299	28074
811.441	28272
811.582	28215
811.724	27991
811.865	28010
812.007	27964
812.148	27983
812.29	28097
812.431	28295
812.573	28360
812.714	28542
812.855	28497
812.997	28679
813.138	28710
813.279	28660
813.421	28675
813.562	28565
813.703	28440
813.845	28223
813.986	28048
814.127	27857
814.268	27899
814.41	27641
814.551	27709
814.692	27709
814.833	27618
814.974	27667
815.115	27785
815.256	27614
815.397	27603
815.539	27690
815.68	27439
815.821	27538
815.962	27473
816.103	27583
816.244	27348
816.385	27416
816.526	27431
816.666	27138
816.807	26929
816.948	27214
817.089	27218
817.23	26925
817.371	27013
817.512	27013
817.653	27043
817.793	26883
817.934	27028
818.075	27089
818.216	26990
818.356	27005
818.497	26792
818.638	26819
818.778	26701
818.919	26743
819.06	26868
819.2	26948
819.341	27085
819.481	27066
819.622	27180
819.762	27500
819.903	27283
820.043	27291
820.184	27138
820.324	27203
820.465	27230
820.605	27211
820.746	27085
820.886	26929
821.026	27138
821.167	27028
821.307	27199
821.447	26994
821.588	27028
821.728	26811
821.868	26720
822.008	26602
822.149	26457
822.289	26469
822.429	26317
822.569	26130
822.709	26100
822.849	26172
822.99	26008
823.13	26020
823.27	25917
823.41	25761
823.55	25731
823.69	25818
823.83	25875
823.97	25799
824.11	25616
824.25	25704
824.389	25655
824.529	25651
824.669	25616
824.809	25681
824.949	25715
825.089	25723
825.228	25647
825.368	25453
825.508	25514
825.648	25556
825.787	25632
825.927	25658
826.067	25449
826.206	25548
826.346	25582
826.485	25556
826.625	25563
826.765	25693
826.904	25590
827.044	25259
827.183	25217
827.323	25282
827.462	25365
827.601	25255
827.741	25236
827.88	25335
828.02	25244
828.159	25274
828.298	25221
828.437	25331
828.577	25244
828.716	25373
828.855	25259
828.994	25038
829.134	24981
829.273	25065
829.412	24913
829.551	25050
829.69	24947
829.829	24954
829.968	25000
830.107	25103
830.246	25129
830.385	24951
830.524	24894
830.663	24776
830.802	24745
830.941	24684
831.08	24532
831.219	24559
831.357	24753
831.496	24962
831.635	24517
831.774	24551
831.913	24353
832.051	24350
832.19	24350
832.329	24407
832.467	24441
832.606	24281
832.744	24228
832.883	24273
833.022	24186
833.16	24266
833.299	24205
833.437	24300
833.576	24247
833.714	24342
833.852	24429
833.991	24502
834.129	24327
834.267	24353
834.406	24357
834.544	24418
834.682	24270
834.821	24300
834.959	24353
835.097	24350
835.235	24452
835.373	24407
835.511	24273
835.65	24121
835.788	24247
835.926	24163
836.064	24064
836.202	23923
836.34	24194
836.478	24262
836.615	24087
836.753	24144
836.891	24197
837.029	24369
837.167	24076
837.305	23996
837.443	24057
837.58	24114
837.718	24102
837.856	24079
837.993	23904
838.131	23977
838.269	23961
838.406	23935
838.544	23821
838.681	23665
838.819	23627
838.956	23554
839.094	23562
839.231	23570
839.369	23745
839.506	23950
839.643	23790
839.781	23501
839.918	23452
840.055	23417
840.193	23410
840.33	23315
840.467	23387
840.604	23379
840.742	23737
840.879	23223
841.016	23345
841.153	23261
841.29	23429
841.427	23303
841.564	23459
841.701	23258
841.838	23341
841.975	23288
842.112	23349
842.249	23162
842.385	23140
842.522	23296
842.659	23143
842.796	23067
842.933	23299
843.069	23132
843.206	23098
843.343	23273
843.479	23178
843.616	23227
843.752	22908
843.889	22934
844.025	23037
844.162	22908
844.298	23056
844.435	23006
844.571	22869
844.708	22961
844.844	23185
844.98	22957
845.117	22965
845.253	22862
845.389	22736
845.525	22736
845.661	22839
845.798	22478
845.934	22729
846.07	22645
846.206	22664
846.342	22946
846.478	22645
846.614	22489
846.75	22386
846.886	22314
847.022	22481
847.158	22424
847.294	22455
847.429	22337
847.565	22367
847.701	22660
847.837	22181
847.972	22093
848.108	22253
848.244	22284
848.379	22074
848.515	22086
848.65	21922
848.786	21911
848.921	21972
849.057	22067
849.192	21930
849.328	22048
849.463	22055
849.598	21918
849.734	21793
849.869	21743
850.004	21816
850.14	21747
850.275	21747
850.41	21755
850.545	21667
850.68	21797
850.815	21781
850.95	21774
851.085	22006
851.22	21888
851.355	21698
851.49	21720
851.625	21660
851.76	21698
851.895	21637
852.03	21728
852.165	21724
852.299	21922
852.434	21781
852.569	21705
852.703	21698
852.838	21717
852.973	21895
853.107	21937
853.242	21720
853.376	21625
853.511	21473
853.645	21530
853.78	21690
853.914	21610
854.048	21603
854.183	21485
854.317	21526
854.451	21743
854.585	21679
854.72	21622
854.854	21583
854.988	21519
855.122	21717
855.256	21443
855.39	21583
855.524	21644
855.658	21663
855.792	21553
855.926	21625
856.06	21618
856.194	21629
856.327	21576
856.461	21439
856.595	21591
856.729	21549
856.862	21652
856.996	21523
857.13	21701
857.263	21591
857.397	21564
857.53	21545
857.664	21637
857.797	21603
857.931	21743
858.064	21526
858.197	21675
858.331	21382
858.464	21496
858.597	21538
858.731	21568
858.864	21656
858.997	21447
859.13	21485
859.263	21561
859.396	21663
859.529	21637
859.662	21458
859.795	21576
859.928	21603
860.061	21625
860.194	21747
860.327	21728
860.46	21530
860.592	21762
860.725	21724
860.858	21682
860.99	21599
861.123	21397
861.256	21408
861.388	21523
861.521	22169
861.653	21428
861.786	21306
861.918	21389
862.05	21458
862.183	21530
862.315	21542
862.447	21568
862.58	21481
862.712	21310
862.844	21230
862.976	21389
863.108	21382
863.24	21656
863.372	21237
863.504	21291
863.636	21252
863.768	21321
863.9	21272
864.032	21249
864.164	21268
864.296	21275
864.428	21332
864.559	21382
864.691	21329
864.823	21230
864.954	21226
865.086	21207
865.217	21184
865.349	21108
865.48	21199
865.612	21237
865.743	21306
865.875	21165
866.006	21119
866.137	21199
866.269	21100
866.4	21100
866.531	21096
866.662	20948
866.793	21081
866.924	21165
867.055	21081
867.186	21085
867.317	21173
867.448	20921
867.579	21131
867.71	20933
867.841	21043
867.972	21009
868.103	21138
868.233	21108
868.364	21070
868.495	21268
868.625	21321
868.756	21488
868.886	21370
869.017	21386
869.147	21447
869.278	21485
869.408	21359
869.539	21241
869.669	21530
869.799	21401
869.929	21382
870.06	21462
870.19	21603
870.32	21587
870.45	21644
870.58	21705
870.71	21774
870.84	21762
870.97	21804
871.1	21793
871.23	21854
871.36	21991
871.489	21888
871.619	21865
871.749	21895
871.879	22017
872.008	22032
872.138	22036
872.267	21953
872.397	21804
872.526	21766
872.656	21854
872.785	21690
872.915	21831
873.044	22010
873.173	21934
873.303	22013
873.432	21941
873.561	22105
873.69	22036
873.819	21972
873.948	22078
874.077	21991
874.206	21972
874.335	21865
874.464	21994
874.593	22200
874.722	22185
874.851	22295
874.979	22215
875.108	22234
875.237	22169
875.365	22154
875.494	22169
875.623	22188
875.751	22032
875.88	22234
876.008	22352
876.136	22382
876.265	22512
876.393	22634
876.521	22588
876.65	22618
876.778	22481
876.906	22436
877.034	22519
877.162	22428
877.29	22497
877.418	22592
877.546	22516
877.674	22497
877.802	22565
877.93	22462
878.058	22500
878.185	22318
878.313	22535
878.441	22478
878.568	22398
878.696	22432
878.824	22668
878.951	22645
879.079	22710
879.206	22630
879.333	22634
879.461	22649
879.588	22500
879.715	22793
879.842	22752
879.97	22588
880.097	22341
880.224	22344
880.351	22466
880.478	22379
880.605	22360
880.732	22367
880.859	22618
880.986	22424
881.112	22382
881.239	22196
881.366	22128
881.493	22048
881.619	21960
881.746	21873
881.872	21960
881.999	21770
882.125	21827
882.252	21953
882.378	21903
882.505	22051
882.631	21781
882.757	21679
882.883	21663
883.01	21690
883.136	21667
883.262	21553
883.388	21435
883.514	21595
883.64	21629
883.766	21485
883.892	21329
884.018	21401
884.143	21481
884.269	21660
884.395	21340
884.52	21317
884.646	21382
884.772	21245
884.897	21173
885.023	21230
885.148	21336
885.274	21424
885.399	21260
885.524	21291
885.65	21321
885.775	21382
885.9	21268
886.025	21370
886.15	21340
886.275	21211
886.4	21157
886.525	21393
886.65	21214
886.775	21077
886.9	21370
887.025	21389
887.149	21230
887.274	21005
887.399	20956
887.523	21070
887.648	21074
887.773	20815
887.897	21058
888.021	21180
888.146	21024
888.27	21081
888.395	21169
888.519	20990
888.643	21066
888.767	21055
888.891	20986
889.015	20853
889.139	20941
889.263	20830
889.387	21043
889.511	21127
889.635	20887
889.759	20765
889.883	20788
890.006	20746
890.13	20895
890.254	20716
890.377	20788
890.501	20514
890.624	20533
890.748	20575
890.871	20396
890.995	20396
891.118	20336
891.241	20389
891.364	20404
891.488	20511
891.611	20396
891.734	20309
891.857	20450
891.98	20358
892.103	20545
892.226	20454
892.349	20339
892.471	20176
892.594	20290
892.717	20290
892.839	20278
892.962	20259
893.085	20332
893.207	20229
893.33	20069
893.452	20263
893.575	20301
893.697	20248
893.819	20412
893.941	20431
894.064	20522
894.186	20271
894.308	20107
894.43	20362
894.552	20389
894.674	20385
894.796	20111
894.918	20225
895.04	20187
895.161	20290
895.283	20339
895.405	20183
895.526	20286
895.648	20218
895.769	20294
895.891	20278
896.012	20355
896.134	20366
896.255	20328
896.376	20278
896.498	20294
896.619	20336
896.74	20328
896.861	20351
896.982	20568
897.103	20800
897.224	20446
897.345	20522
897.466	20339
897.587	20495
897.708	20503
897.828	20613
897.949	20351
898.07	20351
898.19	20396
898.311	20590
898.431	20370
898.552	20465
898.672	20541
898.792	20606
898.913	20488
899.033	20400
899.153	20259
899.273	20267
899.393	20347
899.513	20298
899.633	20237
899.753	20256
899.873	20035
899.993	20263
900.113	20149
900.232	20263
900.352	20107
900.472	19989
900.591	19864
900.711	19959
900.83	19982
900.95	19951
901.069	20092
901.189	19894
901.308	19662
901.427	19567
901.546	19537
901.665	19655
901.784	19582
901.904	19483
902.023	19358
902.141	19103
902.26	19103
902.379	19072
902.498	19145
902.617	19023
902.735	19213
902.854	19027
902.973	19004
903.091	18730
903.21	18700
903.328	18726
903.446	18631
903.565	18677
903.683	18547
903.801	18399
903.919	18563
904.038	18490
904.156	18369
904.274	18445
904.392	18365
904.51	18289
904.627	18304
904.745	18357
904.863	18346
904.981	18163
905.098	18011
905.216	18038
905.334	18038
905.451	18057
905.569	17893
905.686	18038
905.803	17935
905.921	17855
906.038	17958
906.155	17828
906.272	17752
906.389	17737
906.506	17676
906.623	17528
906.74	17539
906.857	17398
906.974	17493
907.091	17554
907.208	17615
907.324	17608
907.441	17497
907.557	17383
907.674	17254
907.79	17261
907.907	17254
908.023	17265
908.139	17292
908.256	17159
908.372	17220
908.488	17147
908.604	17121
908.72	16965
908.836	16942
908.952	16957
909.068	17033
909.184	16999
909.3	17067
909.415	16938
909.531	16915
909.647	16793
909.762	16729
909.878	16641
909.993	16675
910.108	16630
910.224	16618
910.339	16656
910.454	16508
910.57	16462
910.685	16474
910.8	16713
910.915	16603
911.03	16470
911.145	16219
911.259	16246
911.374	16318
911.489	16215
911.604	16150
911.718	16055
911.833	15918
911.947	15876
912.062	15838
912.176	15964
912.291	15998
912.405	15975
912.519	16185
912.633	16177
912.748	16048
912.862	15930
912.976	15781
913.09	15732
913.204	15842
913.318	15915
913.431	15953
913.545	15968
913.659	15945
913.772	15797
913.886	15679
914	15641
914.113	15709
914.226	15739
914.34	15663
914.453	15458
914.566	15637
914.68	15485
914.793	15614
914.906	15279
915.019	15321
915.132	15222
915.245	15340
915.358	15355
915.47	15233
915.583	15169
915.696	15237
915.809	15310
915.921	15378
916.034	15203
916.146	15184
916.259	15066
916.371	15138
916.483	15123
916.595	15036
916.708	15119
916.82	15074
916.932	15032
917.044	14967
917.156	14994
917.268	14887
917.38	14899
917.491	14800
917.603	14777
917.715	14853
917.826	14986
917.938	14826
918.049	14686
918.161	14819
918.272	14975
918.384	14910
918.495	14826
918.606	14682
918.717	14655
918.828	14617
918.939	14686
919.05	14473
919.161	14530
919.272	14358
919.383	14457
919.494	14575
919.604	14811
919.715	14644
919.826	14488
919.936	14625
920.047	14705
920.157	14552
920.267	14758
920.378	14522
920.488	14610
920.598	14792
920.708	14948
920.818	14693
920.928	14758
921.038	14842
921.148	14853
921.258	14434
921.368	14495
921.477	14355
921.587	14355
921.697	14180
921.806	14282
921.916	14221
922.025	13989
922.134	13982
922.244	13951
922.353	13913
922.462	13887
922.571	13712
922.68	13670
922.789	13632
922.898	13559
923.007	13586
923.116	13613
923.224	13677
923.333	13487
923.442	13476
923.55	13403
923.659	13544
923.767	13540
923.876	13343
923.984	13491
924.092	13259
924.201	13438
924.309	13346
924.417	13419
924.525	13225
924.633	13312
924.741	14012
924.849	13042
924.956	13225
925.064	13050
925.172	12947
925.279	12924
925.387	13050
925.494	13031
925.602	13114
925.709	12920
925.816	12989
925.924	12970
926.031	13095
926.138	12951
926.245	13053
926.352	12894
926.459	13042
926.566	13122
926.673	12829
926.779	12760
926.886	12722
926.993	12665
927.099	12585
927.206	12506
927.312	12528
927.419	12616
927.525	12486
927.631	12563
927.737	12471
927.843	12403
927.95	12289
928.056	12414
928.162	12460
928.267	12513
928.373	13019
928.479	12490
928.585	12304
928.69	12391
928.796	12399
928.901	12178
929.007	12155
929.112	12315
929.218	12209
929.323	12201
929.428	12144
929.533	12266
929.638	12064
929.743	12098
929.848	12045
929.953	12064
930.058	12060
930.163	11836
930.267	11847
930.372	11908
930.477	11775
930.581	12022
930.685	11821
930.79	11707
930.894	11790
930.998	11623
931.103	11836
931.207	11414
931.311	11337
931.415	11296
931.519	11075
931.623	11162
