Data from test_V78500241_155.txt Node
Date: Fri Mar 25 15:10:56 CST 2022
User: usil
Spectrometer: V785-0024
Trigger mode: 0
Integration Time (sec): 4.000000E-1
Scans to average: 1
Nonlinearity correction enabled: false
Boxcar width: 0
Storing dark spectrum: false
XAxis mode: Wavelengths
Number of Pixels in Spectrum: 1024
>>>>>Begin Spectral Data<<<<<
801.071	27964
801.214	27835
801.356	27728
801.499	27713
801.641	27408
801.783	27469
801.926	27599
802.068	27462
802.211	27447
802.353	27329
802.496	27116
802.638	26998
802.78	27161
802.923	27100
803.065	27043
803.208	27058
803.35	26986
803.492	27203
803.635	27389
803.777	27070
803.919	27268
804.061	27576
804.204	27195
804.346	27112
804.488	27108
804.63	27192
804.773	27112
804.915	27074
805.057	27165
805.199	27096
805.341	27203
805.483	27211
805.626	27211
805.768	27207
805.91	27264
806.052	27222
806.194	27058
806.336	27500
806.478	27150
806.62	27116
806.762	27287
806.904	27576
807.046	27648
807.188	27553
807.33	27694
807.472	27633
807.614	27633
807.756	27561
807.898	27416
808.04	27450
808.182	27466
808.324	27382
808.465	27538
808.607	27587
808.749	27629
808.891	27987
809.033	28036
809.174	27812
809.316	27793
809.458	27861
809.6	27728
809.741	27728
809.883	27907
810.025	28029
810.166	28074
810.308	28059
810.45	28032
810.591	27911
810.733	27831
810.875	27610
811.016	27507
811.158	27599
811.299	27865
811.441	27892
811.582	27785
811.724	27770
811.865	27747
812.007	27694
812.148	27736
812.29	27739
812.431	27892
812.573	28067
812.714	28029
812.855	28215
812.997	28325
813.138	28493
813.279	28333
813.421	28257
813.562	28207
813.703	28063
813.845	27964
813.986	27564
814.127	27382
814.268	27397
814.41	27439
814.551	27378
814.692	27348
814.833	27214
814.974	27325
815.115	27427
815.256	27264
815.397	27199
815.539	27169
815.68	27165
815.821	27089
815.962	26990
816.103	27085
816.244	26948
816.385	26815
816.526	26811
816.666	26663
816.807	26629
816.948	26682
817.089	26716
817.23	26514
817.371	26602
817.512	26495
817.653	26514
817.793	26438
817.934	26415
818.075	26518
818.216	26545
818.356	26385
818.497	26362
818.638	26210
818.778	26214
818.919	26046
819.06	26294
819.2	26214
819.341	26450
819.481	26442
819.622	26648
819.762	26788
819.903	26571
820.043	26701
820.184	26450
820.324	26556
820.465	26526
820.605	26575
820.746	26530
820.886	26301
821.026	26564
821.167	26545
821.307	26541
821.447	26309
821.588	26324
821.728	26168
821.868	26225
822.008	25841
822.149	25917
822.289	25906
822.429	25795
822.569	25651
822.709	25434
822.849	25445
822.99	25335
823.13	25293
823.27	25297
823.41	25129
823.55	25019
823.69	25152
823.83	25187
823.97	25263
824.11	25034
824.25	24935
824.389	25008
824.529	25065
824.669	25110
824.809	25080
824.949	25004
825.089	25141
825.228	25133
825.368	24817
825.508	24844
825.648	24863
825.787	24833
825.927	24875
826.067	24730
826.206	24859
826.346	24837
826.485	24901
826.625	24932
826.765	24916
826.904	24738
827.044	24688
827.183	24547
827.323	24460
827.462	24513
827.601	24471
827.741	24532
827.88	24589
828.02	24414
828.159	24471
828.298	24601
828.437	24540
828.577	24517
828.716	24445
828.855	24251
828.994	24117
829.134	24205
829.273	24292
829.412	24148
829.551	24106
829.69	24220
829.829	24209
829.968	24209
830.107	24167
830.246	24235
830.385	24140
830.524	24079
830.663	23961
830.802	23882
830.941	23577
831.08	23615
831.219	23889
831.357	23733
831.496	23885
831.635	23657
831.774	23630
831.913	23577
832.051	23592
832.19	23478
832.329	23558
832.467	23391
832.606	23353
832.744	23212
832.883	23425
833.022	23356
833.16	23254
833.299	23410
833.437	23444
833.576	23414
833.714	23299
833.852	23459
833.991	23425
834.129	23573
834.267	23372
834.406	23376
834.544	23421
834.682	23372
834.821	23246
834.959	23543
835.097	23341
835.235	23478
835.373	23280
835.511	23326
835.65	23318
835.788	23299
835.926	23143
836.064	23151
836.202	23056
836.34	23330
836.478	23376
836.615	23250
836.753	23128
836.891	23220
837.029	23235
837.167	23212
837.305	23079
837.443	23022
837.58	23075
837.718	23052
837.856	23136
837.993	23098
838.131	23060
838.269	22843
838.406	22991
838.544	22809
838.681	22611
838.819	22660
838.956	22607
839.094	22474
839.231	22462
839.369	22664
839.506	22938
839.643	22839
839.781	22428
839.918	22409
840.055	22504
840.193	22561
840.33	22348
840.467	22428
840.604	22512
840.742	22729
840.879	22325
841.016	22352
841.153	22223
841.29	22577
841.427	22474
841.564	22402
841.701	22443
841.838	22295
841.975	22207
842.112	22253
842.249	22223
842.385	22143
842.522	22299
842.659	22169
842.796	22048
842.933	22097
843.069	22090
843.206	22139
843.343	22280
843.479	22120
843.616	22185
843.752	21911
843.889	22101
844.025	21953
844.162	21705
844.298	21915
844.435	21827
844.571	21766
844.708	21907
844.844	21956
844.98	22078
845.117	21861
845.253	21736
845.389	21724
845.525	21793
845.661	21705
845.798	21652
845.934	21736
846.07	21564
846.206	21652
846.342	21755
846.478	21526
846.614	21466
846.75	21329
846.886	21363
847.022	21447
847.158	21310
847.294	21317
847.429	21310
847.565	21351
847.701	21542
847.837	21039
847.972	21028
848.108	21184
848.244	21043
848.379	20982
848.515	20925
848.65	20975
848.786	20876
848.921	21055
849.057	21066
849.192	21036
849.328	20975
849.463	20944
849.598	20823
849.734	20838
849.869	20686
850.004	20606
850.14	20750
850.275	20598
850.41	20606
850.545	20644
850.68	20663
850.815	20629
850.95	20560
851.085	20857
851.22	20716
851.355	20697
851.49	20590
851.625	20537
851.76	20507
851.895	20564
852.03	20583
852.165	20720
852.299	20746
852.434	20781
852.569	20636
852.703	20606
852.838	20663
852.973	20705
853.107	20826
853.242	20594
853.376	20511
853.511	20294
853.645	20465
853.78	20686
853.914	20434
854.048	20476
854.183	20419
854.317	20419
854.451	20674
854.585	20431
854.72	20412
854.854	20495
854.988	20427
855.122	20278
855.256	20366
855.39	20480
855.524	20484
855.658	20469
855.792	20389
855.926	20457
856.06	20465
856.194	20480
856.327	20385
856.461	20305
856.595	20385
856.729	20476
856.862	20571
856.996	20533
857.13	20522
857.263	20484
857.397	20355
857.53	20415
857.664	20514
857.797	20476
857.931	20427
858.064	20499
858.197	20530
858.331	20309
858.464	20355
858.597	20290
858.731	20434
858.864	20396
858.997	20332
859.13	20393
859.263	20404
859.396	20461
859.529	20324
859.662	20252
859.795	20332
859.928	20358
860.061	20636
860.194	20465
860.327	20442
860.46	20450
860.592	20507
860.725	20590
860.858	20552
860.99	20351
861.123	20336
861.256	20267
861.388	20286
861.521	21081
861.653	20202
861.786	20233
861.918	20278
862.05	20294
862.183	20347
862.315	20362
862.447	20568
862.58	20396
862.712	20183
862.844	20107
862.976	20195
863.108	20271
863.24	20511
863.372	20100
863.504	20073
863.636	20081
863.768	20016
863.9	20084
864.032	20092
864.164	20050
864.296	20244
864.428	20313
864.559	20126
864.691	20237
864.823	20058
864.954	20024
865.086	20065
865.217	19986
865.349	19925
865.48	19947
865.612	20065
865.743	20176
865.875	19993
866.006	19974
866.137	19967
866.269	19947
866.4	20050
866.531	19898
866.662	19890
866.793	19913
866.924	19822
867.055	19795
867.186	19898
867.317	19879
867.448	19753
867.579	19845
867.71	19864
867.841	19803
867.972	19909
868.103	19909
868.233	19959
868.364	19864
868.495	19951
868.625	20187
868.756	20153
868.886	20092
869.017	20221
869.147	20263
869.278	20240
869.408	20176
869.539	20111
869.669	20202
869.799	20328
869.929	20286
870.06	20320
870.19	20530
870.32	20412
870.45	20476
870.58	20537
870.71	20571
870.84	20587
870.97	20507
871.1	20454
871.23	20617
871.36	20811
871.489	20807
871.619	20708
871.749	20746
871.879	20727
872.008	20868
872.138	20769
872.267	20697
872.397	20644
872.526	20571
872.656	20434
872.785	20549
872.915	20746
873.044	20823
873.173	20735
873.303	20853
873.432	20762
873.561	20868
873.69	20804
873.819	20750
873.948	20857
874.077	20815
874.206	20689
874.335	20883
874.464	20857
874.593	21081
874.722	20880
874.851	21108
874.979	21043
875.108	20979
875.237	21116
875.365	20807
875.494	21032
875.623	21055
875.751	20990
875.88	21135
876.008	21138
876.136	21233
876.265	21416
876.393	21488
876.521	21477
876.65	21534
876.778	21389
876.906	21405
877.034	21260
877.162	21370
877.29	21313
877.418	21507
877.546	21378
877.674	21272
877.802	21355
877.93	21386
878.058	21268
878.185	21241
878.313	21291
878.441	21317
878.568	21195
878.696	21355
878.824	21386
878.951	21477
879.079	21587
879.206	21686
879.333	21450
879.461	21450
879.588	21351
879.715	21545
879.842	21580
879.97	21534
880.097	21249
880.224	21127
880.351	21294
880.478	21154
880.605	21245
880.732	21226
880.859	21519
880.986	21298
881.112	21188
881.239	21131
881.366	20914
881.493	20838
881.619	20804
881.746	20921
881.872	20743
881.999	20823
882.125	20819
882.252	20902
882.378	20739
882.505	20948
882.631	20667
882.757	20693
882.883	20602
883.01	20503
883.136	20347
883.262	20454
883.388	20336
883.514	20560
883.64	20640
883.766	20415
883.892	20259
884.018	20336
884.143	20511
884.269	20499
884.395	20214
884.52	20202
884.646	20153
884.772	20138
884.897	20092
885.023	20214
885.148	20157
885.274	20214
885.399	20183
885.524	20100
885.65	20187
885.775	20130
885.9	20259
886.025	20381
886.15	20229
886.275	20138
886.4	20119
886.525	20084
886.65	20012
886.775	20183
886.9	20168
887.025	20362
887.149	20130
887.274	19947
887.399	19906
887.523	19841
887.648	19925
887.773	19795
887.897	19993
888.021	19967
888.146	19845
888.27	19986
888.395	19944
888.519	19909
888.643	19993
888.767	19978
888.891	19860
889.015	19772
889.139	19715
889.263	19578
889.387	19849
889.511	19879
889.635	19780
889.759	19700
889.883	19727
890.006	19776
890.13	19731
890.254	19624
890.377	19666
890.501	19388
890.624	19449
890.748	19518
890.871	19343
890.995	19247
891.118	19335
891.241	19362
891.364	19365
891.488	19358
891.611	19247
891.734	19255
891.857	19468
891.98	19343
892.103	19331
892.226	19236
892.349	19270
892.471	19175
892.594	19297
892.717	19324
892.839	19202
892.962	19247
893.085	19381
893.207	19198
893.33	19114
893.452	19053
893.575	19213
893.697	19217
893.819	19430
893.941	19388
894.064	19480
894.186	19194
894.308	19072
894.43	19350
894.552	19362
894.674	19346
894.796	19065
894.918	19164
895.04	19175
895.161	19308
895.283	19350
895.405	19247
895.526	19228
895.648	19209
895.769	19221
895.891	19266
896.012	19369
896.134	19297
896.255	19175
896.376	19274
896.498	19228
896.619	19225
896.74	19251
896.861	19381
896.982	19674
897.103	19708
897.224	19647
897.345	19483
897.466	19403
897.587	19533
897.708	19609
897.828	19556
897.949	19502
898.07	19365
898.19	19324
898.311	19586
898.431	19403
898.552	19335
898.672	19529
898.792	19480
898.913	19400
899.033	19259
899.153	19343
899.273	19164
899.393	19221
899.513	19171
899.633	19259
899.753	19228
899.873	19076
899.993	19183
900.113	19137
900.232	19240
900.352	19168
900.472	19065
900.591	18943
900.711	18954
900.83	18901
900.95	19088
901.069	19137
901.189	18951
901.308	18688
901.427	18601
901.546	18677
901.665	18578
901.784	18631
901.904	18464
902.023	18414
902.141	18247
902.26	18152
902.379	18213
902.498	18201
902.617	18038
902.735	18102
902.854	18015
902.973	18079
903.091	17855
903.21	17878
903.328	17737
903.446	17691
903.565	17630
903.683	17581
903.801	17501
903.919	17547
904.038	17516
904.156	17406
904.274	17490
904.392	17452
904.51	17345
904.627	17410
904.745	17452
904.863	17406
904.981	17200
905.098	17022
905.216	16976
905.334	17124
905.451	17064
905.569	16885
905.686	17121
905.803	17014
905.921	16755
906.038	16927
906.155	16771
906.272	16786
906.389	16748
906.506	16584
906.623	16584
906.74	16573
906.857	16455
906.974	16622
907.091	16618
907.208	16725
907.324	16607
907.441	16413
907.557	16329
907.674	16398
907.79	16181
907.907	16181
908.023	16341
908.139	16371
908.256	16226
908.372	16181
908.488	16128
908.604	15987
908.72	15983
908.836	15968
908.952	15994
909.068	15831
909.184	16059
909.3	15926
909.415	15949
909.531	15979
909.647	15686
909.762	15816
909.878	15682
909.993	15633
910.108	15629
910.224	15701
910.339	15701
910.454	15481
910.57	15530
910.685	15416
910.8	15656
910.915	15667
911.03	15469
911.145	15317
911.259	15252
911.374	15298
911.489	15154
911.604	15138
911.718	15077
911.833	15131
911.947	14960
912.062	14853
912.176	14975
912.291	15062
912.405	14994
912.519	15173
912.633	15104
912.748	15108
912.862	14952
912.976	14727
913.09	14659
913.204	14845
913.318	14830
913.431	14887
913.545	14960
913.659	14864
913.772	14842
913.886	14697
914	14659
914.113	14663
914.226	14762
914.34	14762
914.453	14522
914.566	14724
914.68	14598
914.793	14526
914.906	14275
915.019	14275
915.132	14301
915.245	14294
915.358	14328
915.47	14347
915.583	14275
915.696	14393
915.809	14400
915.921	14374
916.034	14275
916.146	14202
916.259	14225
916.371	14278
916.483	14286
916.595	14183
916.708	14153
916.82	14115
916.932	14077
917.044	14107
917.156	14043
917.268	14001
917.38	13963
917.491	13917
917.603	13947
917.715	14088
917.826	14024
917.938	14024
918.049	13803
918.161	13951
918.272	13997
918.384	14100
918.495	13955
918.606	13841
918.717	13712
918.828	13757
918.939	13750
919.05	13719
919.161	13704
919.272	13453
919.383	13609
919.494	13830
919.604	13909
919.715	13693
919.826	13647
919.936	13620
920.047	13875
920.157	13723
920.267	13887
920.378	13734
920.488	13643
920.598	13818
920.708	14073
920.818	13780
920.928	13723
921.038	13986
921.148	13928
921.258	13655
921.368	13601
921.477	13506
921.587	13400
921.697	13316
921.806	13407
921.916	13301
922.025	13053
922.134	13084
922.244	13107
922.353	13088
922.462	13019
922.571	12913
922.68	12700
922.789	12646
922.898	12844
923.007	12700
923.116	12772
923.224	12658
923.333	12696
923.442	12627
923.55	12563
923.659	12551
923.767	12623
923.876	12566
923.984	12669
924.092	12486
924.201	12407
924.309	12509
924.417	12414
924.525	12407
924.633	12464
924.741	13221
924.849	12258
924.956	12380
925.064	12247
925.172	12079
925.279	12133
925.387	12289
925.494	12258
925.602	12365
925.709	12281
925.816	12076
925.924	12102
926.031	12300
926.138	12159
926.245	12296
926.352	12038
926.459	12194
926.566	12243
926.673	12106
926.779	12022
926.886	11923
926.993	11775
927.099	11733
927.206	11748
927.312	11729
927.419	11836
927.525	11847
927.631	11821
927.737	11710
927.843	11665
927.95	11543
928.056	11604
928.162	11672
928.267	11642
928.373	12277
928.479	11653
928.585	11532
928.69	11535
928.796	11623
928.901	11398
929.007	11379
929.112	11459
929.218	11436
929.323	11383
929.428	11429
929.533	11455
929.638	11288
929.743	11273
929.848	11265
929.953	11322
930.058	11216
930.163	11140
930.267	11075
930.372	11189
930.477	11022
930.581	11288
930.685	11162
930.79	10991
930.894	11086
930.998	11010
931.103	11090
931.207	10790
931.311	10641
931.415	10546
931.519	10303
931.623	10348
