Data from test_V78500241_2688.txt Node
Date: Fri Mar 25 15:28:34 CST 2022
User: usil
Spectrometer: V785-0024
Trigger mode: 0
Integration Time (sec): 4.000000E-1
Scans to average: 1
Nonlinearity correction enabled: false
Boxcar width: 0
Storing dark spectrum: false
XAxis mode: Wavelengths
Number of Pixels in Spectrum: 1024
>>>>>Begin Spectral Data<<<<<
801.071	27009
801.214	27013
801.356	26716
801.499	26838
801.641	26651
801.783	26807
801.926	26765
802.068	26644
802.211	26674
802.353	26514
802.496	26370
802.638	26324
802.78	26336
802.923	26240
803.065	26256
803.208	26214
803.35	26229
803.492	26404
803.635	26343
803.777	26305
803.919	26560
804.061	26807
804.204	26381
804.346	26309
804.488	26237
804.63	26286
804.773	26290
804.915	26370
805.057	26469
805.199	26503
805.341	26469
805.483	26609
805.626	26484
805.768	26336
805.91	26442
806.052	26503
806.194	26412
806.336	26609
806.478	26568
806.62	26492
806.762	26568
806.904	26864
807.046	26975
807.188	26940
807.33	26956
807.472	26929
807.614	26880
807.756	26826
807.898	26644
808.04	26724
808.182	26678
808.324	26826
808.465	26785
808.607	27066
808.749	27055
808.891	27230
809.033	27355
809.174	27062
809.316	27062
809.458	27131
809.6	27017
809.741	27291
809.883	27241
810.025	27401
810.166	27325
810.308	27230
810.45	27374
810.591	27283
810.733	27165
810.875	27070
811.016	27028
811.158	27051
811.299	27207
811.441	27230
811.582	27283
811.724	27207
811.865	27051
812.007	27093
812.148	26971
812.29	27066
812.431	27268
812.573	27450
812.714	27481
812.855	27583
812.997	27667
813.138	27816
813.279	27759
813.421	27561
813.562	27397
813.703	27291
813.845	27192
813.986	26940
814.127	26826
814.268	26762
814.41	26739
814.551	26606
814.692	26956
814.833	26590
814.974	26735
815.115	26651
815.256	26743
815.397	26651
815.539	26598
815.68	26518
815.821	26499
815.962	26571
816.103	26404
816.244	26438
816.385	26343
816.526	26294
816.666	26077
816.807	26020
816.948	26172
817.089	26103
817.23	26046
817.371	25989
817.512	25963
817.653	26054
817.793	26001
817.934	25978
818.075	26065
818.216	25947
818.356	25970
818.497	25986
818.638	25670
818.778	25719
818.919	25746
819.06	25887
819.2	25909
819.341	25974
819.481	25974
819.622	26084
819.762	26294
819.903	26202
820.043	26240
820.184	26039
820.324	26130
820.465	26138
820.605	26103
820.746	26069
820.886	25955
821.026	26218
821.167	26065
821.307	26054
821.447	25997
821.588	25879
821.728	25845
821.868	25734
822.008	25548
822.149	25487
822.289	25419
822.429	25187
822.569	25171
822.709	25198
822.849	25137
822.99	24970
823.13	24920
823.27	24973
823.41	24795
823.55	24741
823.69	24779
823.83	24757
823.97	24745
824.11	24593
824.25	24475
824.389	24601
824.529	24719
824.669	24585
824.809	24738
824.949	24806
825.089	24566
825.228	24604
825.368	24532
825.508	24422
825.648	24460
825.787	24589
825.927	24498
826.067	24479
826.206	24479
826.346	24410
826.485	24456
826.625	24505
826.765	24532
826.904	24448
827.044	24114
827.183	24281
827.323	24174
827.462	24254
827.601	24152
827.741	24152
827.88	24266
828.02	24095
828.159	24258
828.298	24251
828.437	24102
828.577	24125
828.716	24216
828.855	24007
828.994	23821
829.134	23904
829.273	23790
829.412	23802
829.551	23897
829.69	23927
829.829	23878
829.968	23973
830.107	23923
830.246	23973
830.385	23863
830.524	23790
830.663	23802
830.802	23687
830.941	23604
831.08	23539
831.219	23611
831.357	23570
831.496	23726
831.635	23619
831.774	23360
831.913	23337
832.051	23242
832.19	23193
832.329	23318
832.467	23181
832.606	23189
832.744	23048
832.883	23102
833.022	23113
833.16	23086
833.299	23239
833.437	23067
833.576	23280
833.714	23288
833.852	23185
833.991	23303
834.129	23303
834.267	23318
834.406	23242
834.544	23284
834.682	23277
834.821	23216
834.959	23368
835.097	23193
835.235	23197
835.373	23284
835.511	23242
835.65	22991
835.788	23143
835.926	23079
836.064	22847
836.202	22767
836.34	23128
836.478	23132
836.615	23056
836.753	22961
836.891	23109
837.029	22980
837.167	23003
837.305	22908
837.443	22923
837.58	22934
837.718	22934
837.856	22968
837.993	22778
838.131	23029
838.269	22809
838.406	22797
838.544	22778
838.681	22500
838.819	22569
838.956	22329
839.094	22462
839.231	22489
839.369	22504
839.506	22778
839.643	22527
839.781	22474
839.918	22379
840.055	22417
840.193	22333
840.33	22276
840.467	22390
840.604	22436
840.742	22561
840.879	22226
841.016	22253
841.153	22287
841.29	22417
841.427	22325
841.564	22356
841.701	22341
841.838	22261
841.975	22207
842.112	22280
842.249	22211
842.385	22223
842.522	22371
842.659	22051
842.796	22086
842.933	22044
843.069	22128
843.206	22116
843.343	22166
843.479	22036
843.616	22074
843.752	21911
843.889	21842
844.025	21903
844.162	21751
844.298	21918
844.435	21812
844.571	21926
844.708	21918
844.844	21964
844.98	22021
845.117	21915
845.253	21774
845.389	21641
845.525	21720
845.661	21728
845.798	21637
845.934	21580
846.07	21564
846.206	21675
846.342	21713
846.478	21656
846.614	21492
846.75	21424
846.886	21393
847.022	21306
847.158	21348
847.294	21355
847.429	21386
847.565	21386
847.701	21622
847.837	20960
847.972	21123
848.108	21256
848.244	21081
848.379	21123
848.515	21028
848.65	20944
848.786	21077
848.921	21005
849.057	21009
849.192	21039
849.328	20921
849.463	20914
849.598	20887
849.734	20781
849.869	20845
850.004	20720
850.14	20830
850.275	20689
850.41	20621
850.545	20644
850.68	20613
850.815	20773
850.95	20712
851.085	20899
851.22	20826
851.355	20575
851.49	20777
851.625	20712
851.76	20682
851.895	20667
852.03	20625
852.165	20735
852.299	20750
852.434	20758
852.569	20731
852.703	20735
852.838	20857
852.973	20838
853.107	20811
853.242	20583
853.376	20427
853.511	20400
853.645	20450
853.78	20640
853.914	20583
854.048	20541
854.183	20431
854.317	20621
854.451	20746
854.585	20450
854.72	20514
854.854	20564
854.988	20438
855.122	20606
855.256	20419
855.39	20583
855.524	20461
855.658	20644
855.792	20480
855.926	20583
856.06	20663
856.194	20701
856.327	20549
856.461	20412
856.595	20427
856.729	20484
856.862	20568
856.996	20617
857.13	20545
857.263	20602
857.397	20625
857.53	20575
857.664	20533
857.797	20579
857.931	20655
858.064	20560
858.197	20602
858.331	20499
858.464	20454
858.597	20381
858.731	20393
858.864	20423
858.997	20518
859.13	20583
859.263	20549
859.396	20537
859.529	20571
859.662	20446
859.795	20594
859.928	20457
860.061	20701
860.194	20678
860.327	20678
860.46	20617
860.592	20663
860.725	20621
860.858	20621
860.99	20454
861.123	20313
861.256	20427
861.388	20484
861.521	21169
861.653	20385
861.786	20313
861.918	20431
862.05	20339
862.183	20465
862.315	20419
862.447	20533
862.58	20366
862.712	20271
862.844	20229
862.976	20267
863.108	20370
863.24	20731
863.372	20248
863.504	20256
863.636	20298
863.768	20294
863.9	20210
864.032	20176
864.164	20187
864.296	20290
864.428	20271
864.559	20294
864.691	20351
864.823	20122
864.954	20191
865.086	20343
865.217	20142
865.349	20119
865.48	20065
865.612	20092
865.743	20358
865.875	20157
866.006	20134
866.137	20084
866.269	20081
866.4	20142
866.531	20092
866.662	20050
866.793	20107
866.924	20103
867.055	20046
867.186	20058
867.317	20043
867.448	20054
867.579	20020
867.71	20069
867.841	19986
867.972	20111
868.103	20149
868.233	20065
868.364	20119
868.495	20119
868.625	20286
868.756	20317
868.886	20374
869.017	20267
869.147	20427
869.278	20370
869.408	20358
869.539	20313
869.669	20362
869.799	20431
869.929	20427
870.06	20476
870.19	20651
870.32	20594
870.45	20731
870.58	20800
870.71	20834
870.84	20815
870.97	20735
871.1	20693
871.23	20910
871.36	20815
871.489	20769
871.619	20929
871.749	21017
871.879	20941
872.008	21116
872.138	20960
872.267	20918
872.397	20826
872.526	20697
872.656	20811
872.785	20804
872.915	21047
873.044	21020
873.173	21013
873.303	20990
873.432	20971
873.561	21036
873.69	20929
873.819	20914
873.948	21051
874.077	20967
874.206	20880
874.335	20849
874.464	20990
874.593	21325
874.722	21169
874.851	21306
874.979	21188
875.108	21230
875.237	21116
875.365	21127
875.494	21199
875.623	21317
875.751	21165
875.88	21157
876.008	21287
876.136	21306
876.265	21656
876.393	21656
876.521	21705
876.65	21679
876.778	21622
876.906	21622
877.034	21450
877.162	21523
877.29	21359
877.418	21538
877.546	21625
877.674	21526
877.802	21641
877.93	21462
878.058	21507
878.185	21496
878.313	21420
878.441	21538
878.568	21363
878.696	21382
878.824	21500
878.951	21698
879.079	21618
879.206	21823
879.333	21736
879.461	21526
879.588	21705
879.715	21682
879.842	21709
879.97	21591
880.097	21405
880.224	21344
880.351	21382
880.478	21481
880.605	21313
880.732	21412
880.859	21591
880.986	21344
881.112	21439
881.239	21237
881.366	21211
881.493	20986
881.619	20971
881.746	20906
881.872	20952
881.999	20963
882.125	20887
882.252	21081
882.378	20842
882.505	21001
882.631	20815
882.757	20663
882.883	20788
883.01	20701
883.136	20636
883.262	20499
883.388	20431
883.514	20686
883.64	20701
883.766	20587
883.892	20522
884.018	20514
884.143	20651
884.269	20590
884.395	20412
884.52	20267
884.646	20324
884.772	20271
884.897	20145
885.023	20374
885.148	20309
885.274	20583
885.399	20374
885.524	20412
885.65	20214
885.775	20290
885.9	20336
886.025	20446
886.15	20351
886.275	20164
886.4	20191
886.525	20263
886.65	20229
886.775	20183
886.9	20396
887.025	20469
887.149	20202
887.274	20138
887.399	20130
887.523	20058
887.648	19936
887.773	19993
887.897	20062
888.021	20180
888.146	20020
888.27	20142
888.395	20164
888.519	20138
888.643	20142
888.767	20191
888.891	20081
889.015	19883
889.139	19841
889.263	19856
889.387	20020
889.511	20039
889.635	20020
889.759	19902
889.883	19967
890.006	19951
890.13	20050
890.254	19811
890.377	19791
890.501	19594
890.624	19575
890.748	19761
890.871	19578
890.995	19616
891.118	19403
891.241	19487
891.364	19506
891.488	19548
891.611	19426
891.734	19506
891.857	19677
891.98	19460
892.103	19567
892.226	19563
892.349	19434
892.471	19270
892.594	19457
892.717	19430
892.839	19419
892.962	19426
893.085	19476
893.207	19384
893.33	19304
893.452	19346
893.575	19438
893.697	19422
893.819	19514
893.941	19529
894.064	19544
894.186	19365
894.308	19362
894.43	19430
894.552	19449
894.674	19453
894.796	19240
894.918	19381
895.04	19331
895.161	19502
895.283	19468
895.405	19346
895.526	19369
895.648	19381
895.769	19419
895.891	19502
896.012	19491
896.134	19411
896.255	19274
896.376	19381
896.498	19426
896.619	19510
896.74	19445
896.861	19464
896.982	19693
897.103	19913
897.224	19666
897.345	19613
897.466	19548
897.587	19662
897.708	19761
897.828	19670
897.949	19518
898.07	19544
898.19	19499
898.311	19826
898.431	19658
898.552	19540
898.672	19715
898.792	19715
898.913	19719
899.033	19415
899.153	19544
899.273	19335
899.393	19365
899.513	19495
899.633	19377
899.753	19407
899.873	19506
899.993	19369
900.113	19247
900.232	19362
900.352	19278
900.472	19190
900.591	19187
900.711	19183
900.83	19179
900.95	19335
901.069	19278
901.189	19080
901.308	18738
901.427	18787
901.546	18802
901.665	18719
901.784	18764
901.904	18635
902.023	18551
902.141	18414
902.26	18338
902.379	18376
902.498	18346
902.617	18209
902.735	18281
902.854	18213
902.973	18133
903.091	17996
903.21	17961
903.328	17999
903.446	17809
903.565	17832
903.683	17813
903.801	17665
903.919	17897
904.038	17756
904.156	17581
904.274	17703
904.392	17482
904.51	17535
904.627	17558
904.745	17562
904.863	17596
904.981	17356
905.098	17315
905.216	17185
905.334	17250
905.451	17170
905.569	17170
905.686	17337
905.803	17273
905.921	16919
906.038	17147
906.155	17033
906.272	17003
906.389	16908
906.506	16869
906.623	16702
906.74	16881
906.857	16626
906.974	16630
907.091	16801
907.208	16828
907.324	16835
907.441	16717
907.557	16481
907.674	16588
907.79	16497
907.907	16443
908.023	16459
908.139	16462
908.256	16451
908.372	16436
908.488	16303
908.604	16219
908.72	16246
908.836	16272
908.952	16215
909.068	16207
909.184	16249
909.3	16200
909.415	16276
909.531	16325
909.647	15994
909.762	15979
909.878	15903
909.993	15918
910.108	15835
910.224	15884
910.339	15964
910.454	15907
910.57	15774
910.685	15694
910.8	16040
910.915	15842
911.03	15720
911.145	15549
911.259	15610
911.374	15576
911.489	15488
911.604	15481
911.718	15260
911.833	15275
911.947	15222
912.062	15180
912.176	15344
912.291	15420
912.405	15310
912.519	15492
912.633	15549
912.748	15386
912.862	15306
912.976	15188
913.09	15066
913.204	14956
913.318	15116
913.431	15214
913.545	15207
913.659	15241
913.772	15066
913.886	15013
914	14876
914.113	14990
914.226	15047
914.34	14994
914.453	14781
914.566	15001
914.68	14819
914.793	14769
914.906	14568
915.019	14625
915.132	14552
915.245	14537
915.358	14579
915.47	14545
915.583	14480
915.696	14602
915.809	14769
915.921	14655
916.034	14480
916.146	14473
916.259	14476
916.371	14556
916.483	14499
916.595	14358
916.708	14415
916.82	14358
916.932	14377
917.044	14389
917.156	14351
917.268	14248
917.38	14233
917.491	14161
917.603	14298
917.715	14206
917.826	14290
917.938	14172
918.049	14054
918.161	14210
918.272	14301
918.384	14336
918.495	14153
918.606	14027
918.717	14046
918.828	13989
918.939	13928
919.05	13940
919.161	13959
919.272	13852
919.383	13947
919.494	14107
919.604	14168
919.715	13947
919.826	13917
919.936	13841
920.047	14020
920.157	13917
920.267	14062
920.378	13986
920.488	13925
920.598	14100
920.708	14225
920.818	14149
920.928	14183
921.038	14320
921.148	14164
921.258	13902
921.368	13833
921.477	13761
921.587	13708
921.697	13613
921.806	13799
921.916	13605
922.025	13464
922.134	13331
922.244	13274
922.353	13487
922.462	13285
922.571	13240
922.68	13042
922.789	12993
922.898	13114
923.007	12989
923.116	13015
923.224	13069
923.333	13004
923.442	12943
923.55	12810
923.659	12837
923.767	12954
923.876	12779
923.984	12977
924.092	12715
924.201	12829
924.309	12798
924.417	12779
924.525	12688
924.633	12741
924.741	13601
924.849	12506
924.956	12623
925.064	12490
925.172	12315
925.279	12502
925.387	12448
925.494	12441
925.602	12536
925.709	12464
925.816	12388
925.924	12475
926.031	12544
926.138	12407
926.245	12456
926.352	12315
926.459	12441
926.566	12498
926.673	12319
926.779	12136
926.886	12163
926.993	12102
927.099	12015
927.206	12038
927.312	12015
927.419	12098
927.525	12034
927.631	12121
927.737	11927
927.843	11950
927.95	11745
928.056	11859
928.162	11832
928.267	11984
928.373	12437
928.479	11920
928.585	11741
928.69	11741
928.796	11859
928.901	11786
929.007	11570
929.112	11775
929.218	11672
929.323	11646
929.428	11661
929.533	11824
929.638	11516
929.743	11558
929.848	11600
929.953	11543
930.058	11558
930.163	11299
930.267	11345
930.372	11478
930.477	11239
930.581	11478
930.685	11402
930.79	11178
930.894	11235
930.998	11124
931.103	11364
931.207	10965
931.311	10820
931.415	10862
931.519	10599
931.623	10615
