Data from test_V78500241_2027.txt Node
Date: Fri Mar 25 15:23:58 CST 2022
User: usil
Spectrometer: V785-0024
Trigger mode: 0
Integration Time (sec): 4.000000E-1
Scans to average: 1
Nonlinearity correction enabled: false
Boxcar width: 0
Storing dark spectrum: false
XAxis mode: Wavelengths
Number of Pixels in Spectrum: 1024
>>>>>Begin Spectral Data<<<<<
801.071	27953
801.214	27842
801.356	27633
801.499	27622
801.641	27397
801.783	27443
801.926	27382
802.068	27306
802.211	27214
802.353	27389
802.496	27116
802.638	27093
802.78	27070
802.923	27039
803.065	26967
803.208	27161
803.35	27161
803.492	27237
803.635	27405
803.777	27085
803.919	27313
804.061	27572
804.204	27374
804.346	27287
804.488	27207
804.63	27131
804.773	27176
804.915	27283
805.057	27389
805.199	27291
805.341	27401
805.483	27427
805.626	27443
805.768	27237
805.91	27416
806.052	27408
806.194	27439
806.336	27526
806.478	27321
806.62	27481
806.762	27450
806.904	27606
807.046	27914
807.188	27819
807.33	27793
807.472	27827
807.614	27979
807.756	27778
807.898	27789
808.04	27808
808.182	27606
808.324	27728
808.465	27865
808.607	27865
808.749	28082
808.891	28109
809.033	28128
809.174	28105
809.316	28040
809.458	27945
809.6	27960
809.741	28207
809.883	28246
810.025	28268
810.166	28451
810.308	28295
810.45	28249
810.591	28139
810.733	28112
810.875	28063
811.016	27914
811.158	27800
811.299	28032
811.441	28166
811.582	28097
811.724	27914
811.865	28025
812.007	27991
812.148	28002
812.29	28112
812.431	28211
812.573	28405
812.714	28481
812.855	28618
812.997	28694
813.138	28759
813.279	28618
813.421	28569
813.562	28421
813.703	28306
813.845	28196
813.986	27953
814.127	27975
814.268	27705
814.41	27625
814.551	27770
814.692	27682
814.833	27587
814.974	27561
815.115	27857
815.256	27466
815.397	27500
815.539	27557
815.68	27454
815.821	27431
815.962	27587
816.103	27504
816.244	27526
816.385	27348
816.526	27272
816.666	27100
816.807	26914
816.948	27047
817.089	27116
817.23	26910
817.371	27039
817.512	26994
817.653	26937
817.793	26929
817.934	27074
818.075	27077
818.216	27005
818.356	27112
818.497	26819
818.638	26834
818.778	26758
818.919	26735
819.06	26674
819.2	27058
819.341	26929
819.481	27028
819.622	27173
819.762	27287
819.903	27138
820.043	27222
820.184	26982
820.324	27024
820.465	27188
820.605	27146
820.746	27173
820.886	27070
821.026	27154
821.167	27070
821.307	27157
821.447	27116
821.588	26937
821.728	26823
821.868	26629
822.008	26499
822.149	26370
822.289	26275
822.429	26286
822.569	26142
822.709	26240
822.849	26100
822.99	26043
823.13	25906
823.27	25871
823.41	25776
823.55	25704
823.69	25807
823.83	25917
823.97	25761
824.11	25552
824.25	25605
824.389	25651
824.529	25609
824.669	25597
824.809	25655
824.949	25655
825.089	25803
825.228	25635
825.368	25457
825.508	25506
825.648	25373
825.787	25487
825.927	25411
826.067	25525
826.206	25434
826.346	25491
826.485	25510
826.625	25476
826.765	25601
826.904	25597
827.044	25187
827.183	25270
827.323	25255
827.462	25217
827.601	25232
827.741	25202
827.88	25232
828.02	25038
828.159	25088
828.298	25255
828.437	25175
828.577	25240
828.716	25255
828.855	24989
828.994	24966
829.134	24958
829.273	25038
829.412	24981
829.551	24901
829.69	24977
829.829	24985
829.968	25114
830.107	24996
830.246	24833
830.385	24844
830.524	24627
830.663	24642
830.802	24604
830.941	24604
831.08	24479
831.219	24722
831.357	24574
831.496	24700
831.635	24479
831.774	24399
831.913	24357
832.051	24395
832.19	24258
832.329	24323
832.467	24155
832.606	24102
832.744	24102
832.883	24239
833.022	24083
833.16	24194
833.299	24247
833.437	24319
833.576	24254
833.714	24330
833.852	24228
833.991	24277
834.129	24304
834.267	24216
834.406	24391
834.544	24239
834.682	24266
834.821	24129
834.959	24403
835.097	24167
835.235	24235
835.373	24205
835.511	24190
835.65	24038
835.788	24057
835.926	23859
836.064	23866
836.202	23942
836.34	24091
836.478	24148
836.615	24095
836.753	24159
836.891	24182
837.029	24076
837.167	24007
837.305	23961
837.443	24011
837.58	23851
837.718	24015
837.856	24068
837.993	23885
838.131	23851
838.269	23821
838.406	23836
838.544	23687
838.681	23585
838.819	23562
838.956	23368
839.094	23368
839.231	23368
839.369	23627
839.506	23847
839.643	23699
839.781	23322
839.918	23406
840.055	23360
840.193	23277
840.33	23212
840.467	23337
840.604	23356
840.742	23535
840.879	23079
841.016	23303
841.153	23117
841.29	23368
841.427	23280
841.564	23368
841.701	23315
841.838	23159
841.975	23277
842.112	23170
842.249	23083
842.385	23010
842.522	23208
842.659	23010
842.796	22995
842.933	23003
843.069	22987
843.206	23052
843.343	23056
843.479	23174
843.616	23037
843.752	22866
843.889	22801
844.025	22965
844.162	22733
844.298	22927
844.435	22831
844.571	22786
844.708	22862
844.844	23003
844.98	22869
845.117	22900
845.253	22820
845.389	22615
845.525	22675
845.661	22588
845.798	22516
845.934	22702
846.07	22596
846.206	22679
846.342	22504
846.478	22500
846.614	22360
846.75	22219
846.886	22329
847.022	22424
847.158	22451
847.294	22207
847.429	22382
847.565	22295
847.701	22500
847.837	22063
847.972	21998
848.108	22177
848.244	22207
848.379	21975
848.515	21975
848.65	21854
848.786	21854
848.921	21903
849.057	21903
849.192	22010
849.328	21861
849.463	21861
849.598	21960
849.734	21812
849.869	21941
850.004	21724
850.14	21690
850.275	21675
850.41	21549
850.545	21618
850.68	21652
850.815	21633
850.95	21663
851.085	21812
851.22	21732
851.355	21656
851.49	21606
851.625	21660
851.76	21576
851.895	21416
852.03	21523
852.165	21747
852.299	21618
852.434	21698
852.569	21679
852.703	21629
852.838	21652
852.973	21732
853.107	21701
853.242	21618
853.376	21462
853.511	21302
853.645	21325
853.78	21644
853.914	21538
854.048	21450
854.183	21389
854.317	21603
854.451	21739
854.585	21428
854.72	21439
854.854	21637
854.988	21382
855.122	21458
855.256	21302
855.39	21382
855.524	21606
855.658	21469
855.792	21663
855.926	21424
856.06	21428
856.194	21481
856.327	21386
856.461	21412
856.595	21435
856.729	21424
856.862	21492
856.996	21526
857.13	21515
857.263	21641
857.397	21492
857.53	21488
857.664	21382
857.797	21500
857.931	21564
858.064	21447
858.197	21473
858.331	21496
858.464	21348
858.597	21367
858.731	21424
858.864	21325
858.997	21401
859.13	21447
859.263	21386
859.396	21466
859.529	21378
859.662	21477
859.795	21367
859.928	21481
860.061	21629
860.194	21663
860.327	21481
860.46	21523
860.592	21610
860.725	21652
860.858	21549
860.99	21386
861.123	21378
861.256	21264
861.388	21428
861.521	22078
861.653	21275
861.786	21237
861.918	21348
862.05	21424
862.183	21313
862.315	21447
862.447	21351
862.58	21355
862.712	21157
862.844	21237
862.976	21260
863.108	21180
863.24	21663
863.372	21104
863.504	21180
863.636	21028
863.768	21321
863.9	21222
864.032	21207
864.164	21192
864.296	21100
864.428	21363
864.559	21249
864.691	21245
864.823	21017
864.954	21173
865.086	21112
865.217	21116
865.349	20986
865.48	20956
865.612	21032
865.743	21195
865.875	21077
866.006	21058
866.137	21058
866.269	21112
866.4	20979
866.531	21001
866.662	20899
866.793	20914
866.924	20937
867.055	21036
867.186	21150
867.317	20929
867.448	20960
867.579	20895
867.71	20857
867.841	20902
867.972	20982
868.103	20925
868.233	21051
868.364	20990
868.495	21100
868.625	21230
868.756	21264
868.886	21165
869.017	21344
869.147	21340
869.278	21291
869.408	21283
869.539	21214
869.669	21340
869.799	21348
869.929	21340
870.06	21363
870.19	21557
870.32	21564
870.45	21534
870.58	21595
870.71	21625
870.84	21736
870.97	21701
871.1	21580
871.23	21956
871.36	21865
871.489	21641
871.619	21774
871.749	21793
871.879	21808
872.008	21915
872.138	21846
872.267	21819
872.397	21705
872.526	21690
872.656	21694
872.785	21720
872.915	21831
873.044	21926
873.173	21854
873.303	21800
873.432	21838
873.561	21873
873.69	21816
873.819	21895
873.948	21956
874.077	21835
874.206	21709
874.335	21816
874.464	21915
874.593	22074
874.722	21945
874.851	22128
874.979	22086
875.108	22074
875.237	22017
875.365	21926
875.494	22059
875.623	22093
875.751	21895
875.88	22120
876.008	22223
876.136	22284
876.265	22474
876.393	22580
876.521	22523
876.65	22546
876.778	22580
876.906	22382
877.034	22314
877.162	22409
877.29	22382
877.418	22462
877.546	22504
877.674	22512
877.802	22386
877.93	22371
878.058	22428
878.185	22211
878.313	22417
878.441	22405
878.568	22185
878.696	22432
878.824	22436
878.951	22459
879.079	22542
879.206	22744
879.333	22603
879.461	22542
879.588	22611
879.715	22596
879.842	22740
879.97	22318
880.097	22154
880.224	22162
880.351	22219
880.478	22253
880.605	22211
880.732	22185
880.859	22466
880.986	22211
881.112	22272
881.239	22036
881.366	21964
881.493	21899
881.619	21762
881.746	21736
881.872	21743
881.999	21766
882.125	21690
882.252	21827
882.378	21755
882.505	21797
882.631	21705
882.757	21511
882.883	21648
883.01	21462
883.136	21424
883.262	21401
883.388	21351
883.514	21485
883.64	21572
883.766	21462
883.892	21249
884.018	21272
884.143	21420
884.269	21606
884.395	21055
884.52	21108
884.646	21256
884.772	21013
884.897	21036
885.023	21157
885.148	21218
885.274	21157
885.399	21135
885.524	21211
885.65	21116
885.775	21127
885.9	21005
886.025	21237
886.15	21085
886.275	21062
886.4	21123
886.525	21146
886.65	20998
886.775	21005
886.9	21127
887.025	21306
887.149	21165
887.274	20941
887.399	20971
887.523	20788
887.648	20853
887.773	20788
887.897	21032
888.021	20914
888.146	20872
888.27	20979
888.395	21077
888.519	20963
888.643	20986
888.767	20910
888.891	20800
889.015	20708
889.139	20773
889.263	20697
889.387	20788
889.511	20895
889.635	20876
889.759	20823
889.883	20716
890.006	20834
890.13	20819
890.254	20693
890.377	20632
890.501	20446
890.624	20469
890.748	20492
890.871	20298
890.995	20237
891.118	20202
891.241	20358
891.364	20282
891.488	20461
891.611	20202
891.734	20454
891.857	20313
891.98	20286
892.103	20320
892.226	20263
892.349	20305
892.471	20103
892.594	20271
892.717	20290
892.839	20149
892.962	20172
893.085	20210
893.207	20142
893.33	20077
893.452	20084
893.575	20183
893.697	20180
893.819	20385
893.941	20336
894.064	20320
894.186	20088
894.308	20111
894.43	20271
894.552	20423
894.674	20244
894.796	20084
894.918	20149
895.04	20248
895.161	20244
895.283	20164
895.405	20168
895.526	20248
895.648	20225
895.769	20229
895.891	20142
896.012	20271
896.134	20259
896.255	20187
896.376	20164
896.498	20309
896.619	20180
896.74	20164
896.861	20210
896.982	20526
897.103	20712
897.224	20495
897.345	20423
897.466	20366
897.587	20355
897.708	20461
897.828	20484
897.949	20396
898.07	20256
898.19	20305
898.311	20461
898.431	20317
898.552	20343
898.672	20419
898.792	20461
898.913	20393
899.033	20206
899.153	20218
899.273	20081
899.393	20077
899.513	20240
899.633	20221
899.753	20149
899.873	20039
899.993	20195
900.113	20054
900.232	20191
900.352	20058
900.472	20027
900.591	19925
900.711	19967
900.83	19750
900.95	19936
901.069	19944
901.189	19795
901.308	19605
901.427	19476
901.546	19533
901.665	19476
901.784	19586
901.904	19362
902.023	19285
902.141	19160
902.26	19099
902.379	19031
902.498	19004
902.617	18913
902.735	19122
902.854	18985
902.973	18916
903.091	18658
903.21	18764
903.328	18700
903.446	18696
903.565	18441
903.683	18448
903.801	18422
903.919	18502
904.038	18369
904.156	18296
904.274	18323
904.392	18258
904.51	18247
904.627	18330
904.745	18163
904.863	18262
904.981	18091
905.098	17950
905.216	17942
905.334	18003
905.451	17954
905.569	18034
905.686	17950
905.803	17931
905.921	17646
906.038	17843
906.155	17760
906.272	17691
906.389	17589
906.506	17486
906.623	17463
906.74	17436
906.857	17391
906.974	17387
907.091	17444
907.208	17562
907.324	17482
907.441	17353
907.557	17159
907.674	17178
907.79	17132
907.907	17147
908.023	17143
908.139	17220
908.256	17178
908.372	17037
908.488	17022
908.604	16778
908.72	16927
908.836	16942
908.952	16858
909.068	16900
909.184	17018
909.3	16911
909.415	16946
909.531	16850
909.647	16637
909.762	16668
909.878	16588
909.993	16550
910.108	16462
910.224	16550
910.339	16573
910.454	16500
910.57	16440
910.685	16299
910.8	16592
910.915	16618
911.03	16367
911.145	16196
911.259	16181
911.374	16124
911.489	16078
911.604	16055
911.718	15949
911.833	15911
911.947	15884
912.062	15819
912.176	16013
912.291	15884
912.405	15972
912.519	16154
912.633	16139
912.748	15922
912.862	15854
912.976	15770
913.09	15633
913.204	15663
913.318	15694
913.431	15819
913.545	15793
913.659	15854
913.772	15644
913.886	15652
914	15572
914.113	15652
914.226	15622
914.34	15549
914.453	15466
914.566	15580
914.68	15382
914.793	15408
914.906	15203
915.019	15184
915.132	15135
915.245	15241
915.358	15039
915.47	15184
915.583	15116
915.696	15150
915.809	15226
915.921	15237
916.034	15028
916.146	15020
916.259	15047
916.371	15176
916.483	15108
916.595	14883
916.708	14952
916.82	14986
916.932	14902
917.044	14975
917.156	14849
917.268	14902
917.38	14712
917.491	14739
917.603	14853
917.715	14834
917.826	14902
917.938	14838
918.049	14648
918.161	14701
918.272	14811
918.384	14826
918.495	14651
918.606	14621
918.717	14503
918.828	14545
918.939	14545
919.05	14492
919.161	14465
919.272	14336
919.383	14507
919.494	14564
919.604	14830
919.715	14537
919.826	14438
919.936	14480
920.047	14575
920.157	14560
920.267	14743
920.378	14526
920.488	14514
920.598	14682
920.708	14765
920.818	14731
920.928	14621
921.038	14876
921.148	14678
921.258	14526
921.368	14492
921.477	14187
921.587	14183
921.697	14161
921.806	14233
921.916	14157
922.025	13944
922.134	13928
922.244	13887
922.353	13913
922.462	13784
922.571	13776
922.68	13578
922.789	13464
922.898	13544
923.007	13480
923.116	13636
923.224	13499
923.333	13487
923.442	13434
923.55	13354
923.659	13407
923.767	13324
923.876	13384
923.984	13434
924.092	13266
924.201	13373
924.309	13308
924.417	13377
924.525	13225
924.633	13228
924.741	13947
924.849	12973
924.956	13122
925.064	13000
925.172	12977
925.279	12886
925.387	13038
925.494	13023
925.602	13103
925.709	12909
925.816	12905
925.924	12897
926.031	13061
926.138	12928
926.245	12894
926.352	12730
926.459	12909
926.566	12962
926.673	12764
926.779	12783
926.886	12795
926.993	12563
927.099	12536
927.206	12464
927.312	12475
927.419	12585
927.525	12475
927.631	12490
927.737	12452
927.843	12384
927.95	12277
928.056	12357
928.162	12338
928.267	12388
928.373	12935
928.479	12334
928.585	12251
928.69	12285
928.796	12353
928.901	12197
929.007	12041
929.112	12239
929.218	12072
929.323	12079
929.428	12011
929.533	12152
929.638	11958
929.743	12015
929.848	12121
929.953	12041
930.058	11961
930.163	11783
930.267	11779
930.372	11950
930.477	11718
930.581	11916
930.685	11733
930.79	11657
930.894	11699
930.998	11638
931.103	11718
931.207	11368
931.311	11455
931.415	11292
931.519	10999
931.623	11045
