Data from test_V78500241_2326.txt Node
Date: Fri Mar 25 15:26:03 CST 2022
User: usil
Spectrometer: V785-0024
Trigger mode: 0
Integration Time (sec): 4.000000E-1
Scans to average: 1
Nonlinearity correction enabled: false
Boxcar width: 0
Storing dark spectrum: false
XAxis mode: Wavelengths
Number of Pixels in Spectrum: 1024
>>>>>Begin Spectral Data<<<<<
801.071	27454
801.214	27401
801.356	27199
801.499	27222
801.641	26918
801.783	26994
801.926	27096
802.068	27081
802.211	27047
802.353	26891
802.496	26758
802.638	26678
802.78	26663
802.923	26549
803.065	26518
803.208	26689
803.35	26663
803.492	26804
803.635	26838
803.777	26899
803.919	26887
804.061	27256
804.204	26899
804.346	26781
804.488	26834
804.63	26823
804.773	26712
804.915	26933
805.057	27096
805.199	26796
805.341	26979
805.483	27062
805.626	26975
805.768	26925
805.91	26937
806.052	26963
806.194	26906
806.336	27176
806.478	27013
806.62	26982
806.762	27203
806.904	27332
807.046	27496
807.188	27393
807.33	27306
807.472	27492
807.614	27184
807.756	27336
807.898	27306
808.04	27116
808.182	27260
808.324	27272
808.465	27374
808.607	27397
808.749	27564
808.891	27622
809.033	27751
809.174	27698
809.316	27686
809.458	27561
809.6	27610
809.741	27667
809.883	27846
810.025	27880
810.166	27907
810.308	27880
810.45	27934
810.591	27747
810.733	27705
810.875	27606
811.016	27389
811.158	27500
811.299	27572
811.441	27732
811.582	27686
811.724	27507
811.865	27564
812.007	27523
812.148	27462
812.29	27705
812.431	27720
812.573	28032
812.714	27880
812.855	28105
812.997	28048
813.138	28280
813.279	28211
813.421	28097
813.562	28055
813.703	27850
813.845	27827
813.986	27663
814.127	27275
814.268	27188
814.41	27340
814.551	27329
814.692	27317
814.833	27332
814.974	27161
815.115	27214
815.256	27169
815.397	27146
815.539	27180
815.68	27005
815.821	26979
815.962	27157
816.103	26975
816.244	27180
816.385	26895
816.526	26857
816.666	26594
816.807	26499
816.948	26659
817.089	26598
817.23	26648
817.371	26336
817.512	26556
817.653	26415
817.793	26450
817.934	26476
818.075	26404
818.216	26549
818.356	26571
818.497	26461
818.638	26256
818.778	26313
818.919	26362
819.06	26351
819.2	26343
819.341	26453
819.481	26530
819.622	26773
819.762	26743
819.903	26697
820.043	26667
820.184	26438
820.324	26708
820.465	26682
820.605	26632
820.746	26507
820.886	26507
821.026	26697
821.167	26556
821.307	26621
821.447	26598
821.588	26343
821.728	26301
821.868	26096
822.008	26031
822.149	26024
822.289	26008
822.429	25814
822.569	25746
822.709	25571
822.849	25590
822.99	25384
823.13	25533
823.27	25438
823.41	25274
823.55	25247
823.69	25270
823.83	25301
823.97	25206
824.11	24996
824.25	25084
824.389	25179
824.529	25244
824.669	25148
824.809	25118
824.949	25179
825.089	25244
825.228	25251
825.368	25110
825.508	25091
825.648	24962
825.787	25053
825.927	25099
826.067	24734
826.206	24996
826.346	24958
826.485	25110
826.625	25008
826.765	25046
826.904	24920
827.044	24741
827.183	24661
827.323	24665
827.462	24768
827.601	24757
827.741	24703
827.88	24798
828.02	24460
828.159	24616
828.298	24749
828.437	24688
828.577	24707
828.716	24703
828.855	24661
828.994	24334
829.134	24437
829.273	24429
829.412	24426
829.551	24380
829.69	24357
829.829	24498
829.968	24467
830.107	24346
830.246	24593
830.385	24323
830.524	24357
830.663	24076
830.802	24125
830.941	24038
831.08	23980
831.219	24114
831.357	24133
831.496	24277
831.635	24018
831.774	23923
831.913	23920
832.051	23843
832.19	23824
832.329	23790
832.467	23649
832.606	23665
832.744	23600
832.883	23592
833.022	23592
833.16	23836
833.299	23634
833.437	23672
833.576	23710
833.714	23821
833.852	23733
833.991	23859
834.129	23832
834.267	23954
834.406	23687
834.544	23741
834.682	23684
834.821	23733
834.959	23904
835.097	23676
835.235	23794
835.373	23707
835.511	23627
835.65	23524
835.788	23604
835.926	23471
836.064	23455
836.202	23505
836.34	23570
836.478	23570
836.615	23482
836.753	23551
836.891	23714
837.029	23623
837.167	23573
837.305	23505
837.443	23417
837.58	23364
837.718	23414
837.856	23528
837.993	23497
838.131	23425
838.269	23326
838.406	23341
838.544	23181
838.681	23098
838.819	23159
838.956	22877
839.094	22881
839.231	22968
839.369	23025
839.506	23334
839.643	23216
839.781	22946
839.918	22835
840.055	22793
840.193	22892
840.33	22793
840.467	22816
840.604	22752
840.742	23155
840.879	22679
841.016	22687
841.153	22725
841.29	22957
841.427	22835
841.564	22820
841.701	22755
841.838	22767
841.975	22702
842.112	22767
842.249	22637
842.385	22649
842.522	22786
842.659	22672
842.796	22611
842.933	22683
843.069	22637
843.206	22409
843.343	22637
843.479	22573
843.616	22580
843.752	22474
843.889	22295
844.025	22478
844.162	22348
844.298	22440
844.435	22299
844.571	22257
844.708	22405
844.844	22462
844.98	22481
845.117	22413
845.253	22276
845.389	22192
845.525	22295
845.661	22284
845.798	22147
845.934	22207
846.07	21941
846.206	22101
846.342	22048
846.478	22090
846.614	21823
846.75	21857
846.886	21991
847.022	21861
847.158	21835
847.294	21869
847.429	21903
847.565	21759
847.701	22055
847.837	21652
847.972	21580
848.108	21618
848.244	21583
848.379	21382
848.515	21325
848.65	21462
848.786	21374
848.921	21466
849.057	21538
849.192	21405
849.328	21466
849.463	21420
849.598	21405
849.734	21344
849.869	21291
850.004	21146
850.14	21116
850.275	21264
850.41	21135
850.545	21058
850.68	21142
850.815	21173
850.95	21272
851.085	21374
851.22	21199
851.355	21093
851.49	21203
851.625	21195
851.76	21207
851.895	21036
852.03	20994
852.165	21036
852.299	21245
852.434	21264
852.569	21180
852.703	21199
852.838	21138
852.973	21283
853.107	21272
853.242	21184
853.376	20944
853.511	20804
853.645	20788
853.78	21043
853.914	20933
854.048	21043
854.183	20967
854.317	21036
854.451	21237
854.585	20956
854.72	21043
854.854	21024
854.988	20914
855.122	20941
855.256	20880
855.39	20948
855.524	21058
855.658	21013
855.792	21020
855.926	21009
856.06	21043
856.194	21032
856.327	21055
856.461	20819
856.595	21001
856.729	21055
856.862	21150
856.996	20971
857.13	20967
857.263	21100
857.397	21100
857.53	21043
857.664	20956
857.797	21096
857.931	21154
858.064	21001
858.197	21245
858.331	20952
858.464	20929
858.597	20914
858.731	20986
858.864	20895
858.997	21047
859.13	21013
859.263	21074
859.396	20956
859.529	21039
859.662	20883
859.795	21055
859.928	21024
860.061	21096
860.194	21104
860.327	21039
860.46	20986
860.592	21135
860.725	21222
860.858	21028
860.99	21058
861.123	20975
861.256	20929
861.388	21085
861.521	21610
861.653	20849
861.786	20785
861.918	20781
862.05	20762
862.183	21017
862.315	21024
862.447	20929
862.58	20830
862.712	20670
862.844	20697
862.976	20800
863.108	20811
863.24	21188
863.372	20682
863.504	20693
863.636	20651
863.768	20609
863.9	20765
864.032	20720
864.164	20613
864.296	20689
864.428	20883
864.559	20842
864.691	20804
864.823	20686
864.954	20686
865.086	20644
865.217	20651
865.349	20571
865.48	20640
865.612	20552
865.743	20739
865.875	20609
866.006	20552
866.137	20655
866.269	20735
866.4	20613
866.531	20549
866.662	20469
866.793	20526
866.924	20492
867.055	20568
867.186	20579
867.317	20545
867.448	20537
867.579	20571
867.71	20442
867.841	20518
867.972	20533
868.103	20427
868.233	20609
868.364	20396
868.495	20640
868.625	20667
868.756	20861
868.886	20769
869.017	20777
869.147	20804
869.278	20921
869.408	20754
869.539	20800
869.669	20838
869.799	20853
869.929	20899
870.06	20883
870.19	21169
870.32	21055
870.45	21058
870.58	21131
870.71	21374
870.84	21336
870.97	21230
871.1	21188
871.23	21332
871.36	21329
871.489	21279
871.619	21351
871.749	21405
871.879	21393
872.008	21553
872.138	21473
872.267	21370
872.397	21218
872.526	21211
872.656	21275
872.785	21363
872.915	21466
873.044	21622
873.173	21355
873.303	21492
873.432	21405
873.561	21488
873.69	21507
873.819	21344
873.948	21504
874.077	21378
874.206	21325
874.335	21428
874.464	21576
874.593	21724
874.722	21553
874.851	21686
874.979	21835
875.108	21743
875.237	21660
875.365	21644
875.494	21660
875.623	21698
875.751	21633
875.88	21652
876.008	21804
876.136	21884
876.265	22048
876.393	22158
876.521	22196
876.65	22192
876.778	22109
876.906	22074
877.034	22067
877.162	22048
877.29	21968
877.418	22040
877.546	21987
877.674	22040
877.802	21956
877.93	22147
878.058	21934
878.185	21857
878.313	21991
878.441	21915
878.568	21899
878.696	22036
878.824	22006
878.951	22048
879.079	22276
879.206	22360
879.333	22242
879.461	22032
879.588	22105
879.715	22154
879.842	22310
879.97	22082
880.097	21899
880.224	21816
880.351	21831
880.478	21846
880.605	21690
880.732	21918
880.859	22070
880.986	21759
881.112	21857
881.239	21675
881.366	21583
881.493	21637
881.619	21485
881.746	21477
881.872	21355
881.999	21351
882.125	21306
882.252	21416
882.378	21313
882.505	21473
882.631	21336
882.757	21184
882.883	21192
883.01	21127
883.136	21116
883.262	20937
883.388	21001
883.514	21195
883.64	21157
883.766	21024
883.892	20834
884.018	20853
884.143	21123
884.269	21268
884.395	20861
884.52	20758
884.646	20815
884.772	20785
884.897	20716
885.023	20708
885.148	20899
885.274	20921
885.399	20956
885.524	20765
885.65	20651
885.775	20724
885.9	20754
886.025	20899
886.15	20891
886.275	20731
886.4	20632
886.525	20655
886.65	20678
886.775	20545
886.9	20746
887.025	20823
887.149	20754
887.274	20564
887.399	20507
887.523	20602
887.648	20434
887.773	20396
887.897	20537
888.021	20518
888.146	20533
888.27	20644
888.395	20590
888.519	20746
888.643	20655
888.767	20632
888.891	20446
889.015	20320
889.139	20415
889.263	20332
889.387	20434
889.511	20590
889.635	20503
889.759	20305
889.883	20385
890.006	20355
890.13	20339
890.254	20374
890.377	20282
890.501	20161
890.624	20008
890.748	20084
890.871	19989
890.995	19795
891.118	19875
891.241	19803
891.364	19944
891.488	20008
891.611	19936
891.734	19928
891.857	19982
891.98	19837
892.103	20016
892.226	19856
892.349	19799
892.471	19613
892.594	19845
892.717	19894
892.839	19890
892.962	19807
893.085	20001
893.207	19940
893.33	19700
893.452	19651
893.575	19715
893.697	19753
893.819	19970
893.941	20050
894.064	19902
894.186	19811
894.308	19814
894.43	19913
894.552	19955
894.674	19913
894.796	19769
894.918	19753
895.04	19807
895.161	19776
895.283	19875
895.405	19670
895.526	19788
895.648	19795
895.769	19879
895.891	19772
896.012	19875
896.134	19887
896.255	19715
896.376	19856
896.498	19807
896.619	19868
896.74	19856
896.861	19868
896.982	20008
897.103	20343
897.224	20149
897.345	20084
897.466	20005
897.587	20046
897.708	20126
897.828	20073
897.949	20016
898.07	19871
898.19	19917
898.311	20103
898.431	20031
898.552	20096
898.672	20122
898.792	20107
898.913	19993
899.033	19864
899.153	19947
899.273	19890
899.393	19780
899.513	19856
899.633	19849
899.753	19788
899.873	19807
899.993	19826
900.113	19818
900.232	19830
900.352	19643
900.472	19655
900.591	19624
900.711	19632
900.83	19628
900.95	19681
901.069	19616
901.189	19438
901.308	19263
901.427	19141
901.546	19095
901.665	19270
901.784	19278
901.904	19012
902.023	18939
902.141	18677
902.26	18825
902.379	18745
902.498	18597
902.617	18631
902.735	18681
902.854	18715
902.973	18669
903.091	18353
903.21	18429
903.328	18407
903.446	18372
903.565	18232
903.683	18239
903.801	18148
903.919	18015
904.038	18060
904.156	17942
904.274	18053
904.392	17893
904.51	17897
904.627	17923
904.745	17969
904.863	18007
904.981	17798
905.098	17638
905.216	17638
905.334	17684
905.451	17630
905.569	17596
905.686	17642
905.803	17551
905.921	17356
906.038	17585
906.155	17417
906.272	17250
906.389	17334
906.506	17280
906.623	17132
906.74	17162
906.857	17018
906.974	17124
907.091	17223
907.208	17227
907.324	17197
907.441	16991
907.557	16908
907.674	16733
907.79	16755
907.907	16980
908.023	16930
908.139	16904
908.256	16850
908.372	16725
908.488	16809
908.604	16478
908.72	16512
908.836	16675
908.952	16588
909.068	16656
909.184	16660
909.3	16535
909.415	16656
909.531	16653
909.647	16341
909.762	16314
909.878	16253
909.993	16325
910.108	16329
910.224	16238
910.339	16310
910.454	16166
910.57	16211
910.685	16067
910.8	16291
910.915	16223
911.03	16059
911.145	15937
911.259	15956
911.374	15934
911.489	15857
911.604	15675
911.718	15679
911.833	15606
911.947	15641
912.062	15564
912.176	15606
912.291	15660
912.405	15606
912.519	15812
912.633	15854
912.748	15717
912.862	15568
912.976	15435
913.09	15336
913.204	15405
913.318	15405
913.431	15507
913.545	15553
913.659	15561
913.772	15435
913.886	15294
914	15283
914.113	15420
914.226	15412
914.34	15428
914.453	15203
914.566	15291
914.68	15192
914.793	15131
914.906	14941
915.019	14883
915.132	14743
915.245	14902
915.358	14853
915.47	14941
915.583	14921
915.696	14994
915.809	14925
915.921	15009
916.034	14933
916.146	14743
916.259	14727
916.371	14823
916.483	14804
916.595	14705
916.708	14750
916.82	14724
916.932	14602
917.044	14579
917.156	14606
917.268	14488
917.38	14674
917.491	14434
917.603	14514
917.715	14625
917.826	14560
917.938	14549
918.049	14374
918.161	14518
918.272	14571
918.384	14682
918.495	14507
918.606	14305
918.717	14244
918.828	14389
918.939	14408
919.05	14210
919.161	14301
919.272	14153
919.383	14180
919.494	14301
919.604	14499
919.715	14339
919.826	14180
919.936	14286
920.047	14332
920.157	14210
920.267	14518
920.378	14355
920.488	14278
920.598	14454
920.708	14613
920.818	14427
920.928	14412
921.038	14587
921.148	14545
921.258	14267
921.368	14145
921.477	14008
921.587	13982
921.697	13909
921.806	13997
921.916	13909
922.025	13719
922.134	13700
922.244	13575
922.353	13605
922.462	13514
922.571	13472
922.68	13419
922.789	13228
922.898	13301
923.007	13293
923.116	13327
923.224	13335
923.333	13274
923.442	13179
923.55	13107
923.659	13232
923.767	13274
923.876	13061
923.984	13164
924.092	13084
924.201	13057
924.309	13141
924.417	13015
924.525	12981
924.633	12954
924.741	13845
924.849	12783
924.956	12897
925.064	12734
925.172	12722
925.279	12833
925.387	12791
925.494	12719
925.602	12932
925.709	12719
925.816	12753
925.924	12658
926.031	12734
926.138	12696
926.245	12798
926.352	12627
926.459	12833
926.566	12821
926.673	12612
926.779	12536
926.886	12437
926.993	12365
927.099	12266
927.206	12243
927.312	12311
927.419	12353
927.525	12414
927.631	12273
927.737	12243
927.843	12159
927.95	12045
928.056	12095
928.162	12133
928.267	12175
928.373	12669
928.479	12213
928.585	12060
928.69	12083
928.796	12114
928.901	11999
929.007	11874
929.112	12015
929.218	12011
929.323	11904
929.428	11870
929.533	12007
929.638	11805
929.743	11851
929.848	11920
929.953	11824
930.058	11710
930.163	11554
930.267	11581
930.372	11726
930.477	11417
930.581	11756
930.685	11566
930.79	11406
930.894	11444
930.998	11440
931.103	11592
931.207	11159
931.311	11155
931.415	11056
931.519	10755
931.623	10793
