Data from test_V78500241_2284.txt Node
Date: Fri Mar 25 15:25:45 CST 2022
User: usil
Spectrometer: V785-0024
Trigger mode: 0
Integration Time (sec): 4.000000E-1
Scans to average: 1
Nonlinearity correction enabled: false
Boxcar width: 0
Storing dark spectrum: false
XAxis mode: Wavelengths
Number of Pixels in Spectrum: 1024
>>>>>Begin Spectral Data<<<<<
801.071	27804
801.214	27583
801.356	27504
801.499	27256
801.641	27264
801.783	27161
801.926	27382
802.068	27275
802.211	27066
802.353	27211
802.496	26952
802.638	26986
802.78	26868
802.923	26754
803.065	26769
803.208	26781
803.35	26849
803.492	27036
803.635	27131
803.777	27074
803.919	27066
804.061	27416
804.204	27161
804.346	27100
804.488	26982
804.63	26990
804.773	26960
804.915	26982
805.057	27032
805.199	27207
805.341	27074
805.483	27226
805.626	27116
805.768	27150
805.91	27127
806.052	27378
806.194	27077
806.336	27450
806.478	27268
806.62	27252
806.762	27310
806.904	27485
807.046	27732
807.188	27644
807.33	27641
807.472	27732
807.614	27572
807.756	27606
807.898	27534
808.04	27310
808.182	27348
808.324	27652
808.465	27564
808.607	27610
808.749	27838
808.891	27838
809.033	27937
809.174	27835
809.316	27823
809.458	27705
809.6	27892
809.741	27907
809.883	28097
810.025	28051
810.166	28029
810.308	28246
810.45	27953
810.591	27975
810.733	27838
810.875	27835
811.016	27625
811.158	27709
811.299	27873
811.441	27717
811.582	27949
811.724	27827
811.865	27854
812.007	27785
812.148	27831
812.29	27857
812.431	28097
812.573	28147
812.714	28173
812.855	28226
812.997	28497
813.138	28546
813.279	28527
813.421	28386
813.562	28242
813.703	27979
813.845	27918
813.986	27747
814.127	27705
814.268	27576
814.41	27530
814.551	27511
814.692	27564
814.833	27450
814.974	27427
815.115	27576
815.256	27549
815.397	27363
815.539	27321
815.68	27348
815.821	27157
815.962	27351
816.103	27256
816.244	27138
816.385	27104
816.526	27123
816.666	26952
816.807	26667
816.948	26842
817.089	26899
817.23	26796
817.371	26823
817.512	26693
817.653	26708
817.793	26724
817.934	26689
818.075	26823
818.216	26815
818.356	26678
818.497	26636
818.638	26533
818.778	26457
818.919	26568
819.06	26457
819.2	26640
819.341	26678
819.481	26674
819.622	26883
819.762	27058
819.903	26918
820.043	26990
820.184	26948
820.324	26891
820.465	27028
820.605	26834
820.746	26861
820.886	26800
821.026	26849
821.167	26899
821.307	26861
821.447	26758
821.588	26640
821.728	26568
821.868	26469
822.008	26214
822.149	26126
822.289	26084
822.429	26027
822.569	25928
822.709	25913
822.849	25769
822.99	25769
823.13	25685
823.27	25723
823.41	25628
823.55	25464
823.69	25476
823.83	25537
823.97	25434
824.11	25434
824.25	25285
824.389	25324
824.529	25415
824.669	25449
824.809	25563
824.949	25419
825.089	25533
825.228	25514
825.368	25190
825.508	25217
825.648	25225
825.787	25308
825.927	25289
826.067	25202
826.206	25274
826.346	25274
826.485	25304
826.625	25160
826.765	25362
826.904	25206
827.044	25027
827.183	25061
827.323	24909
827.462	24977
827.601	25008
827.741	24890
827.88	24894
828.02	24798
828.159	25053
828.298	24821
828.437	24977
828.577	24992
828.716	25057
828.855	24935
828.994	24722
829.134	24631
829.273	24566
829.412	24589
829.551	24681
829.69	24639
829.829	24597
829.968	24688
830.107	24734
830.246	24604
830.385	24608
830.524	24555
830.663	24384
830.802	24350
830.941	24213
831.08	24232
831.219	24372
831.357	24327
831.496	24445
831.635	24133
831.774	24209
831.913	24243
832.051	23927
832.19	24018
832.329	24091
832.467	23954
832.606	23870
832.744	23927
832.883	23904
833.022	23832
833.16	24022
833.299	23950
833.437	24030
833.576	23958
833.714	24018
833.852	23977
833.991	23984
834.129	24034
834.267	24152
834.406	23999
834.544	23912
834.682	23999
834.821	23992
834.959	24018
835.097	23984
835.235	24079
835.373	23992
835.511	23897
835.65	23840
835.788	23870
835.926	23707
836.064	23573
836.202	23524
836.34	23901
836.478	23821
836.615	23824
836.753	23733
836.891	23923
837.029	23855
837.167	23752
837.305	23676
837.443	23668
837.58	23733
837.718	23707
837.856	23566
837.993	23653
838.131	23615
838.269	23406
838.406	23531
838.544	23463
838.681	23334
838.819	23269
838.956	23166
839.094	23079
839.231	23235
839.369	23239
839.506	23547
839.643	23436
839.781	23151
839.918	23018
840.055	23056
840.193	23113
840.33	23105
840.467	23022
840.604	23003
840.742	23261
840.879	22923
841.016	22972
841.153	22953
841.29	23181
841.427	23014
841.564	23022
841.701	23014
841.838	22991
841.975	23025
842.112	22816
842.249	22843
842.385	22786
842.522	22968
842.659	22744
842.796	22793
842.933	22847
843.069	22748
843.206	22725
843.343	22820
843.479	22786
843.616	22809
843.752	22584
843.889	22656
844.025	22687
844.162	22577
844.298	22535
844.435	22599
844.571	22527
844.708	22569
844.844	22793
844.98	22649
845.117	22557
845.253	22500
845.389	22508
845.525	22493
845.661	22455
845.798	22371
845.934	22363
846.07	22181
846.206	22276
846.342	22322
846.478	22348
846.614	22131
846.75	22086
846.886	22010
847.022	22154
847.158	22067
847.294	22048
847.429	22128
847.565	21930
847.701	22246
847.837	21724
847.972	21797
848.108	21926
848.244	21850
848.379	21717
848.515	21747
848.65	21614
848.786	21698
848.921	21686
849.057	21831
849.192	21766
849.328	21694
849.463	21572
849.598	21614
849.734	21511
849.869	21367
850.004	21408
850.14	21321
850.275	21355
850.41	21401
850.545	21370
850.68	21310
850.815	21466
850.95	21287
851.085	21549
851.22	21477
851.355	21382
851.49	21469
851.625	21420
851.76	21359
851.895	21336
852.03	21108
852.165	21431
852.299	21477
852.434	21431
852.569	21408
852.703	21275
852.838	21671
852.973	21504
853.107	21485
853.242	21416
853.376	21203
853.511	21047
853.645	21150
853.78	21332
853.914	21252
854.048	21222
854.183	21135
854.317	21348
854.451	21439
854.585	21169
854.72	21317
854.854	21351
854.988	21218
855.122	21199
855.256	21047
855.39	21241
855.524	21294
855.658	21245
855.792	21351
855.926	21184
856.06	21142
856.194	21374
856.327	21241
856.461	21157
856.595	21138
856.729	21104
856.862	21317
856.996	21226
857.13	21332
857.263	21294
857.397	21329
857.53	21138
857.664	21275
857.797	21226
857.931	21306
858.064	21249
858.197	21317
858.331	21188
858.464	21157
858.597	21138
858.731	21131
858.864	21203
858.997	21226
859.13	21222
859.263	21233
859.396	21203
859.529	21058
859.662	21222
859.795	21070
859.928	21230
860.061	21363
860.194	21355
860.327	21298
860.46	21279
860.592	21428
860.725	21382
860.858	21340
860.99	21093
861.123	21062
861.256	21249
861.388	21252
861.521	21979
861.653	20929
861.786	21131
861.918	21085
862.05	21173
862.183	21176
862.315	21104
862.447	21237
862.58	21077
862.712	20975
862.844	20872
862.976	21047
863.108	20963
863.24	21367
863.372	20849
863.504	21013
863.636	21005
863.768	20933
863.9	20857
864.032	20811
864.164	20842
864.296	21009
864.428	21070
864.559	20994
864.691	21062
864.823	20838
864.954	21032
865.086	20944
865.217	20773
865.349	20830
865.48	20872
865.612	20819
865.743	20933
865.875	20849
866.006	20800
866.137	20887
866.269	20705
866.4	20708
866.531	20682
866.662	20705
866.793	20743
866.924	20708
867.055	20815
867.186	20769
867.317	20781
867.448	20686
867.579	20701
867.71	20682
867.841	20765
867.972	20788
868.103	20819
868.233	20697
868.364	20765
868.495	20880
868.625	20899
868.756	21138
868.886	20876
869.017	20906
869.147	21058
869.278	21104
869.408	20975
869.539	21039
869.669	21051
869.799	21058
869.929	21112
870.06	21077
870.19	21336
870.32	21332
870.45	21310
870.58	21481
870.71	21447
870.84	21519
870.97	21393
871.1	21332
871.23	21481
871.36	21488
871.489	21519
871.619	21523
871.749	21633
871.879	21523
872.008	21808
872.138	21561
872.267	21583
872.397	21591
872.526	21435
872.656	21408
872.785	21332
872.915	21709
873.044	21667
873.173	21641
873.303	21694
873.432	21698
873.561	21736
873.69	21648
873.819	21641
873.948	21618
874.077	21523
874.206	21519
874.335	21591
874.464	21694
874.593	21759
874.722	21892
874.851	21854
874.979	21781
875.108	21972
875.237	21808
875.365	21739
875.494	21850
875.623	21915
875.751	21747
875.88	21983
876.008	21918
876.136	22025
876.265	22268
876.393	22333
876.521	22356
876.65	22352
876.778	22162
876.906	22166
877.034	22158
877.162	22306
877.29	22086
877.418	22169
877.546	22166
877.674	22154
877.802	22322
877.93	22158
878.058	22116
878.185	22200
878.313	22154
878.441	22185
878.568	21915
878.696	22097
878.824	22158
878.951	22382
879.079	22306
879.206	22474
879.333	22249
879.461	22188
879.588	22329
879.715	22451
879.842	22390
879.97	22325
880.097	21949
880.224	21975
880.351	22048
880.478	22063
880.605	22032
880.732	22006
880.859	22215
880.986	21960
881.112	22059
881.239	21915
881.366	21743
881.493	21732
881.619	21641
881.746	21625
881.872	21622
881.999	21595
882.125	21675
882.252	21580
882.378	21564
882.505	21720
882.631	21367
882.757	21408
882.883	21393
883.01	21283
883.136	21211
883.262	21272
883.388	21176
883.514	21348
883.64	21344
883.766	21184
883.892	20975
884.018	21074
884.143	21188
884.269	21348
884.395	21051
884.52	20975
884.646	20921
884.772	20971
884.897	20830
885.023	20967
885.148	20891
885.274	21005
885.399	21017
885.524	20933
885.65	20979
885.775	20933
885.9	20906
886.025	21032
886.15	20994
886.275	20826
886.4	20735
886.525	20883
886.65	20872
886.775	20834
886.9	21036
887.025	21089
887.149	20842
887.274	20705
887.399	20625
887.523	20629
887.648	20625
887.773	20606
887.897	20815
888.021	20746
888.146	20625
888.27	20758
888.395	20785
888.519	20754
888.643	20746
888.767	20788
888.891	20575
889.015	20476
889.139	20560
889.263	20438
889.387	20674
889.511	20678
889.635	20674
889.759	20530
889.883	20442
890.006	20514
890.13	20617
890.254	20419
890.377	20431
890.501	20282
890.624	20145
890.748	20278
890.871	20134
890.995	20100
891.118	20016
891.241	20107
891.364	20084
891.488	20187
891.611	20054
891.734	20084
891.857	20161
891.98	20126
892.103	20176
892.226	20081
892.349	19997
892.471	19932
892.594	19955
892.717	19974
892.839	19970
892.962	20027
893.085	20081
893.207	20027
893.33	19849
893.452	19913
893.575	19982
893.697	19940
893.819	20168
893.941	20134
894.064	20240
894.186	19894
894.308	19833
894.43	20065
894.552	20161
894.674	20077
894.796	19833
894.918	19932
895.04	20020
895.161	19986
895.283	20016
895.405	19860
895.526	20027
895.648	19970
895.769	19967
895.891	20016
896.012	19913
896.134	19906
896.255	19871
896.376	19978
896.498	19967
896.619	20043
896.74	20065
896.861	20122
896.982	20301
897.103	20461
897.224	20172
897.345	20195
897.466	20126
897.587	20332
897.708	20332
897.828	20191
897.949	20126
898.07	20001
898.19	20115
898.311	20259
898.431	20134
898.552	20202
898.672	20324
898.792	20336
898.913	20096
899.033	20115
899.153	20088
899.273	19997
899.393	19894
899.513	19917
899.633	20024
899.753	19917
899.873	19917
899.993	19989
900.113	19925
900.232	19917
900.352	19868
900.472	19765
900.591	19628
900.711	19734
900.83	19719
900.95	19609
901.069	19769
901.189	19597
901.308	19616
901.427	19301
901.546	19400
901.665	19449
901.784	19297
901.904	19088
902.023	19053
902.141	18886
902.26	18886
902.379	19038
902.498	18833
902.617	18757
902.735	18798
902.854	18886
902.973	18817
903.091	18582
903.21	18566
903.328	18578
903.446	18414
903.565	18258
903.683	18369
903.801	18273
903.919	18323
904.038	18171
904.156	18117
904.274	18167
904.392	17977
904.51	17996
904.627	18133
904.745	18091
904.863	18102
904.981	17878
905.098	17680
905.216	17714
905.334	17790
905.451	17783
905.569	17783
905.686	17901
905.803	17661
905.921	17455
906.038	17615
906.155	17611
906.272	17467
906.389	17471
906.506	17296
906.623	17372
906.74	17273
906.857	17200
906.974	17083
907.091	17353
907.208	17341
907.324	17318
907.441	17181
907.557	17033
907.674	17056
907.79	16938
907.907	16938
908.023	17098
908.139	17056
908.256	16911
908.372	16904
908.488	16885
908.604	16694
908.72	16637
908.836	16736
908.952	16580
909.068	16694
909.184	16831
909.3	16759
909.415	16778
909.531	16744
909.647	16527
909.762	16322
909.878	16424
909.993	16478
910.108	16382
910.224	16341
910.339	16443
910.454	16185
910.57	16166
910.685	16192
910.8	16451
910.915	16500
911.03	16192
911.145	16036
911.259	16044
911.374	15937
911.489	15979
911.604	15964
911.718	15686
911.833	15808
911.947	15671
912.062	15545
912.176	15846
912.291	15728
912.405	15709
912.519	15930
912.633	15915
912.748	15728
912.862	15736
912.976	15610
913.09	15584
913.204	15542
913.318	15534
913.431	15644
913.545	15622
913.659	15739
913.772	15515
913.886	15367
914	15412
914.113	15435
914.226	15450
914.34	15466
914.453	15283
914.566	15393
914.68	15344
914.793	15256
914.906	15020
915.019	14925
915.132	14971
915.245	15024
915.358	15058
915.47	15100
915.583	14967
915.696	15013
915.809	15108
915.921	15142
916.034	15028
916.146	14933
916.259	14921
916.371	14979
916.483	14990
916.595	14823
916.708	14788
916.82	14826
916.932	14796
917.044	14785
917.156	14842
917.268	14689
917.38	14777
917.491	14610
917.603	14571
917.715	14720
917.826	14705
917.938	14632
918.049	14530
918.161	14716
918.272	14674
918.384	14765
918.495	14617
918.606	14454
918.717	14412
918.828	14537
918.939	14442
919.05	14370
919.161	14355
919.272	14332
919.383	14324
919.494	14495
919.604	14648
919.715	14370
919.826	14259
919.936	14336
920.047	14549
920.157	14457
920.267	14583
920.378	14461
920.488	14476
920.598	14644
920.708	14769
920.818	14514
920.928	14522
921.038	14636
921.148	14587
921.258	14374
921.368	14347
921.477	14214
921.587	14142
921.697	13978
921.806	14107
921.916	13970
922.025	13883
922.134	13811
922.244	13772
922.353	13750
922.462	13647
922.571	13662
922.68	13548
922.789	13464
922.898	13499
923.007	13384
923.116	13499
923.224	13403
923.333	13362
923.442	13331
923.55	13335
923.659	13365
923.767	13384
923.876	13255
923.984	13278
924.092	13179
924.201	13240
924.309	13183
924.417	13247
924.525	13042
924.633	13190
924.741	13902
924.849	12989
924.956	12993
925.064	12901
925.172	12753
925.279	12753
925.387	12901
925.494	12958
925.602	12829
925.709	13008
925.816	12795
925.924	12814
926.031	12863
926.138	12901
926.245	12871
926.352	12760
926.459	12798
926.566	12867
926.673	12745
926.779	12719
926.886	12604
926.993	12471
927.099	12479
927.206	12357
927.312	12422
927.419	12448
927.525	12521
927.631	12410
927.737	12315
927.843	12277
927.95	12228
928.056	12285
928.162	12258
928.267	12342
928.373	12837
928.479	12407
928.585	12121
928.69	12285
928.796	12232
928.901	12148
929.007	11965
929.112	12163
929.218	12038
929.323	12072
929.428	12034
929.533	12064
929.638	11927
929.743	12060
929.848	11920
929.953	11935
930.058	11688
930.163	11688
930.267	11767
930.372	11764
930.477	11642
930.581	11969
930.685	11729
930.79	11551
930.894	11585
930.998	11501
931.103	11733
931.207	11334
931.311	11315
931.415	11117
931.519	10961
931.623	11003
