Data from test_V78500241_1731.txt Node
Date: Fri Mar 25 15:21:54 CST 2022
User: usil
Spectrometer: V785-0024
Trigger mode: 0
Integration Time (sec): 4.000000E-1
Scans to average: 1
Nonlinearity correction enabled: false
Boxcar width: 0
Storing dark spectrum: false
XAxis mode: Wavelengths
Number of Pixels in Spectrum: 1024
>>>>>Begin Spectral Data<<<<<
801.071	27907
801.214	27857
801.356	27386
801.499	27526
801.641	27332
801.783	27291
801.926	27374
802.068	27424
802.211	27367
802.353	27340
802.496	27104
802.638	26967
802.78	27131
802.923	26967
803.065	27005
803.208	27119
803.35	26967
803.492	27279
803.635	27157
803.777	27199
803.919	27176
804.061	27557
804.204	27268
804.346	27241
804.488	26990
804.63	27214
804.773	27169
804.915	27264
805.057	27412
805.199	27268
805.341	27363
805.483	27564
805.626	27374
805.768	27237
805.91	27359
806.052	27447
806.194	27321
806.336	27542
806.478	27363
806.62	27420
806.762	27530
806.904	27713
807.046	27781
807.188	27865
807.33	27770
807.472	27823
807.614	27762
807.756	27945
807.898	27694
808.04	27656
808.182	27637
808.324	27618
808.465	27641
808.607	27850
808.749	28101
808.891	28086
809.033	28078
809.174	28036
809.316	27994
809.458	27880
809.6	28074
809.741	28120
809.883	28131
810.025	28268
810.166	28363
810.308	28303
810.45	28325
810.591	28284
810.733	27949
810.875	27956
811.016	27930
811.158	27770
811.299	28002
811.441	28143
811.582	28169
811.724	28010
811.865	27922
812.007	27956
812.148	28055
812.29	28063
812.431	28291
812.573	28382
812.714	28413
812.855	28588
812.997	28702
813.138	28828
813.279	28645
813.421	28527
813.562	28459
813.703	28394
813.845	28287
813.986	27869
814.127	27766
814.268	27736
814.41	27766
814.551	27629
814.692	27747
814.833	27671
814.974	27675
815.115	27793
815.256	27622
815.397	27591
815.539	27751
815.68	27473
815.821	27306
815.962	27458
816.103	27427
816.244	27405
816.385	27340
816.526	27298
816.666	27089
816.807	27032
816.948	27077
817.089	27157
817.23	27104
817.371	26994
817.512	26998
817.653	26990
817.793	27055
817.934	26925
818.075	27123
818.216	27043
818.356	27093
818.497	26929
818.638	26773
818.778	26724
818.919	26716
819.06	26746
819.2	26906
819.341	26906
819.481	26994
819.622	27047
819.762	27367
819.903	27241
820.043	27161
820.184	27260
820.324	27047
820.465	27112
820.605	27184
820.746	27135
820.886	26956
821.026	27077
821.167	27142
821.307	27214
821.447	26933
821.588	26902
821.728	26720
821.868	26560
822.008	26499
822.149	26427
822.289	26461
822.429	26256
822.569	26271
822.709	26115
822.849	26012
822.99	25993
823.13	25974
823.27	25852
823.41	25807
823.55	25639
823.69	25906
823.83	25849
823.97	25628
824.11	25708
824.25	25529
824.389	25594
824.529	25628
824.669	25559
824.809	25613
824.949	25822
825.089	25700
825.228	25677
825.368	25586
825.508	25411
825.648	25396
825.787	25464
825.927	25647
826.067	25518
826.206	25358
826.346	25575
826.485	25586
826.625	25575
826.765	25647
826.904	25552
827.044	25335
827.183	25362
827.323	25206
827.462	25327
827.601	25449
827.741	25171
827.88	25228
828.02	25122
828.159	25266
828.298	25164
828.437	25297
828.577	25129
828.716	25304
828.855	25209
828.994	25012
829.134	24844
829.273	24901
829.412	24970
829.551	24966
829.69	24943
829.829	24924
829.968	24989
830.107	25038
830.246	24951
830.385	24844
830.524	24844
830.663	24658
830.802	24779
830.941	24593
831.08	24635
831.219	24673
831.357	24646
831.496	24726
831.635	24688
831.774	24574
831.913	24380
832.051	24304
832.19	24346
832.329	24376
832.467	24296
832.606	24178
832.744	24152
832.883	24171
833.022	24163
833.16	24391
833.299	24197
833.437	24266
833.576	24300
833.714	24323
833.852	24361
833.991	24224
834.129	24300
834.267	24391
834.406	24380
834.544	24285
834.682	24327
834.821	24315
834.959	24502
835.097	24292
835.235	24361
835.373	24266
835.511	24346
835.65	24110
835.788	24136
835.926	24106
836.064	24049
836.202	24026
836.34	24148
836.478	24292
836.615	24087
836.753	24220
836.891	24205
837.029	24079
837.167	24011
837.305	24072
837.443	23950
837.58	23904
837.718	23988
837.856	23946
837.993	24045
838.131	24018
838.269	23783
838.406	23802
838.544	23817
838.681	23615
838.819	23611
838.956	23474
839.094	23364
839.231	23535
839.369	23611
839.506	23946
839.643	23726
839.781	23516
839.918	23398
840.055	23455
840.193	23356
840.33	23303
840.467	23353
840.604	23490
840.742	23554
840.879	23235
841.016	23368
841.153	23368
841.29	23414
841.427	23482
841.564	23356
841.701	23376
841.838	23250
841.975	23235
842.112	23212
842.249	23151
842.385	22976
842.522	23395
842.659	23162
842.796	23136
842.933	23143
843.069	23117
843.206	23094
843.343	23220
843.479	23200
843.616	23121
843.752	22934
843.889	23010
844.025	23056
844.162	22957
844.298	23037
844.435	22904
844.571	22991
844.708	22919
844.844	23041
844.98	22972
845.117	23037
845.253	22824
845.389	22919
845.525	22752
845.661	22691
845.798	22691
845.934	22733
846.07	22561
846.206	22729
846.342	22717
846.478	22565
846.614	22474
846.75	22329
846.886	22287
847.022	22344
847.158	22363
847.294	22287
847.429	22417
847.565	22238
847.701	22615
847.837	22032
847.972	22093
848.108	22090
848.244	22147
848.379	22010
848.515	21964
848.65	21873
848.786	21873
848.921	21991
849.057	22112
849.192	22021
849.328	22032
849.463	21880
849.598	21934
849.734	21762
849.869	21892
850.004	21785
850.14	21751
850.275	21713
850.41	21652
850.545	21739
850.68	21709
850.815	21789
850.95	21724
851.085	21895
851.22	21732
851.355	21831
851.49	21762
851.625	21682
851.76	21660
851.895	21637
852.03	21595
852.165	21698
852.299	21766
852.434	21743
852.569	21701
852.703	21637
852.838	21770
852.973	21865
853.107	21800
853.242	21660
853.376	21519
853.511	21511
853.645	21488
853.78	21694
853.914	21572
854.048	21625
854.183	21481
854.317	21500
854.451	21705
854.585	21519
854.72	21542
854.854	21690
854.988	21477
855.122	21485
855.256	21405
855.39	21618
855.524	21637
855.658	21511
855.792	21557
855.926	21576
856.06	21557
856.194	21568
856.327	21450
856.461	21386
856.595	21549
856.729	21576
856.862	21538
856.996	21572
857.13	21462
857.263	21587
857.397	21641
857.53	21549
857.664	21587
857.797	21724
857.931	21686
858.064	21530
858.197	21652
858.331	21557
858.464	21431
858.597	21386
858.731	21481
858.864	21488
858.997	21428
859.13	21424
859.263	21534
859.396	21751
859.529	21447
859.662	21401
859.795	21515
859.928	21553
860.061	21671
860.194	21679
860.327	21549
860.46	21644
860.592	21675
860.725	21675
860.858	21648
860.99	21443
861.123	21382
861.256	21549
861.388	21606
861.521	22169
861.653	21405
861.786	21317
861.918	21412
862.05	21370
862.183	21492
862.315	21389
862.447	21496
862.58	21351
862.712	21294
862.844	21173
862.976	21154
863.108	21279
863.24	21618
863.372	21146
863.504	21199
863.636	21180
863.768	21161
863.9	21260
864.032	21241
864.164	21264
864.296	21302
864.428	21298
864.559	21329
864.691	21340
864.823	21275
864.954	21233
865.086	21077
865.217	21165
865.349	20982
865.48	21081
865.612	21138
865.743	21275
865.875	21195
866.006	21074
866.137	21123
866.269	21093
866.4	21096
866.531	21131
866.662	21119
866.793	20994
866.924	21043
867.055	21150
867.186	21081
867.317	21104
867.448	20937
867.579	21036
867.71	20960
867.841	20979
867.972	20960
868.103	21055
868.233	21100
868.364	21043
868.495	21104
868.625	21359
868.756	21363
868.886	21233
869.017	21203
869.147	21298
869.278	21431
869.408	21317
869.539	21287
869.669	21370
869.799	21344
869.929	21523
870.06	21397
870.19	21747
870.32	21545
870.45	21690
870.58	21739
870.71	21876
870.84	21812
870.97	21705
871.1	21857
871.23	21884
871.36	21804
871.489	21819
871.619	21823
871.749	21873
871.879	21941
872.008	21994
872.138	21831
872.267	21793
872.397	21816
872.526	21728
872.656	21705
872.785	21751
872.915	21922
873.044	22002
873.173	22032
873.303	21899
873.432	21876
873.561	21964
873.69	22002
873.819	21934
873.948	21941
874.077	21934
874.206	21861
874.335	21979
874.464	22078
874.593	22128
874.722	22010
874.851	22120
874.979	22196
875.108	22139
875.237	22017
875.365	22086
875.494	22097
875.623	22238
875.751	22143
875.88	22090
876.008	22249
876.136	22276
876.265	22561
876.393	22561
876.521	22542
876.65	22717
876.778	22550
876.906	22470
877.034	22523
877.162	22557
877.29	22493
877.418	22481
877.546	22428
877.674	22440
877.802	22451
877.93	22443
878.058	22398
878.185	22337
878.313	22413
878.441	22428
878.568	22226
878.696	22363
878.824	22462
878.951	22508
879.079	22615
879.206	22660
879.333	22637
879.461	22557
879.588	22626
879.715	22675
879.842	22729
879.97	22527
880.097	22291
880.224	22314
880.351	22360
880.478	22360
880.605	22261
880.732	22246
880.859	22584
880.986	22280
881.112	22318
881.239	22166
881.366	22040
881.493	21907
881.619	21827
881.746	21945
881.872	21884
881.999	21819
882.125	21831
882.252	21873
882.378	21930
882.505	21934
882.631	21637
882.757	21622
882.883	21717
883.01	21572
883.136	21466
883.262	21367
883.388	21256
883.514	21538
883.64	21534
883.766	21500
883.892	21363
884.018	21382
884.143	21545
884.269	21538
884.395	21313
884.52	21150
884.646	21237
884.772	21154
884.897	21127
885.023	21085
885.148	21336
885.274	21424
885.399	21306
885.524	21302
885.65	21142
885.775	21230
885.9	21146
886.025	21237
886.15	21252
886.275	21047
886.4	21066
886.525	21024
886.65	21100
886.775	21195
886.9	21195
887.025	21393
887.149	21283
887.274	20994
887.399	20982
887.523	20944
887.648	20838
887.773	20914
887.897	21077
888.021	20975
888.146	20887
888.27	21039
888.395	21112
888.519	20986
888.643	20990
888.767	21020
888.891	20910
889.015	20807
889.139	20864
889.263	20834
889.387	20899
889.511	20883
889.635	20933
889.759	20765
889.883	20872
890.006	20670
890.13	20788
890.254	20762
890.377	20758
890.501	20583
890.624	20503
890.748	20590
890.871	20240
890.995	20362
891.118	20301
891.241	20412
891.364	20358
891.488	20480
891.611	20206
891.734	20454
891.857	20419
891.98	20423
892.103	20488
892.226	20320
892.349	20214
892.471	20153
892.594	20339
892.717	20305
892.839	20214
892.962	20210
893.085	20263
893.207	20313
893.33	20081
893.452	20199
893.575	20301
893.697	20172
893.819	20347
893.941	20412
894.064	20408
894.186	20221
894.308	20103
894.43	20385
894.552	20370
894.674	20374
894.796	20126
894.918	20195
895.04	20103
895.161	20275
895.283	20176
895.405	20107
895.526	20187
895.648	20267
895.769	20218
895.891	20252
896.012	20229
896.134	20271
896.255	20347
896.376	20225
896.498	20195
896.619	20210
896.74	20164
896.861	20218
896.982	20564
897.103	20632
897.224	20503
897.345	20358
897.466	20450
897.587	20461
897.708	20598
897.828	20423
897.949	20434
898.07	20347
898.19	20408
898.311	20518
898.431	20343
898.552	20469
898.672	20473
898.792	20495
898.913	20431
899.033	20374
899.153	20362
899.273	20157
899.393	20088
899.513	20248
899.633	20214
899.753	20240
899.873	20267
899.993	20161
900.113	20069
900.232	20172
900.352	20119
900.472	19970
900.591	19894
900.711	19970
900.83	19925
900.95	20107
901.069	19989
901.189	19944
901.308	19601
901.427	19502
901.546	19616
901.665	19552
901.784	19537
901.904	19358
902.023	19259
902.141	19095
902.26	19034
902.379	19190
902.498	19050
902.617	18993
902.735	19072
902.854	18939
902.973	19008
903.091	18646
903.21	18768
903.328	18806
903.446	18707
903.565	18502
903.683	18506
903.801	18414
903.919	18422
904.038	18486
904.156	18285
904.274	18437
904.392	18247
904.51	18357
904.627	18201
904.745	18296
904.863	18330
904.981	18068
905.098	17999
905.216	17935
905.334	17889
905.451	18076
905.569	17973
905.686	18072
905.803	17939
905.921	17707
906.038	17828
906.155	17817
906.272	17596
906.389	17562
906.506	17444
906.623	17493
906.74	17524
906.857	17356
906.974	17490
907.091	17566
907.208	17554
907.324	17566
907.441	17353
907.557	17239
907.674	17239
907.79	17220
907.907	17178
908.023	17162
908.139	17318
908.256	17117
908.372	17079
908.488	17121
908.604	17105
908.72	16991
908.836	16908
908.952	17018
909.068	16976
909.184	16976
909.3	16843
909.415	16987
909.531	16923
909.647	16630
909.762	16668
909.878	16584
909.993	16641
910.108	16531
910.224	16584
910.339	16634
910.454	16527
910.57	16390
910.685	16447
910.8	16748
910.915	16588
911.03	16394
911.145	16268
911.259	16253
911.374	16188
911.489	16188
911.604	16139
911.718	15915
911.833	15937
911.947	15941
912.062	15785
912.176	15972
912.291	16010
912.405	15884
912.519	16135
912.633	16097
912.748	15968
912.862	15922
912.976	15823
913.09	15709
913.204	15690
913.318	15861
913.431	15854
913.545	15895
913.659	15869
913.772	15804
913.886	15545
914	15610
914.113	15534
914.226	15637
914.34	15641
914.453	15584
914.566	15622
914.68	15511
914.793	15530
914.906	15260
915.019	15283
915.132	15104
915.245	15214
915.358	15226
915.47	15230
915.583	15165
915.696	15256
915.809	15260
915.921	15340
916.034	15047
916.146	15146
916.259	15157
916.371	15135
916.483	15089
916.595	15005
916.708	14944
916.82	15013
916.932	14944
917.044	14975
917.156	15058
917.268	14857
917.38	14902
917.491	14758
917.603	14830
917.715	14864
917.826	15009
917.938	14834
918.049	14655
918.161	14762
918.272	14925
918.384	14845
918.495	14804
918.606	14606
918.717	14541
918.828	14598
918.939	14590
919.05	14514
919.161	14579
919.272	14412
919.383	14461
919.494	14568
919.604	14727
919.715	14678
919.826	14465
919.936	14450
920.047	14602
920.157	14579
920.267	14864
920.378	14465
920.488	14568
920.598	14556
920.708	14868
920.818	14701
920.928	14724
921.038	14872
921.148	14838
921.258	14621
921.368	14465
921.477	14393
921.587	14343
921.697	14107
921.806	14263
921.916	14202
922.025	13940
922.134	13940
922.244	13928
922.353	13837
922.462	13841
922.571	13727
922.68	13597
922.789	13567
922.898	13620
923.007	13571
923.116	13662
923.224	13544
923.333	13506
923.442	13369
923.55	13411
923.659	13499
923.767	13495
923.876	13289
923.984	13400
924.092	13354
924.201	13358
924.309	13339
924.417	13335
924.525	13263
924.633	13198
924.741	13974
924.849	13091
924.956	13175
925.064	13004
925.172	12989
925.279	12951
925.387	12962
925.494	12977
925.602	13080
925.709	13080
925.816	12966
925.924	13000
926.031	13019
926.138	12875
926.245	12916
926.352	12833
926.459	12894
926.566	13042
926.673	12806
926.779	12738
926.886	12760
926.993	12631
927.099	12570
927.206	12502
927.312	12445
927.419	12597
927.525	12528
927.631	12570
927.737	12475
927.843	12475
927.95	12311
928.056	12346
928.162	12445
928.267	12471
928.373	13076
928.479	12479
928.585	12289
928.69	12273
928.796	12395
928.901	12266
929.007	12140
929.112	12300
929.218	12125
929.323	12110
929.428	12087
929.533	12190
929.638	12011
929.743	12007
929.848	12152
929.953	11977
930.058	11897
930.163	11764
930.267	11832
930.372	11992
930.477	11729
930.581	11984
930.685	11878
930.79	11680
930.894	11657
930.998	11604
931.103	11680
931.207	11455
931.311	11345
931.415	11235
931.519	11045
931.623	11067
