Data from test_V78500241_3178.txt Node
Date: Fri Mar 25 15:31:59 CST 2022
User: usil
Spectrometer: V785-0024
Trigger mode: 0
Integration Time (sec): 4.000000E-1
Scans to average: 1
Nonlinearity correction enabled: false
Boxcar width: 0
Storing dark spectrum: false
XAxis mode: Wavelengths
Number of Pixels in Spectrum: 1024
>>>>>Begin Spectral Data<<<<<
801.071	27085
801.214	26948
801.356	26895
801.499	26769
801.641	26511
801.783	26727
801.926	26826
802.068	26537
802.211	26526
802.353	26549
802.496	26309
802.638	26263
802.78	26290
802.923	26358
803.065	26259
803.208	26046
803.35	26404
803.492	26457
803.635	26560
803.777	26355
803.919	26503
804.061	26807
804.204	26518
804.346	26393
804.488	26324
804.63	26438
804.773	26282
804.915	26530
805.057	26537
805.199	26377
805.341	26503
805.483	26431
805.626	26686
805.768	26488
805.91	26609
806.052	26579
806.194	26381
806.336	26720
806.478	26560
806.62	26556
806.762	26648
806.904	26746
807.046	27146
807.188	26910
807.33	27017
807.472	27093
807.614	27009
807.756	27039
807.898	26773
808.04	26705
808.182	26701
808.324	26925
808.465	26697
808.607	27055
808.749	27249
808.891	27256
809.033	27427
809.174	27154
809.316	27165
809.458	27237
809.6	27081
809.741	27241
809.883	27245
810.025	27412
810.166	27466
810.308	27351
810.45	27397
810.591	27294
810.733	27043
810.875	27100
811.016	27074
811.158	27085
811.299	27165
811.441	27279
811.582	27249
811.724	27047
811.865	27108
812.007	27131
812.148	27116
812.29	27142
812.431	27348
812.573	27420
812.714	27644
812.855	27724
812.997	27812
813.138	27926
813.279	27892
813.421	27736
813.562	27679
813.703	27485
813.845	27348
813.986	26940
814.127	26956
814.268	26735
814.41	26895
814.551	26731
814.692	26925
814.833	26689
814.974	26606
815.115	26800
815.256	26636
815.397	26621
815.539	26716
815.68	26571
815.821	26404
815.962	26644
816.103	26564
816.244	26492
816.385	26404
816.526	26309
816.666	26214
816.807	26043
816.948	26035
817.089	26282
817.23	26153
817.371	26069
817.512	26027
817.653	26031
817.793	25989
817.934	26012
818.075	26164
818.216	26012
818.356	26054
818.497	26012
818.638	25894
818.778	25708
818.919	25784
819.06	25875
819.2	25940
819.341	26024
819.481	26043
819.622	26130
819.762	26389
819.903	26294
820.043	26248
820.184	26267
820.324	26122
820.465	26218
820.605	26153
820.746	26069
820.886	26012
821.026	26149
821.167	26043
821.307	26122
821.447	26016
821.588	25982
821.728	25883
821.868	25613
822.008	25601
822.149	25525
822.289	25518
822.429	25381
822.569	25221
822.709	25346
822.849	25061
822.99	25133
823.13	24992
823.27	24958
823.41	24962
823.55	24897
823.69	24859
823.83	24783
823.97	24882
824.11	24707
824.25	24741
824.389	24631
824.529	24840
824.669	24669
824.809	24856
824.949	24764
825.089	24745
825.228	24665
825.368	24665
825.508	24547
825.648	24593
825.787	24467
825.927	24509
826.067	24460
826.206	24642
826.346	24627
826.485	24616
826.625	24517
826.765	24711
826.904	24703
827.044	24369
827.183	24258
827.323	24174
827.462	24361
827.601	24186
827.741	24182
827.88	24281
828.02	24121
828.159	24308
828.298	24144
828.437	24292
828.577	24197
828.716	24300
828.855	24121
828.994	24072
829.134	23996
829.273	24034
829.412	23950
829.551	24045
829.69	23893
829.829	24015
829.968	24102
830.107	23954
830.246	24038
830.385	23847
830.524	23741
830.663	23771
830.802	23748
830.941	23687
831.08	23665
831.219	23691
831.357	23577
831.496	23809
831.635	23630
831.774	23402
831.913	23402
832.051	23444
832.19	23383
832.329	23372
832.467	23197
832.606	23337
832.744	23223
832.883	23258
833.022	23197
833.16	23239
833.299	23242
833.437	23288
833.576	23269
833.714	23292
833.852	23383
833.991	23436
834.129	23383
834.267	23349
834.406	23326
834.544	23239
834.682	23273
834.821	23326
834.959	23516
835.097	23250
835.235	23467
835.373	23235
835.511	23326
835.65	23231
835.788	23143
835.926	22995
836.064	22908
836.202	23010
836.34	23216
836.478	23292
836.615	23265
836.753	23200
836.891	23212
837.029	23102
837.167	23109
837.305	23090
837.443	23140
837.58	22976
837.718	23086
837.856	22949
837.993	22961
838.131	22862
838.269	22957
838.406	22991
838.544	22881
838.681	22774
838.819	22653
838.956	22538
839.094	22478
839.231	22588
839.369	22733
839.506	22904
839.643	22687
839.781	22531
839.918	22451
840.055	22527
840.193	22402
840.33	22443
840.467	22417
840.604	22428
840.742	22626
840.879	22234
841.016	22455
841.153	22348
841.29	22481
841.427	22512
841.564	22432
841.701	22428
841.838	22299
841.975	22386
842.112	22466
842.249	22230
842.385	22200
842.522	22455
842.659	22234
842.796	22192
842.933	22215
843.069	22101
843.206	22128
843.343	22280
843.479	22109
843.616	22272
843.752	21994
843.889	21968
844.025	22143
844.162	21850
844.298	22063
844.435	21922
844.571	21915
844.708	21960
844.844	22029
844.98	21930
845.117	22101
845.253	22044
845.389	21854
845.525	21857
845.661	21983
845.798	21637
845.934	21880
846.07	21663
846.206	21808
846.342	21770
846.478	21641
846.614	21519
846.75	21534
846.886	21564
847.022	21576
847.158	21382
847.294	21477
847.429	21401
847.565	21313
847.701	21694
847.837	21237
847.972	21119
848.108	21291
848.244	21283
848.379	21081
848.515	21138
848.65	20979
848.786	21024
848.921	21135
849.057	21142
849.192	21180
849.328	21036
849.463	21070
849.598	20948
849.734	20944
849.869	20944
850.004	20804
850.14	20876
850.275	20785
850.41	20716
850.545	20769
850.68	20648
850.815	20872
850.95	20678
851.085	20944
851.22	20731
851.355	20815
851.49	20792
851.625	20765
851.76	20667
851.895	20712
852.03	20689
852.165	20811
852.299	20845
852.434	20895
852.569	20902
852.703	20792
852.838	20849
852.973	20941
853.107	20906
853.242	20815
853.376	20663
853.511	20476
853.645	20609
853.78	20712
853.914	20568
854.048	20606
854.183	20667
854.317	20724
854.451	20849
854.585	20693
854.72	20651
854.854	20686
854.988	20632
855.122	20674
855.256	20511
855.39	20606
855.524	20670
855.658	20552
855.792	20701
855.926	20644
856.06	20739
856.194	20640
856.327	20617
856.461	20568
856.595	20465
856.729	20587
856.862	20743
856.996	20632
857.13	20678
857.263	20754
857.397	20754
857.53	20602
857.664	20769
857.797	20708
857.931	20743
858.064	20678
858.197	20739
858.331	20549
858.464	20469
858.597	20556
858.731	20560
858.864	20568
858.997	20575
859.13	20727
859.263	20724
859.396	20788
859.529	20480
859.662	20575
859.795	20632
859.928	20667
860.061	20845
860.194	20819
860.327	20644
860.46	20560
860.592	20754
860.725	20834
860.858	20743
860.99	20598
861.123	20556
861.256	20644
861.388	20731
861.521	21245
861.653	20514
861.786	20522
861.918	20400
862.05	20556
862.183	20552
862.315	20583
862.447	20571
862.58	20587
862.712	20476
862.844	20362
862.976	20457
863.108	20476
863.24	20754
863.372	20377
863.504	20328
863.636	20400
863.768	20347
863.9	20366
864.032	20180
864.164	20275
864.296	20282
864.428	20583
864.559	20389
864.691	20446
864.823	20248
864.954	20381
865.086	20313
865.217	20374
865.349	20233
865.48	20225
865.612	20332
865.743	20385
865.875	20377
866.006	20263
866.137	20271
866.269	20088
866.4	20164
866.531	20206
866.662	20172
866.793	20161
866.924	20149
867.055	20218
867.186	20225
867.317	20244
867.448	20168
867.579	20107
867.71	20062
867.841	20122
867.972	20267
868.103	20267
868.233	20134
868.364	20168
868.495	20275
868.625	20442
868.756	20499
868.886	20332
869.017	20408
869.147	20442
869.278	20499
869.408	20495
869.539	20400
869.669	20404
869.799	20564
869.929	20530
870.06	20514
870.19	20670
870.32	20842
870.45	20838
870.58	20902
870.71	20979
870.84	20868
870.97	20712
871.1	20731
871.23	21009
871.36	21070
871.489	20937
871.619	21066
871.749	20956
871.879	21089
872.008	21096
872.138	20921
872.267	20921
872.397	20792
872.526	20842
872.656	20883
872.785	20830
872.915	21055
873.044	21272
873.173	21024
873.303	21070
873.432	21093
873.561	21096
873.69	21089
873.819	21009
873.948	21074
874.077	21039
874.206	21028
874.335	21165
874.464	21180
874.593	21272
874.722	21237
874.851	21336
874.979	21283
875.108	21275
875.237	21180
875.365	21154
875.494	21294
875.623	21428
875.751	21272
875.88	21321
876.008	21424
876.136	21485
876.265	21682
876.393	21816
876.521	21717
876.65	21903
876.778	21728
876.906	21648
877.034	21545
877.162	21572
877.29	21637
877.418	21701
877.546	21564
877.674	21701
877.802	21648
877.93	21599
878.058	21656
878.185	21504
878.313	21557
878.441	21625
878.568	21511
878.696	21488
878.824	21698
878.951	21667
879.079	21892
879.206	21975
879.333	21747
879.461	21591
879.588	21656
879.715	21831
879.842	21861
879.97	21705
880.097	21443
880.224	21397
880.351	21481
880.478	21477
880.605	21420
880.732	21408
880.859	21766
880.986	21485
881.112	21568
881.239	21321
881.366	21302
881.493	21268
881.619	21047
881.746	21116
881.872	21146
881.999	20834
882.125	20963
882.252	21123
882.378	21077
882.505	21123
882.631	20815
882.757	20887
882.883	20883
883.01	20773
883.136	20697
883.262	20640
883.388	20621
883.514	20781
883.64	20765
883.766	20693
883.892	20609
884.018	20583
884.143	20682
884.269	20788
884.395	20461
884.52	20393
884.646	20446
884.772	20256
884.897	20324
885.023	20389
885.148	20454
885.274	20415
885.399	20575
885.524	20507
885.65	20492
885.775	20571
885.9	20381
886.025	20564
886.15	20492
886.275	20358
886.4	20381
886.525	20385
886.65	20320
886.775	20256
886.9	20503
887.025	20735
887.149	20377
887.274	20195
887.399	20176
887.523	20229
887.648	20092
887.773	20065
887.897	20206
888.021	20313
888.146	20149
888.27	20130
888.395	20366
888.519	20237
888.643	20206
888.767	20244
888.891	19993
889.015	20081
889.139	20088
889.263	19951
889.387	20024
889.511	20183
889.635	20157
889.759	20027
889.883	19967
890.006	20100
890.13	20001
890.254	19875
890.377	19951
890.501	19830
890.624	19784
890.748	19826
890.871	19658
890.995	19635
891.118	19567
891.241	19624
891.364	19605
891.488	19624
891.611	19552
891.734	19597
891.857	19639
891.98	19594
892.103	19693
892.226	19506
892.349	19483
892.471	19324
892.594	19453
892.717	19552
892.839	19518
892.962	19506
893.085	19552
893.207	19578
893.33	19407
893.452	19324
893.575	19434
893.697	19518
893.819	19696
893.941	19704
894.064	19662
894.186	19449
894.308	19438
894.43	19597
894.552	19689
894.674	19613
894.796	19449
894.918	19575
895.04	19529
895.161	19594
895.283	19499
895.405	19327
895.526	19373
895.648	19559
895.769	19578
895.891	19483
896.012	19651
896.134	19578
896.255	19586
896.376	19483
896.498	19453
896.619	19510
896.74	19449
896.861	19632
896.982	19780
897.103	19974
897.224	19738
897.345	19670
897.466	19719
897.587	19769
897.708	19856
897.828	19852
897.949	19559
898.07	19521
898.19	19571
898.311	19951
898.431	19791
898.552	19750
898.672	19826
898.792	19765
898.913	19845
899.033	19658
899.153	19624
899.273	19358
899.393	19449
899.513	19556
899.633	19502
899.753	19441
899.873	19430
899.993	19441
900.113	19430
900.232	19407
900.352	19441
900.472	19320
900.591	19266
900.711	19259
900.83	19206
900.95	19381
901.069	19411
901.189	19236
901.308	18970
901.427	18817
901.546	18947
901.665	18935
901.784	18821
901.904	18722
902.023	18627
902.141	18437
902.26	18361
902.379	18582
902.498	18391
902.617	18422
902.735	18296
902.854	18410
902.973	18311
903.091	18106
903.21	18011
903.328	18068
903.446	17935
903.565	17851
903.683	17771
903.801	17691
903.919	17832
904.038	17828
904.156	17703
904.274	17752
904.392	17615
904.51	17638
904.627	17634
904.745	17691
904.863	17676
904.981	17345
905.098	17242
905.216	17227
905.334	17318
905.451	17353
905.569	17220
905.686	17299
905.803	17261
905.921	17090
906.038	17185
906.155	17197
906.272	17166
906.389	17083
906.506	16835
906.623	16927
906.74	16820
906.857	16694
906.974	16729
907.091	16927
907.208	17056
907.324	16862
907.441	16793
907.557	16687
907.674	16500
907.79	16485
907.907	16512
908.023	16664
908.139	16592
908.256	16519
908.372	16516
908.488	16421
908.604	16333
908.72	16356
908.836	16382
908.952	16253
909.068	16234
909.184	16512
909.3	16417
909.415	16329
909.531	16204
909.647	16139
909.762	16040
909.878	15888
909.993	15903
910.108	16010
910.224	16010
910.339	15968
910.454	15835
910.57	15892
910.685	15701
910.8	16074
910.915	15998
911.03	15800
911.145	15679
911.259	15599
911.374	15637
911.489	15538
911.604	15530
911.718	15313
911.833	15386
911.947	15378
912.062	15214
912.176	15378
912.291	15443
912.405	15401
912.519	15538
912.633	15644
912.748	15359
912.862	15367
912.976	15252
913.09	15108
913.204	15176
913.318	15165
913.431	15264
913.545	15306
913.659	15348
913.772	15146
913.886	15135
914	15108
914.113	15154
914.226	15062
914.34	15074
914.453	14887
914.566	15047
914.68	14872
914.793	14872
914.906	14746
915.019	14579
915.132	14651
915.245	14587
915.358	14697
915.47	14701
915.583	14602
915.696	14697
915.809	14785
915.921	14746
916.034	14613
916.146	14606
916.259	14431
916.371	14568
916.483	14629
916.595	14377
916.708	14461
916.82	14503
916.932	14450
917.044	14412
917.156	14347
917.268	14240
917.38	14298
917.491	14294
917.603	14358
917.715	14252
917.826	14419
917.938	14294
918.049	14084
918.161	14183
918.272	14396
918.384	14412
918.495	14206
918.606	14088
918.717	13932
918.828	14119
918.939	14096
919.05	13928
919.161	14119
919.272	13833
919.383	13970
919.494	14092
919.604	14233
919.715	14069
919.826	14058
919.936	14039
920.047	14020
920.157	14050
920.267	14176
920.378	14069
920.488	14035
920.598	14282
920.708	14294
920.818	14180
920.928	14195
921.038	14370
921.148	14248
921.258	13955
921.368	13909
921.477	13727
921.587	13822
921.697	13658
921.806	13902
921.916	13628
922.025	13521
922.134	13400
922.244	13312
922.353	13506
922.462	13392
922.571	13335
922.68	13137
922.789	13042
922.898	13133
923.007	12993
923.116	13110
923.224	13091
923.333	13019
923.442	12928
923.55	12852
923.659	12897
923.767	13015
923.876	12802
923.984	12882
924.092	12817
924.201	12817
924.309	12821
924.417	12802
924.525	12753
924.633	12764
924.741	13674
924.849	12563
924.956	12703
925.064	12623
925.172	12426
925.279	12532
925.387	12578
925.494	12608
925.602	12696
925.709	12578
925.816	12464
925.924	12464
926.031	12566
926.138	12437
926.245	12559
926.352	12338
926.459	12513
926.566	12566
926.673	12464
926.779	12323
926.886	12292
926.993	12125
927.099	12083
927.206	12072
927.312	12102
927.419	12182
927.525	12072
927.631	12140
927.737	12076
927.843	11958
927.95	11920
928.056	11954
928.162	11916
928.267	12053
928.373	12547
928.479	11984
928.585	11840
928.69	11939
928.796	11920
928.901	11790
929.007	11630
929.112	11794
929.218	11779
929.323	11752
929.428	11573
929.533	11821
929.638	11543
929.743	11611
929.848	11627
929.953	11573
930.058	11493
930.163	11406
930.267	11398
930.372	11509
930.477	11315
930.581	11630
930.685	11406
930.79	11296
930.894	11330
930.998	11265
931.103	11425
931.207	11067
931.311	10927
931.415	10843
931.519	10736
931.623	10725
