Data from test_V78500241_3280.txt Node
Date: Fri Mar 25 15:32:42 CST 2022
User: usil
Spectrometer: V785-0024
Trigger mode: 0
Integration Time (sec): 4.000000E-1
Scans to average: 1
Nonlinearity correction enabled: false
Boxcar width: 0
Storing dark spectrum: false
XAxis mode: Wavelengths
Number of Pixels in Spectrum: 1024
>>>>>Begin Spectral Data<<<<<
801.071	27401
801.214	27256
801.356	27096
801.499	26960
801.641	26956
801.783	26788
801.926	26925
802.068	26849
802.211	26823
802.353	26651
802.496	26461
802.638	26682
802.78	26473
802.923	26313
803.065	26320
803.208	26545
803.35	26530
803.492	26568
803.635	26648
803.777	26518
803.919	26750
804.061	26823
804.204	26724
804.346	26629
804.488	26476
804.63	26503
804.773	26598
804.915	26583
805.057	26762
805.199	26583
805.341	26667
805.483	26785
805.626	26902
805.768	26533
805.91	26819
806.052	26800
806.194	26712
806.336	26807
806.478	26830
806.62	26651
806.762	26815
806.904	26956
807.046	27245
807.188	27245
807.33	27062
807.472	27279
807.614	27150
807.756	27192
807.898	26998
808.04	27013
808.182	27017
808.324	27043
808.465	27089
808.607	27207
808.749	27344
808.891	27580
809.033	27526
809.174	27386
809.316	27378
809.458	27310
809.6	27336
809.741	27439
809.883	27496
810.025	27545
810.166	27698
810.308	27690
810.45	27587
810.591	27591
810.733	27268
810.875	27378
811.016	27096
811.158	27344
811.299	27477
811.441	27538
811.582	27466
811.724	27329
811.865	27298
812.007	27435
812.148	27367
812.29	27214
812.431	27595
812.573	27698
812.714	27568
812.855	27899
812.997	27899
813.138	28025
813.279	27937
813.421	27781
813.562	27812
813.703	27496
813.845	27515
813.986	27306
814.127	27096
814.268	26948
814.41	27066
814.551	26925
814.692	27085
814.833	27089
814.974	26975
815.115	27020
815.256	26792
815.397	26937
815.539	26845
815.68	26845
815.821	26773
815.962	26819
816.103	26667
816.244	26693
816.385	26629
816.526	26549
816.666	26366
816.807	26248
816.948	26404
817.089	26396
817.23	26317
817.371	26259
817.512	26362
817.653	26366
817.793	26164
817.934	26305
818.075	26278
818.216	26282
818.356	26256
818.497	26187
818.638	26001
818.778	26092
818.919	26100
819.06	26077
819.2	26164
819.341	26130
819.481	26252
819.622	26271
819.762	26537
819.903	26587
820.043	26461
820.184	26358
820.324	26518
820.465	26530
820.605	26465
820.746	26419
820.886	26195
821.026	26389
821.167	26256
821.307	26381
821.447	26298
821.588	26218
821.728	26115
821.868	25928
822.008	25780
822.149	25662
822.289	25693
822.429	25529
822.569	25422
822.709	25304
822.849	25221
822.99	25228
823.13	25316
823.27	25187
823.41	25118
823.55	24958
823.69	25080
823.83	24970
823.97	25122
824.11	24977
824.25	24833
824.389	25038
824.529	25050
824.669	24859
824.809	25012
824.949	24928
825.089	24882
825.228	24867
825.368	24673
825.508	24821
825.648	24734
825.787	24738
825.927	24817
826.067	24768
826.206	24642
826.346	24787
826.485	24977
826.625	24749
826.765	24753
826.904	24779
827.044	24597
827.183	24711
827.323	24407
827.462	24555
827.601	24509
827.741	24422
827.88	24445
828.02	24369
828.159	24304
828.298	24513
828.437	24620
828.577	24350
828.716	24559
828.855	24369
828.994	24197
829.134	24190
829.273	24273
829.412	24228
829.551	24159
829.69	24232
829.829	24178
829.968	24125
830.107	24197
830.246	24228
830.385	24106
830.524	24144
830.663	23904
830.802	23935
830.941	23798
831.08	23874
831.219	23939
831.357	23988
831.496	24072
831.635	23707
831.774	23684
831.913	23722
832.051	23642
832.19	23668
832.329	23493
832.467	23535
832.606	23493
832.744	23497
832.883	23440
833.022	23395
833.16	23493
833.299	23414
833.437	23531
833.576	23551
833.714	23630
833.852	23604
833.991	23665
834.129	23585
834.267	23710
834.406	23611
834.544	23585
834.682	23566
834.821	23516
834.959	23729
835.097	23509
835.235	23566
835.373	23604
835.511	23505
835.65	23459
835.788	23531
835.926	23349
836.064	23166
836.202	23223
836.34	23402
836.478	23497
836.615	23307
836.753	23554
836.891	23471
837.029	23379
837.167	23406
837.305	23254
837.443	23254
837.58	23246
837.718	23273
837.856	23315
837.993	23296
838.131	23307
838.269	23094
838.406	23155
838.544	23128
838.681	22881
838.819	22987
838.956	22717
839.094	22592
839.231	22904
839.369	22816
839.506	23128
839.643	23052
839.781	22778
839.918	22683
840.055	22588
840.193	22691
840.33	22710
840.467	22683
840.604	22694
840.742	22889
840.879	22611
841.016	22527
841.153	22493
841.29	22797
841.427	22668
841.564	22596
841.701	22706
841.838	22489
841.975	22683
842.112	22550
842.249	22538
842.385	22417
842.522	22786
842.659	22626
842.796	22455
842.933	22375
843.069	22329
843.206	22459
843.343	22417
843.479	22421
843.616	22588
843.752	22177
843.889	22356
844.025	22382
844.162	22147
844.298	22306
844.435	22219
844.571	22200
844.708	22211
844.844	22276
844.98	22344
845.117	22295
845.253	22177
845.389	22082
845.525	21994
845.661	22040
845.798	21876
845.934	21937
846.07	21918
846.206	21922
846.342	22032
846.478	21949
846.614	21770
846.75	21644
846.886	21652
847.022	21724
847.158	21755
847.294	21755
847.429	21690
847.565	21633
847.701	21808
847.837	21488
847.972	21332
848.108	21424
848.244	21500
848.379	21237
848.515	21256
848.65	21203
848.786	21241
848.921	21237
849.057	21374
849.192	21393
849.328	21313
849.463	21173
849.598	21294
849.734	21093
849.869	21218
850.004	21074
850.14	21013
850.275	21047
850.41	20899
850.545	20868
850.68	21005
850.815	21154
850.95	21077
851.085	21230
851.22	21131
851.355	21043
851.49	21066
851.625	20918
851.76	21024
851.895	20982
852.03	20864
852.165	20975
852.299	20960
852.434	21096
852.569	21005
852.703	20994
852.838	20986
852.973	21108
853.107	21142
853.242	20842
853.376	20823
853.511	20724
853.645	20868
853.78	20910
853.914	20876
854.048	20773
854.183	20796
854.317	20914
854.451	20937
854.585	20906
854.72	20857
854.854	21055
854.988	20815
855.122	20758
855.256	20705
855.39	20963
855.524	20906
855.658	20925
855.792	20792
855.926	20891
856.06	20800
856.194	20910
856.327	20967
856.461	20689
856.595	20788
856.729	20762
856.862	20986
856.996	20918
857.13	20941
857.263	20990
857.397	20933
857.53	20838
857.664	20933
857.797	20914
857.931	20944
858.064	20853
858.197	20990
858.331	20864
858.464	20773
858.597	20651
858.731	20918
858.864	20811
858.997	20834
859.13	20895
859.263	20883
859.396	20925
859.529	20785
859.662	20853
859.795	20906
859.928	20834
860.061	21043
860.194	21020
860.327	20853
860.46	20876
860.592	21070
860.725	20998
860.858	21081
860.99	20849
861.123	20754
861.256	20773
861.388	20902
861.521	21439
861.653	20754
861.786	20663
861.918	20705
862.05	20720
862.183	20769
862.315	20830
862.447	20800
862.58	20769
862.712	20651
862.844	20495
862.976	20708
863.108	20670
863.24	21116
863.372	20594
863.504	20541
863.636	20583
863.768	20686
863.9	20587
864.032	20438
864.164	20473
864.296	20606
864.428	20579
864.559	20686
864.691	20701
864.823	20587
864.954	20568
865.086	20495
865.217	20533
865.349	20408
865.48	20450
865.612	20530
865.743	20621
865.875	20469
866.006	20404
866.137	20381
866.269	20465
866.4	20377
866.531	20298
866.662	20317
866.793	20396
866.924	20408
867.055	20419
867.186	20370
867.317	20339
867.448	20362
867.579	20339
867.71	20351
867.841	20301
867.972	20404
868.103	20377
868.233	20408
868.364	20438
868.495	20427
868.625	20602
868.756	20674
868.886	20613
869.017	20602
869.147	20804
869.278	20823
869.408	20609
869.539	20579
869.669	20769
869.799	20701
869.929	20918
870.06	20769
870.19	20933
870.32	20963
870.45	21017
870.58	20967
870.71	21119
870.84	21157
870.97	21013
871.1	21135
871.23	21260
871.36	21313
871.489	21184
871.619	21233
871.749	21241
871.879	21222
872.008	21249
872.138	21363
872.267	21173
872.397	21112
872.526	20998
872.656	21070
872.785	21024
872.915	21256
873.044	21302
873.173	21332
873.303	21310
873.432	21214
873.561	21359
873.69	21252
873.819	21264
873.948	21378
874.077	21294
874.206	21382
874.335	21188
874.464	21389
874.593	21523
874.722	21348
874.851	21629
874.979	21515
875.108	21583
875.237	21466
875.365	21431
875.494	21469
875.623	21576
875.751	21424
875.88	21561
876.008	21618
876.136	21633
876.265	21975
876.393	22101
876.521	21975
876.65	22006
876.778	22010
876.906	21899
877.034	21823
877.162	21876
877.29	21838
877.418	21926
877.546	21998
877.674	21945
877.802	21915
877.93	21751
878.058	21949
878.185	21667
878.313	21793
878.441	21956
878.568	21686
878.696	21736
878.824	21804
878.951	21907
879.079	21987
879.206	22112
879.333	22086
879.461	21838
879.588	21880
879.715	22109
879.842	22143
879.97	21934
880.097	21705
880.224	21656
880.351	21724
880.478	21804
880.605	21648
880.732	21701
880.859	21884
880.986	21724
881.112	21743
881.239	21599
881.366	21515
881.493	21363
881.619	21332
881.746	21428
881.872	21401
881.999	21222
882.125	21211
882.252	21264
882.378	21306
882.505	21439
882.631	21116
882.757	21123
882.883	21074
883.01	21005
883.136	20998
883.262	20918
883.388	20853
883.514	21017
883.64	21154
883.766	20868
883.892	20682
884.018	20769
884.143	20834
884.269	21017
884.395	20796
884.52	20629
884.646	20632
884.772	20579
884.897	20431
885.023	20636
885.148	20838
885.274	20807
885.399	20720
885.524	20655
885.65	20762
885.775	20495
885.9	20693
886.025	20693
886.15	20659
886.275	20682
886.4	20526
886.525	20667
886.65	20629
886.775	20564
886.9	20667
887.025	20769
887.149	20594
887.274	20412
887.399	20358
887.523	20427
887.648	20366
887.773	20377
887.897	20530
888.021	20389
888.146	20347
888.27	20564
888.395	20507
888.519	20419
888.643	20423
888.767	20408
888.891	20347
889.015	20180
889.139	20252
889.263	20180
889.387	20385
889.511	20427
889.635	20305
889.759	20267
889.883	20225
890.006	20195
890.13	20339
890.254	20172
890.377	20157
890.501	19906
890.624	19928
890.748	20024
890.871	19883
890.995	19811
891.118	19704
891.241	19871
891.364	19765
891.488	19925
891.611	19814
891.734	19723
891.857	19940
891.98	19795
892.103	19879
892.226	19746
892.349	19693
892.471	19533
892.594	19677
892.717	19738
892.839	19750
892.962	19795
893.085	19742
893.207	19708
893.33	19616
893.452	19658
893.575	19674
893.697	19594
893.819	19791
893.941	19883
894.064	19769
894.186	19704
894.308	19635
894.43	19677
894.552	19944
894.674	19670
894.796	19616
894.918	19582
895.04	19643
895.161	19643
895.283	19685
895.405	19651
895.526	19586
895.648	19582
895.769	19750
895.891	19666
896.012	19723
896.134	19791
896.255	19700
896.376	19666
896.498	19674
896.619	19674
896.74	19731
896.861	19734
896.982	20077
897.103	20180
897.224	19959
897.345	19967
897.466	19841
897.587	19967
897.708	20001
897.828	20001
897.949	19811
898.07	19845
898.19	19890
898.311	19974
898.431	19925
898.552	19902
898.672	20043
898.792	19978
898.913	20005
899.033	19837
899.153	19647
899.273	19715
899.393	19666
899.513	19620
899.633	19734
899.753	19624
899.873	19674
899.993	19655
900.113	19624
900.232	19624
900.352	19533
900.472	19563
900.591	19453
900.711	19521
900.83	19350
900.95	19460
901.069	19529
901.189	19335
901.308	19046
901.427	19034
901.546	19122
901.665	19038
901.784	19050
901.904	18894
902.023	18806
902.141	18608
902.26	18684
902.379	18703
902.498	18528
902.617	18513
902.735	18509
902.854	18597
902.973	18467
903.091	18319
903.21	18228
903.328	18235
903.446	18095
903.565	18159
903.683	17996
903.801	17954
903.919	18003
904.038	17954
904.156	17889
904.274	17809
904.392	17847
904.51	17855
904.627	17786
904.745	17756
904.863	17863
904.981	17600
905.098	17554
905.216	17497
905.334	17558
905.451	17471
905.569	17543
905.686	17482
905.803	17509
905.921	17307
906.038	17360
906.155	17353
906.272	17136
906.389	17178
906.506	17060
906.623	17006
906.74	16957
906.857	16889
906.974	16934
907.091	17132
907.208	17155
907.324	16991
907.441	16976
907.557	16774
907.674	16759
907.79	16569
907.907	16713
908.023	16740
908.139	16801
908.256	16721
908.372	16733
908.488	16603
908.604	16611
908.72	16531
908.836	16409
908.952	16352
909.068	16489
909.184	16584
909.3	16466
909.415	16489
909.531	16417
909.647	16268
909.762	16238
909.878	16223
909.993	16166
910.108	16109
910.224	16109
910.339	16166
910.454	16158
910.57	15994
910.685	15918
910.8	16204
910.915	16131
911.03	16029
911.145	15831
911.259	15785
911.374	15720
911.489	15774
911.604	15679
911.718	15614
911.833	15580
911.947	15462
912.062	15431
912.176	15462
912.291	15584
912.405	15572
912.519	15747
912.633	15739
912.748	15584
912.862	15545
912.976	15420
913.09	15279
913.204	15336
913.318	15416
913.431	15412
913.545	15382
913.659	15443
913.772	15332
913.886	15222
914	15077
914.113	15218
914.226	15252
914.34	15203
914.453	15097
914.566	15192
914.68	15051
914.793	15058
914.906	14861
915.019	14712
915.132	14693
915.245	14731
915.358	14811
915.47	14712
915.583	14735
915.696	14773
915.809	14895
915.921	14937
916.034	14823
916.146	14663
916.259	14708
916.371	14754
916.483	14773
916.595	14625
916.708	14678
916.82	14617
916.932	14575
917.044	14488
917.156	14499
917.268	14396
917.38	14476
917.491	14347
917.603	14526
917.715	14495
917.826	14522
917.938	14408
918.049	14263
918.161	14393
918.272	14473
918.384	14507
918.495	14328
918.606	14229
918.717	14115
918.828	14195
918.939	14259
919.05	14096
919.161	14267
919.272	14054
919.383	14065
919.494	14252
919.604	14381
919.715	14149
919.826	14126
919.936	14119
920.047	14248
920.157	14244
920.267	14389
920.378	14199
920.488	14096
920.598	14324
920.708	14457
920.818	14305
920.928	14309
921.038	14507
921.148	14446
921.258	14191
921.368	14069
921.477	13932
921.587	13894
921.697	13852
921.806	13944
921.916	13795
922.025	13597
922.134	13575
922.244	13601
922.353	13636
922.462	13548
922.571	13350
922.68	13304
922.789	13206
922.898	13331
923.007	13114
923.116	13274
923.224	13247
923.333	13240
923.442	13042
923.55	12985
923.659	12989
923.767	13069
923.876	12981
923.984	13088
924.092	12905
924.201	13050
924.309	12970
924.417	12916
924.525	12867
924.633	12897
924.741	13830
924.849	12719
924.956	12894
925.064	12722
925.172	12547
925.279	12597
925.387	12578
925.494	12623
925.602	12848
925.709	12719
925.816	12544
925.924	12639
926.031	12707
926.138	12669
926.245	12639
926.352	12532
926.459	12528
926.566	12711
926.673	12509
926.779	12388
926.886	12395
926.993	12243
927.099	12254
927.206	12175
927.312	12167
927.419	12224
927.525	12270
927.631	12281
927.737	12140
927.843	12064
927.95	11961
928.056	12068
928.162	12136
928.267	12049
928.373	12620
928.479	12148
928.585	11851
928.69	11973
928.796	12030
928.901	11931
929.007	11752
929.112	11870
929.218	11969
929.323	11802
929.428	11836
929.533	11847
929.638	11680
929.743	11767
929.848	11779
929.953	11748
930.058	11733
930.163	11433
930.267	11471
930.372	11619
930.477	11429
930.581	11653
930.685	11562
930.79	11406
930.894	11376
930.998	11330
931.103	11474
931.207	11132
931.311	11045
931.415	10949
931.519	10740
931.623	10755
