Data from test_V78500241_518.txt Node
Date: Fri Mar 25 15:13:27 CST 2022
User: usil
Spectrometer: V785-0024
Trigger mode: 0
Integration Time (sec): 4.000000E-1
Scans to average: 1
Nonlinearity correction enabled: false
Boxcar width: 0
Storing dark spectrum: false
XAxis mode: Wavelengths
Number of Pixels in Spectrum: 1024
>>>>>Begin Spectral Data<<<<<
801.071	27538
801.214	27462
801.356	27275
801.499	27096
801.641	27051
801.783	27100
801.926	27260
802.068	27039
802.211	26910
802.353	26956
802.496	26705
802.638	26522
802.78	26720
802.923	26667
803.065	26708
803.208	26659
803.35	26629
803.492	26686
803.635	26682
803.777	26762
803.919	26823
804.061	27096
804.204	26834
804.346	26804
804.488	26804
804.63	26887
804.773	26663
804.915	26902
805.057	26937
805.199	26842
805.341	26762
805.483	26921
805.626	26963
805.768	26861
805.91	26921
806.052	26899
806.194	26902
806.336	27150
806.478	27058
806.62	26960
806.762	27108
806.904	27359
807.046	27359
807.188	27435
807.33	27405
807.472	27355
807.614	27367
807.756	27272
807.898	27355
808.04	27188
808.182	27135
808.324	27199
808.465	27218
808.607	27416
808.749	27591
808.891	27599
809.033	27679
809.174	27606
809.316	27576
809.458	27625
809.6	27462
809.741	27739
809.883	27747
810.025	27743
810.166	27907
810.308	27895
810.45	27941
810.591	27724
810.733	27705
810.875	27614
811.016	27580
811.158	27389
811.299	27835
811.441	27781
811.582	27701
811.724	27439
811.865	27545
812.007	27530
812.148	27614
812.29	27755
812.431	27831
812.573	27876
812.714	28040
812.855	28086
812.997	28234
813.138	28284
813.279	28295
813.421	28268
813.562	28109
813.703	27960
813.845	27880
813.986	27648
814.127	27344
814.268	27272
814.41	27351
814.551	27195
814.692	27325
814.833	27256
814.974	27146
815.115	27294
815.256	27233
815.397	27127
815.539	27169
815.68	27127
815.821	26933
815.962	27119
816.103	26971
816.244	26963
816.385	26785
816.526	26708
816.666	26731
816.807	26431
816.948	26705
817.089	26670
817.23	26606
817.371	26670
817.512	26556
817.653	26492
817.793	26507
817.934	26659
818.075	26549
818.216	26533
818.356	26492
818.497	26431
818.638	26282
818.778	26237
818.919	26271
819.06	26240
819.2	26518
819.341	26594
819.481	26499
819.622	26762
819.762	26880
819.903	26781
820.043	26731
820.184	26602
820.324	26480
820.465	26796
820.605	26568
820.746	26697
820.886	26617
821.026	26644
821.167	26636
821.307	26648
821.447	26606
821.588	26495
821.728	26461
821.868	26168
822.008	25997
822.149	26046
822.289	26062
822.429	25795
822.569	25731
822.709	25826
822.849	25635
822.99	25575
823.13	25388
823.27	25537
823.41	25411
823.55	25133
823.69	25358
823.83	25259
823.97	25266
824.11	25072
824.25	25080
824.389	25156
824.529	25327
824.669	25156
824.809	25213
824.949	25190
825.089	25225
825.228	25099
825.368	25084
825.508	25023
825.648	24958
825.787	25061
825.927	25053
826.067	25088
826.206	25080
826.346	25038
826.485	24989
826.625	24973
826.765	25031
826.904	24973
827.044	24867
827.183	24608
827.323	24665
827.462	24867
827.601	24722
827.741	24661
827.88	24711
828.02	24661
828.159	24726
828.298	24779
828.437	24745
828.577	24749
828.716	24814
828.855	24692
828.994	24441
829.134	24399
829.273	24563
829.412	24296
829.551	24395
829.69	24433
829.829	24532
829.968	24525
830.107	24509
830.246	24376
830.385	24418
830.524	24353
830.663	24319
830.802	24030
830.941	24083
831.08	24045
831.219	24060
831.357	24239
831.496	24353
831.635	24079
831.774	23965
831.913	24003
832.051	23828
832.19	23931
832.329	23836
832.467	23840
832.606	23695
832.744	23729
832.883	23748
833.022	23547
833.16	23767
833.299	23722
833.437	23836
833.576	23802
833.714	23809
833.852	23691
833.991	23882
834.129	23870
834.267	23859
834.406	23786
834.544	23855
834.682	23748
834.821	23745
834.959	23828
835.097	23729
835.235	23931
835.373	23836
835.511	23828
835.65	23707
835.788	23611
835.926	23516
836.064	23490
836.202	23551
836.34	23573
836.478	23695
836.615	23501
836.753	23745
836.891	23668
837.029	23638
837.167	23642
837.305	23459
837.443	23642
837.58	23402
837.718	23452
837.856	23490
837.993	23307
838.131	23353
838.269	23372
838.406	23364
838.544	23360
838.681	23178
838.819	23105
838.956	22976
839.094	22995
839.231	23075
839.369	23090
839.506	23334
839.643	23162
839.781	22987
839.918	23006
840.055	23048
840.193	22972
840.33	22946
840.467	22828
840.604	23010
840.742	22984
840.879	22615
841.016	22854
841.153	22767
841.29	22957
841.427	22923
841.564	22923
841.701	23018
841.838	22812
841.975	22755
842.112	22797
842.249	22664
842.385	22634
842.522	22850
842.659	22717
842.796	22710
842.933	22744
843.069	22508
843.206	22512
843.343	22683
843.479	22763
843.616	22683
843.752	22447
843.889	22443
844.025	22519
844.162	22474
844.298	22550
844.435	22474
844.571	22204
844.708	22485
844.844	22626
844.98	22584
845.117	22474
845.253	22329
845.389	22322
845.525	22325
845.661	22379
845.798	22086
845.934	22268
846.07	22097
846.206	22150
846.342	22253
846.478	22021
846.614	21918
846.75	21781
846.886	21842
847.022	21899
847.158	21865
847.294	21804
847.429	21873
847.565	21854
847.701	22196
847.837	21641
847.972	21622
848.108	21648
848.244	21717
848.379	21557
848.515	21523
848.65	21595
848.786	21656
848.921	21462
849.057	21580
849.192	21473
849.328	21504
849.463	21538
849.598	21431
849.734	21355
849.869	21325
850.004	21184
850.14	21275
850.275	21298
850.41	21218
850.545	21154
850.68	21252
850.815	21245
850.95	21214
851.085	21462
851.22	21393
851.355	21275
851.49	21169
851.625	21302
851.76	21123
851.895	21192
852.03	21230
852.165	21222
852.299	21306
852.434	21340
852.569	21237
852.703	21275
852.838	21188
852.973	21504
853.107	21405
853.242	21298
853.376	21032
853.511	20982
853.645	21043
853.78	21195
853.914	21157
854.048	21039
854.183	21005
854.317	21127
854.451	21256
854.585	21036
854.72	20967
854.854	21081
854.988	20990
855.122	21165
855.256	20918
855.39	21070
855.524	21055
855.658	21127
855.792	21188
855.926	21287
856.06	21009
856.194	21161
856.327	21066
856.461	21093
856.595	20960
856.729	21047
856.862	21233
856.996	21138
857.13	21070
857.263	21272
857.397	21146
857.53	21154
857.664	21165
857.797	21100
857.931	21138
858.064	21245
858.197	21173
858.331	21043
858.464	20990
858.597	21047
858.731	21051
858.864	21001
858.997	20971
859.13	21108
859.263	21066
859.396	21154
859.529	21165
859.662	21074
859.795	21020
859.928	21150
860.061	21161
860.194	21367
860.327	21070
860.46	21127
860.592	21199
860.725	21256
860.858	21237
860.99	21036
861.123	21165
861.256	20960
861.388	21036
861.521	21937
861.653	20876
861.786	20895
861.918	20849
862.05	21043
862.183	21032
862.315	21154
862.447	21001
862.58	20902
862.712	20750
862.844	20758
862.976	20899
863.108	20902
863.24	21192
863.372	20712
863.504	20705
863.636	20682
863.768	20804
863.9	20853
864.032	20754
864.164	20906
864.296	20758
864.428	20777
864.559	20842
864.691	20929
864.823	20804
864.954	20777
865.086	20807
865.217	20689
865.349	20724
865.48	20659
865.612	20632
865.743	20899
865.875	20743
866.006	20606
866.137	20693
866.269	20602
866.4	20594
866.531	20613
866.662	20465
866.793	20552
866.924	20602
867.055	20701
867.186	20526
867.317	20556
867.448	20545
867.579	20564
867.71	20629
867.841	20560
867.972	20636
868.103	20632
868.233	20545
868.364	20682
868.495	20640
868.625	20735
868.756	20967
868.886	20762
869.017	20788
869.147	20944
869.278	20944
869.408	20788
869.539	20811
869.669	21001
869.799	20921
869.929	21039
870.06	20880
870.19	21138
870.32	21119
870.45	21100
870.58	21218
870.71	21336
870.84	21363
870.97	21294
871.1	21344
871.23	21420
871.36	21454
871.489	21401
871.619	21351
871.749	21389
871.879	21443
872.008	21633
872.138	21408
872.267	21439
872.397	21340
872.526	21348
872.656	21310
872.785	21252
872.915	21515
873.044	21641
873.173	21504
873.303	21625
873.432	21469
873.561	21622
873.69	21534
873.819	21317
873.948	21622
874.077	21564
874.206	21507
874.335	21439
874.464	21534
874.593	21819
874.722	21720
874.851	21682
874.979	21728
875.108	21835
875.237	21633
875.365	21610
875.494	21694
875.623	21797
875.751	21618
875.88	21804
876.008	21846
876.136	21778
876.265	22150
876.393	22318
876.521	22124
876.65	22173
876.778	22078
876.906	22051
877.034	21968
877.162	22029
877.29	21949
877.418	22131
877.546	22093
877.674	22078
877.802	22097
877.93	22006
878.058	21987
878.185	21930
878.313	21945
878.441	22055
878.568	21838
878.696	21899
878.824	22131
878.951	21991
879.079	22303
879.206	22322
879.333	22135
879.461	22185
879.588	22131
879.715	22185
879.842	22360
879.97	22086
880.097	21907
880.224	21797
880.351	21915
880.478	21968
880.605	21926
880.732	21964
880.859	22116
880.986	21876
881.112	21884
881.239	21793
881.366	21629
881.493	21572
881.619	21572
881.746	21477
881.872	21439
881.999	21454
882.125	21363
882.252	21515
882.378	21408
882.505	21580
882.631	21283
882.757	21260
882.883	21268
883.01	21180
883.136	21093
883.262	21081
883.388	21028
883.514	21116
883.64	21283
883.766	21055
883.892	21017
884.018	20941
884.143	21184
884.269	21199
884.395	20861
884.52	20849
884.646	20811
884.772	20743
884.897	20674
885.023	20735
885.148	20819
885.274	20891
885.399	20868
885.524	20815
885.65	20781
885.775	20811
885.9	20739
886.025	20952
886.15	20804
886.275	20758
886.4	20731
886.525	20800
886.65	20724
886.775	20724
886.9	20891
887.025	20986
887.149	20800
887.274	20648
887.399	20617
887.523	20625
887.648	20499
887.773	20511
887.897	20682
888.021	20579
888.146	20514
888.27	20613
888.395	20659
888.519	20556
888.643	20651
888.767	20640
888.891	20492
889.015	20332
889.139	20465
889.263	20450
889.387	20526
889.511	20636
889.635	20598
889.759	20396
889.883	20404
890.006	20381
890.13	20526
890.254	20355
890.377	20248
890.501	20187
890.624	20107
890.748	20077
890.871	19970
890.995	19837
891.118	19849
891.241	19963
891.364	19989
891.488	20054
891.611	19974
891.734	19982
891.857	20054
891.98	19982
892.103	20005
892.226	19967
892.349	19871
892.471	19814
892.594	19883
892.717	19868
892.839	19925
892.962	19902
893.085	19875
893.207	19864
893.33	19700
893.452	19784
893.575	19898
893.697	19818
893.819	20134
893.941	20107
894.064	20016
894.186	19883
894.308	19811
894.43	19986
894.552	20054
894.674	19906
894.796	19765
894.918	19902
895.04	19784
895.161	19917
895.283	19974
895.405	19795
895.526	19932
895.648	19932
895.769	19898
895.891	19909
896.012	20020
896.134	19830
896.255	19921
896.376	19826
896.498	19811
896.619	19879
896.74	19845
896.861	19902
896.982	20161
897.103	20343
897.224	20115
897.345	20176
897.466	19940
897.587	20164
897.708	20119
897.828	20031
897.949	19898
898.07	20020
898.19	20039
898.311	20191
898.431	20100
898.552	20065
898.672	20233
898.792	20115
898.913	20073
899.033	19902
899.153	19898
899.273	19807
899.393	19837
899.513	19887
899.633	19807
899.753	19826
899.873	19769
899.993	19894
900.113	19750
900.232	19753
900.352	19837
900.472	19647
900.591	19613
900.711	19575
900.83	19651
900.95	19727
901.069	19597
901.189	19460
901.308	19308
901.427	19103
901.546	19213
901.665	19126
901.784	19247
901.904	19118
902.023	18954
902.141	18871
902.26	18882
902.379	18772
902.498	18673
902.617	18654
902.735	18833
902.854	18681
902.973	18719
903.091	18437
903.21	18517
903.328	18296
903.446	18285
903.565	18247
903.683	18289
903.801	18091
903.919	18129
904.038	18300
904.156	17893
904.274	18095
904.392	17923
904.51	17965
904.627	17950
904.745	18079
904.863	17912
904.981	17745
905.098	17687
905.216	17665
905.334	17687
905.451	17661
905.569	17627
905.686	17680
905.803	17619
905.921	17395
906.038	17646
906.155	17471
906.272	17311
906.389	17349
906.506	17185
906.623	17185
906.74	17220
906.857	17128
906.974	17105
907.091	17170
907.208	17227
907.324	17174
907.441	17086
907.557	16927
907.674	16915
907.79	16904
907.907	16896
908.023	16965
908.139	16885
908.256	16729
908.372	16725
908.488	16698
908.604	16675
908.72	16664
908.836	16694
908.952	16588
909.068	16641
909.184	16713
909.3	16706
909.415	16626
909.531	16596
909.647	16462
909.762	16367
909.878	16341
909.993	16295
910.108	16306
910.224	16284
910.339	16280
910.454	16200
910.57	16105
910.685	16063
910.8	16348
910.915	16329
911.03	16090
911.145	15934
911.259	16013
911.374	15956
911.489	15895
911.604	15728
911.718	15671
911.833	15698
911.947	15534
912.062	15466
912.176	15698
912.291	15641
912.405	15660
912.519	15800
912.633	15827
912.748	15747
912.862	15690
912.976	15447
913.09	15355
913.204	15386
913.318	15603
913.431	15538
913.545	15595
913.659	15614
913.772	15408
913.886	15317
914	15351
914.113	15378
914.226	15447
914.34	15348
914.453	15245
914.566	15310
914.68	15382
914.793	15150
914.906	14963
915.019	14948
915.132	14857
915.245	14918
915.358	14952
915.47	14944
915.583	14887
915.696	14982
915.809	15093
915.921	15116
916.034	14853
916.146	14861
916.259	14891
916.371	14868
916.483	14842
916.595	14724
916.708	14819
916.82	14811
916.932	14746
917.044	14754
917.156	14659
917.268	14655
917.38	14636
917.491	14511
917.603	14655
917.715	14613
917.826	14625
917.938	14526
918.049	14381
918.161	14552
918.272	14590
918.384	14674
918.495	14408
918.606	14412
918.717	14157
918.828	14336
918.939	14389
919.05	14385
919.161	14282
919.272	14046
919.383	14172
919.494	14332
919.604	14438
919.715	14278
919.826	14244
919.936	14282
920.047	14343
920.157	14271
920.267	14454
920.378	14233
920.488	14328
920.598	14423
920.708	14598
920.818	14404
920.928	14442
921.038	14606
921.148	14549
921.258	14385
921.368	14073
921.477	14012
921.587	14012
921.697	13986
921.806	13967
921.916	13974
922.025	13750
922.134	13693
922.244	13677
922.353	13696
922.462	13559
922.571	13480
922.68	13491
922.789	13381
922.898	13396
923.007	13301
923.116	13362
923.224	13232
923.333	13293
923.442	13225
923.55	13175
923.659	13187
923.767	13202
923.876	13080
923.984	13251
924.092	13141
924.201	13114
924.309	13118
924.417	13103
924.525	12966
924.633	13008
924.741	13753
924.849	12749
924.956	13015
925.064	12817
925.172	12707
925.279	12684
925.387	12833
925.494	12783
925.602	12894
925.709	12867
925.816	12741
925.924	12711
926.031	12806
926.138	12616
926.245	12726
926.352	12623
926.459	12715
926.566	12760
926.673	12665
926.779	12509
926.886	12536
926.993	12399
927.099	12350
927.206	12311
927.312	12296
927.419	12342
927.525	12296
927.631	12448
927.737	12148
927.843	12163
927.95	12068
928.056	12201
928.162	12201
928.267	12171
928.373	12665
928.479	12251
928.585	12007
928.69	12155
928.796	12220
928.901	12045
929.007	11889
929.112	12057
929.218	11965
929.323	11882
929.428	11802
929.533	12022
929.638	11779
929.743	11878
929.848	11931
929.953	11824
930.058	11710
930.163	11539
930.267	11577
930.372	11779
930.477	11562
930.581	11726
930.685	11623
930.79	11433
930.894	11482
930.998	11452
931.103	11596
931.207	11239
931.311	11216
931.415	11006
931.519	10831
931.623	10748
