Data from test_V78500241_1996.txt Node
Date: Fri Mar 25 15:23:45 CST 2022
User: usil
Spectrometer: V785-0024
Trigger mode: 0
Integration Time (sec): 4.000000E-1
Scans to average: 1
Nonlinearity correction enabled: false
Boxcar width: 0
Storing dark spectrum: false
XAxis mode: Wavelengths
Number of Pixels in Spectrum: 1024
>>>>>Begin Spectral Data<<<<<
801.071	28006
801.214	27937
801.356	27705
801.499	27534
801.641	27435
801.783	27458
801.926	27557
802.068	27504
802.211	27431
802.353	27412
802.496	27207
802.638	27226
802.78	27131
802.923	27051
803.065	27047
803.208	27100
803.35	27104
803.492	27386
803.635	27283
803.777	27207
803.919	27340
804.061	27739
804.204	27386
804.346	27207
804.488	27268
804.63	27359
804.773	27268
804.915	27291
805.057	27382
805.199	27272
805.341	27488
805.483	27500
805.626	27370
805.768	27332
805.91	27382
806.052	27504
806.194	27306
806.336	27610
806.478	27405
806.62	27427
806.762	27545
806.904	27660
807.046	27937
807.188	27964
807.33	27876
807.472	27892
807.614	27918
807.756	27854
807.898	27785
808.04	27679
808.182	27728
808.324	27743
808.465	27907
808.607	27941
808.749	28116
808.891	28147
809.033	28261
809.174	28242
809.316	28029
809.458	28120
809.6	28097
809.741	28291
809.883	28177
810.025	28417
810.166	28265
810.308	28310
810.45	28272
810.591	28211
810.733	28090
810.875	27895
811.016	27922
811.158	27937
811.299	28192
811.441	28173
811.582	28204
811.724	28025
811.865	28051
812.007	28036
812.148	28090
812.29	28025
812.431	28299
812.573	28352
812.714	28573
812.855	28588
812.997	28653
813.138	28786
813.279	28740
813.421	28710
813.562	28664
813.703	28344
813.845	28322
813.986	28036
814.127	27797
814.268	27785
814.41	27698
814.551	27812
814.692	27831
814.833	27732
814.974	27629
815.115	27755
815.256	27652
815.397	27663
815.539	27694
815.68	27732
815.821	27507
815.962	27648
816.103	27534
816.244	27545
816.385	27424
816.526	27332
816.666	27161
816.807	27047
816.948	27173
817.089	27154
817.23	26998
817.371	27142
817.512	27043
817.653	27024
817.793	27085
817.934	27119
818.075	27058
818.216	27058
818.356	26979
818.497	26960
818.638	26769
818.778	26674
818.919	26864
819.06	26853
819.2	26853
819.341	27070
819.481	27123
819.622	27119
819.762	27359
819.903	27214
820.043	27241
820.184	27264
820.324	27195
820.465	27233
820.605	27173
820.746	27157
820.886	27066
821.026	27116
821.167	27017
821.307	27188
821.447	27043
821.588	27066
821.728	26880
821.868	26720
822.008	26457
822.149	26613
822.289	26355
822.429	26199
822.569	26237
822.709	26206
822.849	26115
822.99	26088
823.13	25997
823.27	25993
823.41	25795
823.55	25860
823.69	25963
823.83	25811
823.97	25841
824.11	25712
824.25	25609
824.389	25483
824.529	25662
824.669	25578
824.809	25776
824.949	25723
825.089	25856
825.228	25681
825.368	25510
825.508	25635
825.648	25468
825.787	25506
825.927	25575
826.067	25449
826.206	25479
826.346	25586
826.485	25540
826.625	25476
826.765	25765
826.904	25712
827.044	25312
827.183	25476
827.323	25198
827.462	25365
827.601	25312
827.741	25270
827.88	25141
828.02	25251
828.159	25152
828.298	25255
828.437	25282
828.577	25129
828.716	25301
828.855	25160
828.994	25084
829.134	24897
829.273	24992
829.412	25042
829.551	24878
829.69	24954
829.829	25053
829.968	25091
830.107	25000
830.246	24901
830.385	24939
830.524	25000
830.663	24772
830.802	24601
830.941	24597
831.08	24650
831.219	24563
831.357	24745
831.496	24886
831.635	24601
831.774	24422
831.913	24433
832.051	24292
832.19	24422
832.329	24334
832.467	24155
832.606	24300
832.744	24083
832.883	24296
833.022	24194
833.16	24292
833.299	24346
833.437	24163
833.576	24243
833.714	24327
833.852	24334
833.991	24418
834.129	24388
834.267	24388
834.406	24437
834.544	24353
834.682	24422
834.821	24304
834.959	24407
835.097	24281
835.235	24361
835.373	24232
835.511	24251
835.65	24053
835.788	24220
835.926	24091
836.064	24030
836.202	23916
836.34	24076
836.478	24064
836.615	24129
836.753	24125
836.891	24174
837.029	24102
837.167	24041
837.305	24049
837.443	24098
837.58	23882
837.718	24087
837.856	23965
837.993	24015
838.131	23973
838.269	23718
838.406	23866
838.544	23699
838.681	23722
838.819	23619
838.956	23402
839.094	23436
839.231	23627
839.369	23570
839.506	23767
839.643	23642
839.781	23414
839.918	23482
840.055	23486
840.193	23398
840.33	23220
840.467	23254
840.604	23387
840.742	23707
840.879	23414
841.016	23372
841.153	23162
841.29	23421
841.427	23383
841.564	23372
841.701	23478
841.838	23360
841.975	23235
842.112	23250
842.249	23166
842.385	23155
842.522	23242
842.659	23155
842.796	23071
842.933	23136
843.069	23079
843.206	23124
843.343	23147
843.479	23090
843.616	23113
843.752	22847
843.889	22801
844.025	23010
844.162	22793
844.298	22934
844.435	22908
844.571	22965
844.708	22923
844.844	23060
844.98	23018
845.117	23044
845.253	22816
845.389	22828
845.525	22721
845.661	22668
845.798	22721
845.934	22706
846.07	22573
846.206	22698
846.342	22645
846.478	22550
846.614	22428
846.75	22249
846.886	22234
847.022	22481
847.158	22402
847.294	22428
847.429	22421
847.565	22459
847.701	22622
847.837	22105
847.972	22021
848.108	22135
848.244	22074
848.379	22006
848.515	21956
848.65	21915
848.786	21987
848.921	21968
849.057	22013
849.192	22090
849.328	22010
849.463	21941
849.598	21937
849.734	21861
849.869	21785
850.004	21724
850.14	21701
850.275	21675
850.41	21603
850.545	21660
850.68	21656
850.815	21755
850.95	21694
851.085	21861
851.22	21808
851.355	21736
851.49	21781
851.625	21572
851.76	21709
851.895	21568
852.03	21583
852.165	21572
852.299	21690
852.434	21804
852.569	21747
852.703	21690
852.838	21717
852.973	21888
853.107	21854
853.242	21686
853.376	21511
853.511	21351
853.645	21447
853.78	21561
853.914	21633
854.048	21542
854.183	21462
854.317	21542
854.451	21759
854.585	21526
854.72	21477
854.854	21648
854.988	21553
855.122	21488
855.256	21363
855.39	21515
855.524	21458
855.658	21515
855.792	21492
855.926	21504
856.06	21553
856.194	21549
856.327	21473
856.461	21336
856.595	21545
856.729	21576
856.862	21599
856.996	21770
857.13	21686
857.263	21641
857.397	21682
857.53	21435
857.664	21549
857.797	21622
857.931	21667
858.064	21641
858.197	21606
858.331	21542
858.464	21420
858.597	21431
858.731	21511
858.864	21515
858.997	21393
859.13	21675
859.263	21618
859.396	21572
859.529	21633
859.662	21481
859.795	21450
859.928	21519
860.061	21633
860.194	21671
860.327	21557
860.46	21443
860.592	21549
860.725	21675
860.858	21583
860.99	21519
861.123	21648
861.256	21420
861.388	21580
861.521	22223
861.653	21477
861.786	21268
861.918	21344
862.05	21439
862.183	21386
862.315	21443
862.447	21450
862.58	21523
862.712	21214
862.844	21104
862.976	21336
863.108	21321
863.24	21724
863.372	21024
863.504	21142
863.636	21207
863.768	21256
863.9	21237
864.032	21252
864.164	21169
864.296	21184
864.428	21378
864.559	21310
864.691	21279
864.823	21272
864.954	21157
865.086	21173
865.217	21100
865.349	21009
865.48	21085
865.612	21108
865.743	21218
865.875	21131
866.006	21074
866.137	21214
866.269	21116
866.4	21192
866.531	21028
866.662	21020
866.793	21024
866.924	21062
867.055	21116
867.186	21135
867.317	21066
867.448	20982
867.579	21043
867.71	20918
867.841	20941
867.972	21017
868.103	20956
868.233	21077
868.364	21058
868.495	21180
868.625	21310
868.756	21454
868.886	21249
869.017	21245
869.147	21420
869.278	21450
869.408	21408
869.539	21222
869.669	21298
869.799	21313
869.929	21431
870.06	21420
870.19	21656
870.32	21625
870.45	21694
870.58	21595
870.71	21686
870.84	21698
870.97	21606
871.1	21663
871.23	21850
871.36	21892
871.489	21835
871.619	21778
871.749	21857
871.879	22051
872.008	22013
872.138	21979
872.267	21808
872.397	21812
872.526	21671
872.656	21831
872.785	21739
872.915	21956
873.044	21869
873.173	21846
873.303	21937
873.432	21922
873.561	22063
873.69	22055
873.819	21895
873.948	21964
874.077	21968
874.206	21831
874.335	21934
874.464	21930
874.593	22143
874.722	22051
874.851	22147
874.979	22063
875.108	22215
875.237	22059
875.365	21975
875.494	22128
875.623	22192
875.751	22109
875.88	22204
876.008	22234
876.136	22322
876.265	22485
876.393	22580
876.521	22702
876.65	22569
876.778	22637
876.906	22497
877.034	22413
877.162	22542
877.29	22508
877.418	22405
877.546	22550
877.674	22500
877.802	22546
877.93	22443
878.058	22557
878.185	22287
878.313	22386
878.441	22519
878.568	22413
878.696	22470
878.824	22516
878.951	22675
879.079	22687
879.206	22767
879.333	22664
879.461	22546
879.588	22527
879.715	22664
879.842	22850
879.97	22634
880.097	22341
880.224	22318
880.351	22447
880.478	22459
880.605	22386
880.732	22409
880.859	22599
880.986	22341
881.112	22337
881.239	22253
881.366	22044
881.493	22040
881.619	21991
881.746	21865
881.872	22036
881.999	21827
882.125	21823
882.252	21975
882.378	21861
882.505	22070
882.631	21816
882.757	21747
882.883	21804
883.01	21633
883.136	21534
883.262	21504
883.388	21428
883.514	21564
883.64	21652
883.766	21564
883.892	21412
884.018	21458
884.143	21428
884.269	21804
884.395	21317
884.52	21256
884.646	21230
884.772	21218
884.897	21157
885.023	21188
885.148	21367
885.274	21386
885.399	21287
885.524	21287
885.65	21249
885.775	21268
885.9	21146
886.025	21363
886.15	21283
886.275	21119
886.4	21131
886.525	21249
886.65	21184
886.775	21176
886.9	21424
887.025	21431
887.149	21211
887.274	20963
887.399	21028
887.523	21013
887.648	20937
887.773	20823
887.897	21123
888.021	21017
888.146	20998
888.27	21093
888.395	21203
888.519	20941
888.643	20929
888.767	20921
888.891	21001
889.015	20853
889.139	20880
889.263	20804
889.387	20883
889.511	21032
889.635	20921
889.759	20735
889.883	20659
890.006	20762
890.13	20815
890.254	20754
890.377	20724
890.501	20518
890.624	20602
890.748	20678
890.871	20347
890.995	20309
891.118	20427
891.241	20355
891.364	20290
891.488	20530
891.611	20377
891.734	20469
891.857	20393
891.98	20377
892.103	20526
892.226	20431
892.349	20400
892.471	20187
892.594	20336
892.717	20210
892.839	20244
892.962	20343
893.085	20385
893.207	20256
893.33	20161
893.452	20210
893.575	20385
893.697	20259
893.819	20309
893.941	20343
894.064	20362
894.186	20221
894.308	20183
894.43	20476
894.552	20423
894.674	20358
894.796	20168
894.918	20214
895.04	20103
895.161	20324
895.283	20332
895.405	20313
895.526	20275
895.648	20214
895.769	20374
895.891	20309
896.012	20374
896.134	20278
896.255	20290
896.376	20317
896.498	20290
896.619	20256
896.74	20324
896.861	20412
896.982	20579
897.103	20762
897.224	20476
897.345	20442
897.466	20454
897.587	20332
897.708	20568
897.828	20511
897.949	20533
898.07	20218
898.19	20465
898.311	20571
898.431	20385
898.552	20530
898.672	20488
898.792	20701
898.913	20526
899.033	20332
899.153	20339
899.273	20180
899.393	20336
899.513	20259
899.633	20256
899.753	20263
899.873	20103
899.993	20332
900.113	20092
900.232	20180
900.352	20180
900.472	20199
900.591	19993
900.711	20016
900.83	19913
900.95	20142
901.069	20115
901.189	19791
901.308	19681
901.427	19514
901.546	19681
901.665	19575
901.784	19601
901.904	19407
902.023	19312
902.141	19187
902.26	19198
902.379	19217
902.498	19080
902.617	19034
902.735	19133
902.854	18981
902.973	19042
903.091	18962
903.21	18878
903.328	18791
903.446	18673
903.565	18525
903.683	18585
903.801	18448
903.919	18650
904.038	18376
904.156	18357
904.274	18350
904.392	18372
904.51	18384
904.627	18330
904.745	18429
904.863	18323
904.981	18083
905.098	18083
905.216	18038
905.334	17965
905.451	18083
905.569	17954
905.686	18007
905.803	17935
905.921	17798
906.038	17802
906.155	17840
906.272	17634
906.389	17676
906.506	17634
906.623	17585
906.74	17490
906.857	17448
906.974	17406
907.091	17573
907.208	17684
907.324	17547
907.441	17463
907.557	17356
907.674	17277
907.79	17284
907.907	17315
908.023	17223
908.139	17235
908.256	17303
908.372	17189
908.488	17109
908.604	16991
908.72	16923
908.836	17010
908.952	17018
909.068	16987
909.184	17075
909.3	16938
909.415	16934
909.531	16984
909.647	16691
909.762	16805
909.878	16668
909.993	16618
910.108	16713
910.224	16740
910.339	16698
910.454	16531
910.57	16440
910.685	16356
910.8	16740
910.915	16561
911.03	16478
911.145	16363
911.259	16204
911.374	16329
911.489	16188
911.604	16097
911.718	16044
911.833	16017
911.947	15934
912.062	15732
912.176	16055
912.291	15895
912.405	16040
912.519	16078
912.633	16219
912.748	16055
912.862	16093
912.976	15827
913.09	15679
913.204	15797
913.318	15876
913.431	15892
913.545	15888
913.659	15857
913.772	15785
913.886	15603
914	15549
914.113	15766
914.226	15785
914.34	15667
914.453	15595
914.566	15759
914.68	15504
914.793	15466
914.906	15386
915.019	15226
915.132	15146
915.245	15180
915.358	15317
915.47	15291
915.583	15146
915.696	15233
915.809	15344
915.921	15249
916.034	15222
916.146	15173
916.259	15169
916.371	15161
916.483	15260
916.595	15032
916.708	14944
916.82	15070
916.932	15039
917.044	14979
917.156	14910
917.268	14853
917.38	14979
917.491	14830
917.603	14845
917.715	14975
917.826	14902
917.938	14800
918.049	14716
918.161	14792
918.272	14864
918.384	14944
918.495	14758
918.606	14636
918.717	14564
918.828	14693
918.939	14629
919.05	14583
919.161	14537
919.272	14298
919.383	14408
919.494	14697
919.604	14891
919.715	14674
919.826	14480
919.936	14541
920.047	14670
920.157	14594
920.267	14769
920.378	14617
920.488	14575
920.598	14743
920.708	14895
920.818	14754
920.928	14678
921.038	14807
921.148	14785
921.258	14507
921.368	14412
921.477	14415
921.587	14355
921.697	14180
921.806	14275
921.916	14180
922.025	13997
922.134	14100
922.244	13890
922.353	13868
922.462	13799
922.571	13780
922.68	13639
922.789	13559
922.898	13601
923.007	13502
923.116	13628
923.224	13605
923.333	13540
923.442	13457
923.55	13415
923.659	13468
923.767	13533
923.876	13415
923.984	13422
924.092	13350
924.201	13343
924.309	13270
924.417	13365
924.525	13217
924.633	13384
924.741	13925
924.849	13057
924.956	13160
925.064	13038
925.172	12977
925.279	13072
925.387	13038
925.494	13069
925.602	13038
925.709	13023
925.816	13000
925.924	12977
926.031	13053
926.138	12878
926.245	13008
926.352	12867
926.459	12970
926.566	13004
926.673	12837
926.779	12722
926.886	12726
926.993	12616
927.099	12544
927.206	12578
927.312	12456
927.419	12616
927.525	12582
927.631	12620
927.737	12498
927.843	12399
927.95	12327
928.056	12403
928.162	12376
928.267	12452
928.373	13023
928.479	12475
928.585	12178
928.69	12422
928.796	12403
928.901	12186
929.007	12102
929.112	12330
929.218	12270
929.323	12140
929.428	12171
929.533	12270
929.638	12064
929.743	12098
929.848	12106
929.953	12068
930.058	11904
930.163	11885
930.267	11840
930.372	11859
930.477	11794
930.581	12026
930.685	11790
930.79	11707
930.894	11672
930.998	11695
931.103	11840
931.207	11471
931.311	11383
931.415	11299
931.519	11147
931.623	11159
