Data from test_V78500241_1474.txt Node
Date: Fri Mar 25 15:20:07 CST 2022
User: usil
Spectrometer: V785-0024
Trigger mode: 0
Integration Time (sec): 4.000000E-1
Scans to average: 1
Nonlinearity correction enabled: false
Boxcar width: 0
Storing dark spectrum: false
XAxis mode: Wavelengths
Number of Pixels in Spectrum: 1024
>>>>>Begin Spectral Data<<<<<
801.071	27930
801.214	27903
801.356	27682
801.499	27572
801.641	27412
801.783	27519
801.926	27496
802.068	27542
802.211	27405
802.353	27405
802.496	27264
802.638	27070
802.78	27096
802.923	27062
803.065	26925
803.208	27070
803.35	27135
803.492	27291
803.635	27310
803.777	27287
803.919	27443
804.061	27736
804.204	27504
804.346	27184
804.488	27332
804.63	27427
804.773	27199
804.915	27355
805.057	27515
805.199	27195
805.341	27420
805.483	27580
805.626	27500
805.768	27389
805.91	27447
806.052	27496
806.194	27488
806.336	27713
806.478	27580
806.62	27481
806.762	27610
806.904	27865
807.046	28021
807.188	28017
807.33	27907
807.472	28029
807.614	27857
807.756	27907
807.898	27709
808.04	27778
808.182	27800
808.324	27759
808.465	27846
808.607	28010
808.749	28135
808.891	28207
809.033	28280
809.174	28135
809.316	28196
809.458	28105
809.6	28162
809.741	28261
809.883	28299
810.025	28303
810.166	28417
810.308	28447
810.45	28421
810.591	28390
810.733	28257
810.875	28029
811.016	28128
811.158	27994
811.299	28215
811.441	28337
811.582	28242
811.724	28120
811.865	28093
812.007	28272
812.148	28112
812.29	28188
812.431	28249
812.573	28516
812.714	28519
812.855	28790
812.997	28877
813.138	28873
813.279	28740
813.421	28725
813.562	28729
813.703	28489
813.845	28386
813.986	28246
814.127	27979
814.268	27903
814.41	27816
814.551	27778
814.692	27998
814.833	27911
814.974	27778
815.115	27865
815.256	27797
815.397	27717
815.539	27667
815.68	27652
815.821	27656
815.962	27701
816.103	27641
816.244	27481
816.385	27507
816.526	27401
816.666	27142
816.807	27192
816.948	27199
817.089	27230
817.23	27020
817.371	27188
817.512	27173
817.653	27085
817.793	27138
817.934	27142
818.075	27233
818.216	27074
818.356	27108
818.497	27055
818.638	26853
818.778	26921
818.919	26826
819.06	27001
819.2	27047
819.341	27123
819.481	27077
819.622	27321
819.762	27488
819.903	27462
820.043	27283
820.184	27294
820.324	27291
820.465	27378
820.605	27348
820.746	27173
820.886	27058
821.026	27237
821.167	27207
821.307	27188
821.447	27100
821.588	27070
821.728	26960
821.868	26758
822.008	26511
822.149	26453
822.289	26617
822.429	26305
822.569	26240
822.709	26282
822.849	26081
822.99	26126
823.13	26153
823.27	26138
823.41	25917
823.55	25944
823.69	25765
823.83	25944
823.97	25959
824.11	25925
824.25	25658
824.389	25613
824.529	25921
824.669	25746
824.809	25845
824.949	25750
825.089	25955
825.228	25849
825.368	25620
825.508	25563
825.648	25571
825.787	25772
825.927	25552
826.067	25544
826.206	25499
826.346	25624
826.485	25582
826.625	25487
826.765	25643
826.904	25628
827.044	25453
827.183	25350
827.323	25278
827.462	25206
827.601	25221
827.741	25259
827.88	25403
828.02	25156
828.159	25244
828.298	25297
828.437	25407
828.577	25202
828.716	25460
828.855	25198
828.994	25091
829.134	24958
829.273	25057
829.412	25027
829.551	24943
829.69	24962
829.829	24989
829.968	25038
830.107	25118
830.246	25015
830.385	24924
830.524	24848
830.663	24806
830.802	24661
830.941	24604
831.08	24661
831.219	24528
831.357	24669
831.496	24829
831.635	24616
831.774	24479
831.913	24418
832.051	24289
832.19	24467
832.329	24399
832.467	24289
832.606	24197
832.744	24281
832.883	24258
833.022	24129
833.16	24281
833.299	24235
833.437	24361
833.576	24277
833.714	24289
833.852	24471
833.991	24422
834.129	24452
834.267	24490
834.406	24304
834.544	24376
834.682	24350
834.821	24315
834.959	24376
835.097	24319
835.235	24338
835.373	24391
835.511	24315
835.65	24270
835.788	24228
835.926	24121
836.064	24041
836.202	23912
836.34	24190
836.478	24201
836.615	24079
836.753	24140
836.891	24228
837.029	24136
837.167	24022
837.305	24057
837.443	24091
837.58	23961
837.718	24140
837.856	23958
837.993	23923
838.131	23988
838.269	23863
838.406	23958
838.544	23832
838.681	23581
838.819	23710
838.956	23398
839.094	23368
839.231	23623
839.369	23642
839.506	23824
839.643	23741
839.781	23284
839.918	23269
840.055	23547
840.193	23448
840.33	23337
840.467	23307
840.604	23383
840.742	23547
840.879	23296
841.016	23345
841.153	23212
841.29	23455
841.427	23311
841.564	23269
841.701	23322
841.838	23269
841.975	23254
842.112	23242
842.249	23193
842.385	23079
842.522	23406
842.659	23086
842.796	23121
842.933	23041
843.069	23155
843.206	23090
843.343	23242
843.479	23128
843.616	23056
843.752	22930
843.889	22904
844.025	23003
844.162	22968
844.298	23102
844.435	22854
844.571	22824
844.708	23018
844.844	23037
844.98	22968
845.117	22946
845.253	22820
845.389	22698
845.525	22782
845.661	22694
845.798	22683
845.934	22774
846.07	22584
846.206	22599
846.342	22717
846.478	22691
846.614	22512
846.75	22352
846.886	22447
847.022	22500
847.158	22398
847.294	22299
847.429	22546
847.565	22200
847.701	22622
847.837	22192
847.972	22036
848.108	22093
848.244	21991
848.379	21972
848.515	21907
848.65	21991
848.786	21949
848.921	22044
849.057	22017
849.192	22051
849.328	22086
849.463	21960
849.598	21926
849.734	21949
849.869	21934
850.004	21778
850.14	21797
850.275	21838
850.41	21614
850.545	21781
850.68	21656
850.815	21709
850.95	21656
851.085	21922
851.22	21903
851.355	21759
851.49	21770
851.625	21637
851.76	21648
851.895	21564
852.03	21709
852.165	21743
852.299	21679
852.434	21785
852.569	21816
852.703	21648
852.838	21846
852.973	21854
853.107	21831
853.242	21667
853.376	21447
853.511	21473
853.645	21473
853.78	21561
853.914	21545
854.048	21439
854.183	21557
854.317	21519
854.451	21660
854.585	21629
854.72	21485
854.854	21618
854.988	21454
855.122	21534
855.256	21389
855.39	21481
855.524	21530
855.658	21564
855.792	21526
855.926	21728
856.06	21545
856.194	21587
856.327	21492
856.461	21557
856.595	21523
856.729	21553
856.862	21656
856.996	21564
857.13	21656
857.263	21652
857.397	21618
857.53	21466
857.664	21530
857.797	21633
857.931	21671
858.064	21507
858.197	21622
858.331	21530
858.464	21386
858.597	21469
858.731	21477
858.864	21485
858.997	21405
859.13	21473
859.263	21401
859.396	21656
859.529	21420
859.662	21500
859.795	21378
859.928	21564
860.061	21629
860.194	21717
860.327	21641
860.46	21458
860.592	21679
860.725	21717
860.858	21667
860.99	21526
861.123	21511
861.256	21389
861.388	21477
861.521	22090
861.653	21420
861.786	21386
861.918	21351
862.05	21428
862.183	21469
862.315	21500
862.447	21568
862.58	21344
862.712	21203
862.844	21237
862.976	21340
863.108	21298
863.24	21686
863.372	21256
863.504	21329
863.636	21222
863.768	21264
863.9	21195
864.032	21051
864.164	21268
864.296	21355
864.428	21363
864.559	21203
864.691	21207
864.823	21203
864.954	21298
865.086	21321
865.217	21241
865.349	21089
865.48	21066
865.612	21150
865.743	21245
865.875	21188
866.006	21184
866.137	21058
866.269	21230
866.4	21173
866.531	21017
866.662	21184
866.793	21028
866.924	21085
867.055	21135
867.186	21017
867.317	21154
867.448	21070
867.579	20944
867.71	20948
867.841	21020
867.972	20990
868.103	21005
868.233	21043
868.364	21104
868.495	21173
868.625	21252
868.756	21443
868.886	21241
869.017	21256
869.147	21428
869.278	21428
869.408	21386
869.539	21317
869.669	21408
869.799	21298
869.929	21439
870.06	21355
870.19	21587
870.32	21485
870.45	21572
870.58	21739
870.71	21743
870.84	21827
870.97	21701
871.1	21679
871.23	21926
871.36	21797
871.489	21838
871.619	21838
871.749	21808
871.879	21804
872.008	21941
872.138	21804
872.267	21808
872.397	21743
872.526	21667
872.656	21671
872.785	21717
872.915	21903
873.044	22013
873.173	21895
873.303	21793
873.432	21926
873.561	21892
873.69	21850
873.819	21850
873.948	22021
874.077	21907
874.206	21846
874.335	21770
874.464	22059
874.593	22070
874.722	22070
874.851	22188
874.979	22215
875.108	22272
875.237	22120
875.365	21975
875.494	22070
875.623	22097
875.751	22204
875.88	22131
876.008	22253
876.136	22398
876.265	22592
876.393	22637
876.521	22519
876.65	22577
876.778	22630
876.906	22455
877.034	22398
877.162	22386
877.29	22417
877.418	22398
877.546	22455
877.674	22459
877.802	22592
877.93	22443
878.058	22379
878.185	22344
878.313	22386
878.441	22611
878.568	22284
878.696	22405
878.824	22428
878.951	22409
879.079	22687
879.206	22725
879.333	22721
879.461	22478
879.588	22615
879.715	22641
879.842	22694
879.97	22599
880.097	22246
880.224	22272
880.351	22424
880.478	22211
880.605	22196
880.732	22314
880.859	22546
880.986	22284
881.112	22500
881.239	22150
881.366	22124
881.493	21854
881.619	21880
881.746	21930
881.872	21838
881.999	21937
882.125	21713
882.252	21823
882.378	21846
882.505	21960
882.631	21785
882.757	21553
882.883	21682
883.01	21538
883.136	21473
883.262	21435
883.388	21428
883.514	21629
883.64	21572
883.766	21603
883.892	21348
884.018	21355
884.143	21549
884.269	21583
884.395	21344
884.52	21154
884.646	21165
884.772	21207
884.897	21020
885.023	21184
885.148	21374
885.274	21351
885.399	21382
885.524	21203
885.65	21138
885.775	21192
885.9	21188
886.025	21287
886.15	21226
886.275	21131
886.4	21154
886.525	21131
886.65	21173
886.775	21230
886.9	21302
887.025	21355
887.149	21112
887.274	21058
887.399	20994
887.523	21020
887.648	20979
887.773	20864
887.897	20971
888.021	20963
888.146	21013
888.27	20937
888.395	21055
888.519	21123
888.643	21055
888.767	20902
888.891	20788
889.015	20746
889.139	20788
889.263	20735
889.387	20914
889.511	20982
889.635	20925
889.759	20724
889.883	20769
890.006	20720
890.13	20804
890.254	20651
890.377	20617
890.501	20583
890.624	20495
890.748	20651
890.871	20362
890.995	20294
891.118	20275
891.241	20415
891.364	20389
891.488	20590
891.611	20396
891.734	20347
891.857	20294
891.98	20339
892.103	20469
892.226	20370
892.349	20267
892.471	20084
892.594	20282
892.717	20282
892.839	20282
892.962	20210
893.085	20339
893.207	20221
893.33	20214
893.452	20130
893.575	20271
893.697	20221
893.819	20366
893.941	20336
894.064	20377
894.186	20259
894.308	20195
894.43	20313
894.552	20404
894.674	20336
894.796	20115
894.918	20145
895.04	20161
895.161	20214
895.283	20229
895.405	20229
895.526	20225
895.648	20233
895.769	20275
895.891	20168
896.012	20252
896.134	20336
896.255	20107
896.376	20122
896.498	20210
896.619	20336
896.74	20286
896.861	20237
896.982	20587
897.103	20632
897.224	20537
897.345	20469
897.466	20393
897.587	20522
897.708	20583
897.828	20476
897.949	20442
898.07	20271
898.19	20339
898.311	20488
898.431	20343
898.552	20427
898.672	20473
898.792	20530
898.913	20412
899.033	20385
899.153	20347
899.273	20157
899.393	20172
899.513	20111
899.633	20142
899.753	20332
899.873	20202
899.993	20275
900.113	20065
900.232	20130
900.352	20027
900.472	20027
900.591	19917
900.711	20043
900.83	19852
900.95	20035
901.069	20024
901.189	19902
901.308	19689
901.427	19540
901.546	19552
901.665	19582
901.784	19647
901.904	19350
902.023	19339
902.141	19114
902.26	19084
902.379	19118
902.498	19065
902.617	18985
902.735	19110
902.854	19046
902.973	18901
903.091	18821
903.21	18692
903.328	18814
903.446	18612
903.565	18418
903.683	18642
903.801	18403
903.919	18460
904.038	18498
904.156	18369
904.274	18407
904.392	18228
904.51	18140
904.627	18228
904.745	18334
904.863	18319
904.981	18060
905.098	18045
905.216	17885
905.334	18030
905.451	17984
905.569	17863
905.686	18038
905.803	17965
905.921	17722
906.038	17958
906.155	17794
906.272	17684
906.389	17710
906.506	17566
906.623	17524
906.74	17429
906.857	17341
906.974	17558
907.091	17562
907.208	17566
907.324	17543
907.441	17429
907.557	17345
907.674	17155
907.79	17223
907.907	17212
908.023	17102
908.139	17204
908.256	17128
908.372	17064
908.488	17136
908.604	17010
908.72	16999
908.836	16984
908.952	16911
909.068	17010
909.184	17033
909.3	16911
909.415	16934
909.531	16911
909.647	16622
909.762	16649
909.878	16637
909.993	16607
910.108	16752
910.224	16516
910.339	16500
910.454	16519
910.57	16516
910.685	16367
910.8	16641
910.915	16611
911.03	16546
911.145	16280
911.259	16234
911.374	16261
911.489	16226
911.604	16124
911.718	16150
911.833	15930
911.947	15766
912.062	15827
912.176	15953
912.291	15918
912.405	15838
912.519	16071
912.633	16139
912.748	16063
912.862	15956
912.976	15823
913.09	15682
913.204	15804
913.318	15846
913.431	15892
913.545	15892
913.659	15857
913.772	15728
913.886	15614
914	15587
914.113	15530
914.226	15785
914.34	15603
914.453	15466
914.566	15660
914.68	15466
914.793	15485
914.906	15180
915.019	15169
915.132	15173
915.245	15081
915.358	15325
915.47	15169
915.583	15180
915.696	15184
915.809	15302
915.921	15313
916.034	15157
916.146	15100
916.259	15070
916.371	15020
916.483	15116
916.595	15024
916.708	15009
916.82	14998
916.932	15009
917.044	15017
917.156	15017
917.268	14910
917.38	14937
917.491	14857
917.603	14830
917.715	14857
917.826	14849
917.938	14750
918.049	14659
918.161	14739
918.272	14891
918.384	14918
918.495	14769
918.606	14613
918.717	14533
918.828	14568
918.939	14522
919.05	14446
919.161	14575
919.272	14457
919.383	14492
919.494	14689
919.604	14819
919.715	14552
919.826	14465
919.936	14568
920.047	14682
920.157	14503
920.267	14746
920.378	14552
920.488	14625
920.598	14697
920.708	14899
920.818	14708
920.928	14674
921.038	14826
921.148	14777
921.258	14518
921.368	14396
921.477	14404
921.587	14263
921.697	14225
921.806	14332
921.916	14214
922.025	14008
922.134	13947
922.244	13997
922.353	13875
922.462	13814
922.571	13689
922.68	13647
922.789	13613
922.898	13624
923.007	13559
923.116	13628
923.224	13495
923.333	13537
923.442	13403
923.55	13521
923.659	13453
923.767	13537
923.876	13316
923.984	13460
924.092	13289
924.201	13407
924.309	13320
924.417	13285
924.525	13217
924.633	13297
924.741	14050
924.849	13103
924.956	13213
925.064	13004
925.172	12935
925.279	12981
925.387	13080
925.494	13072
925.602	13107
925.709	12954
925.816	12935
925.924	12916
926.031	12935
926.138	12928
926.245	12985
926.352	12821
926.459	13015
926.566	12989
926.673	12886
926.779	12719
926.886	12757
926.993	12662
927.099	12509
927.206	12570
927.312	12490
927.419	12528
927.525	12601
927.631	12566
927.737	12467
927.843	12418
927.95	12327
928.056	12300
928.162	12418
928.267	12445
928.373	12875
928.479	12479
928.585	12205
928.69	12346
928.796	12334
928.901	12235
929.007	12125
929.112	12281
929.218	12213
929.323	12110
929.428	12133
929.533	12213
929.638	12087
929.743	11977
929.848	12136
929.953	12007
930.058	11901
930.163	11840
930.267	11756
930.372	11878
930.477	11756
930.581	11954
930.685	11828
930.79	11615
930.894	11676
930.998	11627
931.103	11775
931.207	11452
931.311	11318
931.415	11223
931.519	11056
931.623	11022
