Data from test_V78500241_275.txt Node
Date: Fri Mar 25 15:11:46 CST 2022
User: usil
Spectrometer: V785-0024
Trigger mode: 0
Integration Time (sec): 4.000000E-1
Scans to average: 1
Nonlinearity correction enabled: false
Boxcar width: 0
Storing dark spectrum: false
XAxis mode: Wavelengths
Number of Pixels in Spectrum: 1024
>>>>>Begin Spectral Data<<<<<
801.071	27580
801.214	27622
801.356	27397
801.499	27344
801.641	27180
801.783	27249
801.926	27279
802.068	27207
802.211	27039
802.353	26990
802.496	26880
802.638	26811
802.78	26693
802.923	26777
803.065	26682
803.208	26705
803.35	26811
803.492	26773
803.635	27077
803.777	26765
803.919	26887
804.061	27218
804.204	26883
804.346	26830
804.488	26746
804.63	26823
804.773	26765
804.915	26762
805.057	27066
805.199	26819
805.341	26967
805.483	26872
805.626	26952
805.768	26826
805.91	27085
806.052	27138
806.194	26990
806.336	27116
806.478	26944
806.62	26876
806.762	27024
806.904	27131
807.046	27481
807.188	27359
807.33	27294
807.472	27374
807.614	27195
807.756	27298
807.898	27176
808.04	27157
808.182	27169
808.324	27093
808.465	27249
808.607	27313
808.749	27488
808.891	27656
809.033	27736
809.174	27709
809.316	27515
809.458	27625
809.6	27591
809.741	27618
809.883	27656
810.025	27686
810.166	27854
810.308	27873
810.45	27743
810.591	27694
810.733	27568
810.875	27412
811.016	27515
811.158	27298
811.299	27534
811.441	27648
811.582	27622
811.724	27523
811.865	27386
812.007	27500
812.148	27504
812.29	27462
812.431	27694
812.573	27637
812.714	27918
812.855	27998
812.997	28029
813.138	28322
813.279	28253
813.421	28093
813.562	27983
813.703	27819
813.845	27660
813.986	27340
814.127	27142
814.268	27173
814.41	27256
814.551	27256
814.692	27226
814.833	27154
814.974	27047
815.115	27116
815.256	27043
815.397	26967
815.539	26994
815.68	26921
815.821	26937
815.962	27039
816.103	26971
816.244	26765
816.385	26533
816.526	26621
816.666	26655
816.807	26370
816.948	26263
817.089	26488
817.23	26450
817.371	26240
817.512	26412
817.653	26446
817.793	26351
817.934	26332
818.075	26309
818.216	26358
818.356	26263
818.497	26100
818.638	26092
818.778	26005
818.919	26081
819.06	26043
819.2	26149
819.341	26237
819.481	26199
819.622	26575
819.762	26663
819.903	26476
820.043	26446
820.184	26461
820.324	26286
820.465	26469
820.605	26389
820.746	26549
820.886	26168
821.026	26336
821.167	26298
821.307	26571
821.447	26278
821.588	26221
821.728	25993
821.868	25982
822.008	25826
822.149	25757
822.289	25670
822.429	25491
822.569	25415
822.709	25407
822.849	25187
822.99	25293
823.13	25198
823.27	25232
823.41	25023
823.55	24886
823.69	24966
823.83	25160
823.97	25198
824.11	24852
824.25	24806
824.389	24810
824.529	24954
824.669	24882
824.809	25012
824.949	24973
825.089	24951
825.228	24913
825.368	24795
825.508	24715
825.648	24738
825.787	24886
825.927	24825
826.067	24734
826.206	24631
826.346	24859
826.485	24863
826.625	24505
826.765	24829
826.904	24738
827.044	24544
827.183	24505
827.323	24365
827.462	24407
827.601	24494
827.741	24372
827.88	24441
828.02	24327
828.159	24437
828.298	24483
828.437	24505
828.577	24300
828.716	24509
828.855	24254
828.994	24194
829.134	24190
829.273	24034
829.412	24121
829.551	24060
829.69	24114
829.829	24159
829.968	24194
830.107	24117
830.246	24015
830.385	24136
830.524	24015
830.663	23813
830.802	23783
830.941	23729
831.08	23653
831.219	23767
831.357	23718
831.496	23870
831.635	23672
831.774	23554
831.913	23608
832.051	23524
832.19	23501
832.329	23490
832.467	23353
832.606	23353
832.744	23356
832.883	23417
833.022	23299
833.16	23311
833.299	23425
833.437	23395
833.576	23402
833.714	23425
833.852	23398
833.991	23512
834.129	23467
834.267	23440
834.406	23296
834.544	23425
834.682	23402
834.821	23334
834.959	23509
835.097	23307
835.235	23402
835.373	23303
835.511	23349
835.65	23265
835.788	23334
835.926	23056
836.064	23037
836.202	22930
836.34	23254
836.478	23452
836.615	23284
836.753	23185
836.891	23341
837.029	23231
837.167	23170
837.305	23239
837.443	23071
837.58	23162
837.718	23162
837.856	23250
837.993	23029
838.131	23041
838.269	23014
838.406	22930
838.544	22927
838.681	22782
838.819	22752
838.956	22531
839.094	22569
839.231	22596
839.369	22790
839.506	22953
839.643	22862
839.781	22615
839.918	22580
840.055	22569
840.193	22584
840.33	22603
840.467	22577
840.604	22390
840.742	22740
840.879	22462
841.016	22363
841.153	22402
841.29	22504
841.427	22440
841.564	22455
841.701	22329
841.838	22360
841.975	22413
842.112	22329
842.249	22390
842.385	22093
842.522	22280
842.659	22246
842.796	22188
842.933	22261
843.069	22082
843.206	22268
843.343	22207
843.479	22207
843.616	22257
843.752	22029
843.889	21835
844.025	22135
844.162	22059
844.298	22150
844.435	21937
844.571	21876
844.708	21953
844.844	22124
844.98	22154
845.117	22116
845.253	21918
845.389	21812
845.525	21789
845.661	21831
845.798	21580
845.934	21759
846.07	21618
846.206	21747
846.342	21717
846.478	21587
846.614	21416
846.75	21466
846.886	21291
847.022	21447
847.158	21458
847.294	21408
847.429	21469
847.565	21473
847.701	21618
847.837	21241
847.972	21112
848.108	21195
848.244	21272
848.379	21032
848.515	20998
848.65	20933
848.786	21001
848.921	20933
849.057	21047
849.192	20960
849.328	21043
849.463	20982
849.598	21009
849.734	20883
849.869	20727
850.004	20735
850.14	20769
850.275	20701
850.41	20625
850.545	20720
850.68	20819
850.815	20693
850.95	20705
851.085	20933
851.22	20868
851.355	20785
851.49	20777
851.625	20804
851.76	20651
851.895	20602
852.03	20693
852.165	20765
852.299	20788
852.434	20883
852.569	20765
852.703	20606
852.838	20746
852.973	20743
853.107	20906
853.242	20667
853.376	20511
853.511	20518
853.645	20484
853.78	20644
853.914	20541
854.048	20446
854.183	20533
854.317	20670
854.451	20701
854.585	20613
854.72	20590
854.854	20674
854.988	20552
855.122	20568
855.256	20446
855.39	20549
855.524	20590
855.658	20571
855.792	20693
855.926	20549
856.06	20602
856.194	20686
856.327	20613
856.461	20446
856.595	20461
856.729	20594
856.862	20785
856.996	20613
857.13	20549
857.263	20708
857.397	20670
857.53	20556
857.664	20571
857.797	20720
857.931	20609
858.064	20606
858.197	20663
858.331	20522
858.464	20465
858.597	20541
858.731	20575
858.864	20442
858.997	20404
859.13	20492
859.263	20560
859.396	20621
859.529	20613
859.662	20442
859.795	20495
859.928	20625
860.061	20629
860.194	20587
860.327	20522
860.46	20499
860.592	20629
860.725	20720
860.858	20644
860.99	20507
861.123	20457
861.256	20374
861.388	20530
861.521	21138
861.653	20495
861.786	20286
861.918	20457
862.05	20385
862.183	20507
862.315	20526
862.447	20571
862.58	20503
862.712	20252
862.844	20168
862.976	20328
863.108	20267
863.24	20621
863.372	20168
863.504	20221
863.636	20077
863.768	20252
863.9	20221
864.032	20195
864.164	20161
864.296	20275
864.428	20427
864.559	20294
864.691	20396
864.823	20233
864.954	20278
865.086	20252
865.217	20206
865.349	20126
865.48	20240
865.612	20088
865.743	20339
865.875	20111
866.006	20164
866.137	20134
866.269	20122
866.4	20210
866.531	20001
866.662	20024
866.793	20092
866.924	20081
867.055	20153
867.186	20172
867.317	20054
867.448	20005
867.579	19993
867.71	19982
867.841	20073
867.972	20088
868.103	19989
868.233	20164
868.364	20119
868.495	20256
868.625	20259
868.756	20427
868.886	20301
869.017	20244
869.147	20419
869.278	20511
869.408	20362
869.539	20324
869.669	20484
869.799	20393
869.929	20427
870.06	20533
870.19	20659
870.32	20686
870.45	20651
870.58	20743
870.71	20758
870.84	20819
870.97	20777
871.1	20731
871.23	20826
871.36	20948
871.489	20765
871.619	20872
871.749	20902
871.879	20921
872.008	21024
872.138	20956
872.267	20941
872.397	20785
872.526	20682
872.656	20693
872.785	20735
872.915	20902
873.044	20994
873.173	20868
873.303	20967
873.432	21081
873.561	21199
873.69	21074
873.819	20994
873.948	20986
874.077	20891
874.206	20902
874.335	20891
874.464	21005
874.593	21214
874.722	21169
874.851	21252
874.979	21199
875.108	21192
875.237	21062
875.365	21150
875.494	21043
875.623	21237
875.751	21074
875.88	21302
876.008	21348
876.136	21363
876.265	21564
876.393	21690
876.521	21679
876.65	21732
876.778	21576
876.906	21591
877.034	21408
877.162	21564
877.29	21405
877.418	21542
877.546	21549
877.674	21458
877.802	21462
877.93	21580
878.058	21405
878.185	21405
878.313	21420
878.441	21492
878.568	21287
878.696	21492
878.824	21507
878.951	21580
879.079	21663
879.206	21812
879.333	21743
879.461	21633
879.588	21724
879.715	21793
879.842	21880
879.97	21614
880.097	21428
880.224	21374
880.351	21473
880.478	21428
880.605	21386
880.732	21237
880.859	21545
880.986	21401
881.112	21302
881.239	21245
881.366	21119
881.493	21005
881.619	20895
881.746	20960
881.872	21039
881.999	20944
882.125	20769
882.252	20929
882.378	20986
882.505	21058
882.631	20842
882.757	20735
882.883	20743
883.01	20663
883.136	20541
883.262	20568
883.388	20575
883.514	20705
883.64	20682
883.766	20594
883.892	20446
884.018	20457
884.143	20594
884.269	20712
884.395	20263
884.52	20309
884.646	20320
884.772	20195
884.897	20240
885.023	20351
885.148	20275
885.274	20507
885.399	20450
885.524	20187
885.65	20298
885.775	20336
885.9	20336
886.025	20328
886.15	20301
886.275	20202
886.4	20210
886.525	20298
886.65	20278
886.775	20298
886.9	20362
887.025	20579
887.149	20282
887.274	20153
887.399	20031
887.523	20100
887.648	20096
887.773	19925
887.897	20134
888.021	20180
888.146	20073
888.27	20103
888.395	20096
888.519	20145
888.643	20088
888.767	20157
888.891	20016
889.015	20016
889.139	20016
889.263	19757
889.387	19864
889.511	20050
889.635	20005
889.759	19772
889.883	19845
890.006	19734
890.13	19928
890.254	19811
890.377	19807
890.501	19609
890.624	19681
890.748	19632
890.871	19670
890.995	19502
891.118	19483
891.241	19499
891.364	19403
891.488	19571
891.611	19472
891.734	19510
891.857	19533
891.98	19324
892.103	19510
892.226	19400
892.349	19419
892.471	19346
892.594	19422
892.717	19514
892.839	19217
892.962	19407
893.085	19358
893.207	19495
893.33	19236
893.452	19278
893.575	19358
893.697	19312
893.819	19487
893.941	19426
894.064	19491
894.186	19346
894.308	19198
894.43	19480
894.552	19597
894.674	19441
894.796	19285
894.918	19266
895.04	19343
895.161	19407
895.283	19499
895.405	19320
895.526	19301
895.648	19445
895.769	19438
895.891	19453
896.012	19590
896.134	19426
896.255	19491
896.376	19438
896.498	19445
896.619	19529
896.74	19426
896.861	19453
896.982	19700
897.103	19860
897.224	19575
897.345	19575
897.466	19590
897.587	19685
897.708	19655
897.828	19651
897.949	19544
898.07	19480
898.19	19567
898.311	19719
898.431	19540
898.552	19529
898.672	19681
898.792	19677
898.913	19624
899.033	19445
899.153	19487
899.273	19217
899.393	19430
899.513	19358
899.633	19324
899.753	19358
899.873	19255
899.993	19339
900.113	19350
900.232	19274
900.352	19297
900.472	19148
900.591	19061
900.711	19141
900.83	19107
900.95	19114
901.069	19263
901.189	18935
901.308	18802
901.427	18673
901.546	18745
901.665	18814
901.784	18719
901.904	18635
902.023	18483
902.141	18296
902.26	18384
902.379	18342
902.498	18285
902.617	18171
902.735	18194
902.854	18258
902.973	18167
903.091	17897
903.21	17859
903.328	17942
903.446	17874
903.565	17737
903.683	17748
903.801	17710
903.919	17703
904.038	17634
904.156	17532
904.274	17615
904.392	17467
904.51	17493
904.627	17497
904.745	17566
904.863	17512
904.981	17372
905.098	17273
905.216	17178
905.334	17250
905.451	17136
905.569	17166
905.686	17197
905.803	17189
905.921	17041
906.038	17056
906.155	16972
906.272	16919
906.389	16828
906.506	16706
906.623	16702
906.74	16668
906.857	16634
906.974	16637
907.091	16752
907.208	16801
907.324	16824
907.441	16558
907.557	16462
907.674	16382
907.79	16341
907.907	16402
908.023	16466
908.139	16386
908.256	16257
908.372	16352
908.488	16295
908.604	16200
908.72	16067
908.836	16173
908.952	16013
909.068	16238
909.184	16272
909.3	16131
909.415	16200
909.531	16150
909.647	15922
909.762	15819
909.878	15819
909.993	15892
910.108	15797
910.224	15888
910.339	15823
910.454	15766
910.57	15682
910.685	15568
910.8	15903
910.915	15819
911.03	15675
911.145	15450
911.259	15435
911.374	15504
911.489	15386
911.604	15401
911.718	15211
911.833	15161
911.947	15081
912.062	14933
912.176	15180
912.291	15268
912.405	15127
912.519	15344
912.633	15367
912.748	15169
912.862	15100
912.976	14891
913.09	14861
913.204	14986
913.318	15055
913.431	14982
913.545	14979
913.659	15154
913.772	14990
913.886	14861
914	14807
914.113	14914
914.226	14918
914.34	14963
914.453	14724
914.566	14792
914.68	14731
914.793	14735
914.906	14590
915.019	14423
915.132	14408
915.245	14473
915.358	14442
915.47	14461
915.583	14450
915.696	14503
915.809	14602
915.921	14636
916.034	14465
916.146	14446
916.259	14339
916.371	14461
916.483	14492
916.595	14400
916.708	14343
916.82	14313
916.932	14290
917.044	14290
917.156	14290
917.268	14115
917.38	14278
917.491	14081
917.603	14157
917.715	14229
917.826	14088
917.938	14012
918.049	14111
918.161	14065
918.272	14218
918.384	14142
918.495	14073
918.606	13993
918.717	13928
918.828	13940
918.939	13913
919.05	13734
919.161	13906
919.272	13693
919.383	13742
919.494	13890
919.604	14153
919.715	13951
919.826	13746
919.936	13731
920.047	13997
920.157	13879
920.267	13963
920.378	13974
920.488	13814
920.598	14024
920.708	14126
920.818	14058
920.928	14039
921.038	14145
921.148	14088
921.258	13761
921.368	13727
921.477	13597
921.587	13605
921.697	13369
921.806	13518
921.916	13419
922.025	13354
922.134	13282
922.244	13240
922.353	13293
922.462	13084
922.571	13046
922.68	12871
922.789	12871
922.898	12977
923.007	12875
923.116	12886
923.224	12916
923.333	12886
923.442	12772
923.55	12722
923.659	12772
923.767	12745
923.876	12760
923.984	12741
924.092	12570
924.201	12692
924.309	12707
924.417	12692
924.525	12612
924.633	12601
924.741	13282
924.849	12418
924.956	12525
925.064	12395
925.172	12311
925.279	12365
925.387	12384
925.494	12388
925.602	12525
925.709	12426
925.816	12175
925.924	12277
926.031	12384
926.138	12346
926.245	12376
926.352	12133
926.459	12384
926.566	12369
926.673	12304
926.779	12163
926.886	12178
926.993	11931
927.099	11958
927.206	11878
927.312	11965
927.419	11996
927.525	11950
927.631	11980
927.737	11874
927.843	11764
927.95	11695
928.056	11817
928.162	11737
928.267	11783
928.373	12350
928.479	11802
928.585	11528
928.69	11676
928.796	11752
928.901	11600
929.007	11452
929.112	11649
929.218	11630
929.323	11573
929.428	11528
929.533	11668
929.638	11433
929.743	11566
929.848	11535
929.953	11459
930.058	11318
930.163	11197
930.267	11185
930.372	11315
930.477	11151
930.581	11353
930.685	11254
930.79	11113
930.894	11170
930.998	11056
931.103	11254
931.207	10835
931.311	10755
931.415	10664
931.519	10451
931.623	10470
