Data from test_V78500241_2114.txt Node
Date: Fri Mar 25 15:24:34 CST 2022
User: usil
Spectrometer: V785-0024
Trigger mode: 0
Integration Time (sec): 4.000000E-1
Scans to average: 1
Nonlinearity correction enabled: false
Boxcar width: 0
Storing dark spectrum: false
XAxis mode: Wavelengths
Number of Pixels in Spectrum: 1024
>>>>>Begin Spectral Data<<<<<
801.071	27808
801.214	27911
801.356	27728
801.499	27458
801.641	27359
801.783	27462
801.926	27507
802.068	27363
802.211	27481
802.353	27237
802.496	26967
802.638	27138
802.78	26979
802.923	27066
803.065	26815
803.208	26929
803.35	27077
803.492	27173
803.635	27264
803.777	26982
803.919	27176
804.061	27587
804.204	27264
804.346	27256
804.488	27112
804.63	27291
804.773	27127
804.915	27321
805.057	27458
805.199	27268
805.341	27294
805.483	27504
805.626	27252
805.768	27302
805.91	27325
806.052	27393
806.194	27355
806.336	27378
806.478	27431
806.62	27389
806.762	27412
806.904	27485
807.046	27827
807.188	27827
807.33	27785
807.472	27800
807.614	27759
807.756	27831
807.898	27747
808.04	27641
808.182	27793
808.324	27705
808.465	27800
808.607	27831
808.749	28002
808.891	28105
809.033	28143
809.174	28059
809.316	27846
809.458	28048
809.6	27892
809.741	28120
809.883	28147
810.025	28207
810.166	28276
810.308	28272
810.45	28230
810.591	28105
810.733	28120
810.875	28021
811.016	27994
811.158	27953
811.299	28120
811.441	28017
811.582	28070
811.724	28055
811.865	28097
812.007	28116
812.148	27979
812.29	28048
812.431	28082
812.573	28310
812.714	28565
812.855	28561
812.997	28573
813.138	28733
813.279	28672
813.421	28481
813.562	28561
813.703	28417
813.845	28207
813.986	28006
814.127	27778
814.268	27751
814.41	27705
814.551	27530
814.692	27713
814.833	27641
814.974	27739
815.115	27698
815.256	27473
815.397	27580
815.539	27530
815.68	27397
815.821	27466
815.962	27504
816.103	27435
816.244	27336
816.385	27161
816.526	27272
816.666	27085
816.807	26952
816.948	27112
817.089	27074
817.23	27051
817.371	26994
817.512	27062
817.653	26910
817.793	26948
817.934	26967
818.075	26929
818.216	27017
818.356	26925
818.497	26811
818.638	26785
818.778	26522
818.919	26629
819.06	26811
819.2	26754
819.341	26842
819.481	26963
819.622	27127
819.762	27447
819.903	27211
820.043	27074
820.184	27096
820.324	27199
820.465	27127
820.605	27169
820.746	27157
820.886	27024
821.026	27081
821.167	26887
821.307	27074
821.447	27085
821.588	26925
821.728	26686
821.868	26526
822.008	26590
822.149	26434
822.289	26431
822.429	26115
822.569	26122
822.709	26111
822.849	25909
822.99	26027
823.13	25974
823.27	25970
823.41	25803
823.55	25719
823.69	25807
823.83	25845
823.97	25719
824.11	25537
824.25	25578
824.389	25578
824.529	25712
824.669	25708
824.809	25563
824.949	25704
825.089	25712
825.228	25578
825.368	25422
825.508	25415
825.648	25377
825.787	25582
825.927	25499
826.067	25434
826.206	25449
826.346	25620
826.485	25582
826.625	25441
826.765	25529
826.904	25506
827.044	25274
827.183	25320
827.323	25187
827.462	25244
827.601	25122
827.741	25076
827.88	25179
828.02	25088
828.159	25156
828.298	25095
828.437	25263
828.577	25114
828.716	25346
828.855	25122
828.994	24844
829.134	24878
829.273	25015
829.412	24722
829.551	24791
829.69	24924
829.829	24871
829.968	25050
830.107	24962
830.246	24958
830.385	24951
830.524	24856
830.663	24616
830.802	24703
830.941	24513
831.08	24521
831.219	24589
831.357	24479
831.496	24650
831.635	24544
831.774	24452
831.913	24304
832.051	24300
832.19	24296
832.329	24285
832.467	24300
832.606	24144
832.744	24155
832.883	24174
833.022	24083
833.16	24049
833.299	24201
833.437	24216
833.576	24213
833.714	24304
833.852	24228
833.991	24334
834.129	24350
834.267	24239
834.406	24201
834.544	24224
834.682	24311
834.821	24133
834.959	24308
835.097	24258
835.235	24197
835.373	24224
835.511	24315
835.65	23999
835.788	24110
835.926	23889
836.064	23828
836.202	24011
836.34	23988
836.478	24129
836.615	24060
836.753	23999
836.891	24148
837.029	24060
837.167	23996
837.305	23847
837.443	23931
837.58	24003
837.718	23942
837.856	23935
837.993	23805
838.131	23866
838.269	23707
838.406	23771
838.544	23687
838.681	23668
838.819	23600
838.956	23356
839.094	23265
839.231	23356
839.369	23490
839.506	23695
839.643	23627
839.781	23410
839.918	23509
840.055	23311
840.193	23337
840.33	23307
840.467	23364
840.604	23318
840.742	23516
840.879	23094
841.016	23299
841.153	23181
841.29	23379
841.427	23288
841.564	23410
841.701	23311
841.838	23231
841.975	23090
842.112	23155
842.249	23064
842.385	23033
842.522	23212
842.659	23117
842.796	23041
842.933	23010
843.069	22908
843.206	23003
843.343	23094
843.479	23018
843.616	22987
843.752	22839
843.889	22805
844.025	22919
844.162	22858
844.298	22911
844.435	22710
844.571	22706
844.708	22828
844.844	22987
844.98	22873
845.117	22847
845.253	22641
845.389	22698
845.525	22702
845.661	22611
845.798	22557
845.934	22710
846.07	22504
846.206	22580
846.342	22599
846.478	22580
846.614	22413
846.75	22215
846.886	22226
847.022	22462
847.158	22382
847.294	22257
847.429	22333
847.565	22230
847.701	22474
847.837	22029
847.972	21915
848.108	22169
848.244	21975
848.379	21804
848.515	21827
848.65	21823
848.786	21876
848.921	21964
849.057	22074
849.192	21937
849.328	21998
849.463	21892
849.598	21861
849.734	21759
849.869	21736
850.004	21675
850.14	21526
850.275	21633
850.41	21511
850.545	21587
850.68	21538
850.815	21698
850.95	21641
851.085	21793
851.22	21743
851.355	21713
851.49	21618
851.625	21656
851.76	21694
851.895	21424
852.03	21530
852.165	21557
852.299	21671
852.434	21686
852.569	21568
852.703	21641
852.838	21743
852.973	21797
853.107	21656
853.242	21652
853.376	21458
853.511	21317
853.645	21344
853.78	21690
853.914	21435
854.048	21431
854.183	21424
854.317	21439
854.451	21724
854.585	21313
854.72	21431
854.854	21500
854.988	21378
855.122	21477
855.256	21348
855.39	21515
855.524	21492
855.658	21443
855.792	21443
855.926	21355
856.06	21488
856.194	21431
856.327	21321
856.461	21317
856.595	21355
856.729	21473
856.862	21443
856.996	21405
857.13	21458
857.263	21466
857.397	21553
857.53	21351
857.664	21526
857.797	21538
857.931	21485
858.064	21435
858.197	21412
858.331	21424
858.464	21515
858.597	21340
858.731	21401
858.864	21363
858.997	21340
859.13	21435
859.263	21458
859.396	21583
859.529	21507
859.662	21378
859.795	21408
859.928	21367
860.061	21572
860.194	21633
860.327	21481
860.46	21545
860.592	21591
860.725	21542
860.858	21599
860.99	21348
861.123	21203
861.256	21378
861.388	21458
861.521	22150
861.653	21317
861.786	21241
861.918	21268
862.05	21367
862.183	21332
862.315	21332
862.447	21488
862.58	21325
862.712	21192
862.844	21154
862.976	21184
863.108	21260
863.24	21572
863.372	21017
863.504	21062
863.636	21199
863.768	21207
863.9	21081
864.032	21089
864.164	21066
864.296	21173
864.428	21203
864.559	21233
864.691	21192
864.823	21150
864.954	21020
865.086	21043
865.217	21032
865.349	20868
865.48	21017
865.612	21009
865.743	21154
865.875	21024
866.006	20975
866.137	21188
866.269	20842
866.4	21074
866.531	21104
866.662	20910
866.793	20902
866.924	20986
867.055	20960
867.186	20960
867.317	21009
867.448	20826
867.579	20925
867.71	20861
867.841	20792
867.972	20963
868.103	21009
868.233	21043
868.364	21051
868.495	21005
868.625	21203
868.756	21310
868.886	21089
869.017	21226
869.147	21317
869.278	21393
869.408	21089
869.539	21241
869.669	21317
869.799	21287
869.929	21230
870.06	21214
870.19	21435
870.32	21382
870.45	21515
870.58	21637
870.71	21564
870.84	21648
870.97	21675
871.1	21591
871.23	21732
871.36	21876
871.489	21827
871.619	21713
871.749	21728
871.879	21857
872.008	21865
872.138	21915
872.267	21892
872.397	21717
872.526	21587
872.656	21568
872.785	21641
872.915	21865
873.044	21949
873.173	21888
873.303	21861
873.432	21915
873.561	21934
873.69	21781
873.819	21846
873.948	21960
874.077	21831
874.206	21797
874.335	21804
874.464	21778
874.593	22002
874.722	22048
874.851	22169
874.979	22010
875.108	21945
875.237	21960
875.365	21880
875.494	22048
875.623	22238
875.751	21979
875.88	22135
876.008	22078
876.136	22280
876.265	22462
876.393	22561
876.521	22421
876.65	22550
876.778	22375
876.906	22440
877.034	22436
877.162	22398
877.29	22276
877.418	22409
877.546	22379
877.674	22379
877.802	22371
877.93	22310
878.058	22409
878.185	22242
878.313	22466
878.441	22459
878.568	22223
878.696	22314
878.824	22356
878.951	22382
879.079	22493
879.206	22740
879.333	22531
879.461	22341
879.588	22493
879.715	22538
879.842	22672
879.97	22428
880.097	22253
880.224	22249
880.351	22242
880.478	22287
880.605	22177
880.732	22158
880.859	22333
880.986	22139
881.112	22238
881.239	22147
881.366	21915
881.493	21899
881.619	21743
881.746	21720
881.872	21804
881.999	21827
882.125	21751
882.252	21789
882.378	21724
882.505	21800
882.631	21629
882.757	21466
882.883	21583
883.01	21439
883.136	21473
883.262	21401
883.388	21230
883.514	21473
883.64	21458
883.766	21435
883.892	21256
884.018	21268
884.143	21431
884.269	21530
884.395	21150
884.52	21074
884.646	21161
884.772	21070
884.897	20990
885.023	21036
885.148	21199
885.274	21237
885.399	21287
885.524	21226
885.65	21135
885.775	21146
885.9	21074
886.025	21127
886.15	21112
886.275	21077
886.4	21017
886.525	21157
886.65	21066
886.775	21032
886.9	21230
887.025	21264
887.149	21077
887.274	20876
887.399	20929
887.523	20982
887.648	20895
887.773	20754
887.897	20906
888.021	20895
888.146	20845
888.27	20868
888.395	21039
888.519	20899
888.643	20868
888.767	20861
888.891	20697
889.015	20754
889.139	20750
889.263	20762
889.387	20598
889.511	20838
889.635	20838
889.759	20743
889.883	20644
890.006	20746
890.13	20705
890.254	20636
890.377	20590
890.501	20396
890.624	20461
890.748	20377
890.871	20317
890.995	20278
891.118	20138
891.241	20187
891.364	20195
891.488	20412
891.611	20210
891.734	20267
891.857	20298
891.98	20191
892.103	20290
892.226	20221
892.349	20138
892.471	20043
892.594	20088
892.717	20259
892.839	20138
892.962	20225
893.085	20225
893.207	20191
893.33	20138
893.452	20180
893.575	20157
893.697	20088
893.819	20202
893.941	20358
894.064	20240
894.186	20092
894.308	19947
894.43	20229
894.552	20351
894.674	20187
894.796	20012
894.918	20058
895.04	20107
895.161	20145
895.283	20172
895.405	19936
895.526	20020
895.648	20119
895.769	20187
895.891	20103
896.012	20309
896.134	20206
896.255	20149
896.376	20134
896.498	20168
896.619	20218
896.74	20195
896.861	20142
896.982	20499
897.103	20648
897.224	20396
897.345	20374
897.466	20404
897.587	20355
897.708	20419
897.828	20298
897.949	20271
898.07	20180
898.19	20377
898.311	20438
898.431	20343
898.552	20385
898.672	20374
898.792	20389
898.913	20343
899.033	20206
899.153	20263
899.273	20069
899.393	20145
899.513	20225
899.633	20111
899.753	20119
899.873	20122
899.993	20092
900.113	19982
900.232	20100
900.352	19989
900.472	20001
900.591	19932
900.711	19940
900.83	19841
900.95	19940
901.069	19928
901.189	19738
901.308	19582
901.427	19506
901.546	19487
901.665	19445
901.784	19476
901.904	19373
902.023	19209
902.141	19065
902.26	18943
902.379	19004
902.498	18962
902.617	19031
902.735	18966
902.854	19019
902.973	18878
903.091	18688
903.21	18700
903.328	18665
903.446	18544
903.565	18498
903.683	18555
903.801	18376
903.919	18448
904.038	18426
904.156	18292
904.274	18273
904.392	18213
904.51	18178
904.627	18174
904.745	18254
904.863	18239
904.981	18064
905.098	17843
905.216	17939
905.334	18026
905.451	17988
905.569	17859
905.686	17859
905.803	17935
905.921	17752
906.038	17764
906.155	17680
906.272	17585
906.389	17657
906.506	17452
906.623	17406
906.74	17474
906.857	17280
906.974	17360
907.091	17573
907.208	17600
907.324	17395
907.441	17318
907.557	17113
907.674	17185
907.79	17105
907.907	17170
908.023	17181
908.139	17098
908.256	17033
908.372	17109
908.488	16991
908.604	16915
908.72	16839
908.836	16889
908.952	16843
909.068	16889
909.184	16949
909.3	16900
909.415	16919
909.531	16778
909.647	16596
909.762	16542
909.878	16584
909.993	16527
910.108	16630
910.224	16508
910.339	16474
910.454	16451
910.57	16314
910.685	16371
910.8	16626
910.915	16634
911.03	16310
911.145	16196
911.259	16215
911.374	16158
911.489	16109
911.604	15987
911.718	15907
911.833	15911
911.947	15873
912.062	15774
912.176	15926
912.291	15888
912.405	15850
912.519	16093
912.633	16166
912.748	15998
912.862	15880
912.976	15743
913.09	15641
913.204	15652
913.318	15694
913.431	15671
913.545	15888
913.659	15816
913.772	15660
913.886	15614
914	15511
914.113	15587
914.226	15705
914.34	15526
914.453	15511
914.566	15500
914.68	15397
914.793	15416
914.906	15233
915.019	15093
915.132	15005
915.245	15112
915.358	15142
915.47	15169
915.583	15036
915.696	15146
915.809	15245
915.921	15138
916.034	15077
916.146	14979
916.259	15005
916.371	15112
916.483	15005
916.595	14967
916.708	14975
916.82	14990
916.932	14899
917.044	14895
917.156	14906
917.268	14800
917.38	14724
917.491	14830
917.603	14769
917.715	14830
917.826	14773
917.938	14765
918.049	14640
918.161	14689
918.272	14819
918.384	14838
918.495	14807
918.606	14571
918.717	14530
918.828	14522
918.939	14568
919.05	14434
919.161	14503
919.272	14408
919.383	14438
919.494	14636
919.604	14724
919.715	14587
919.826	14488
919.936	14446
920.047	14621
920.157	14606
920.267	14674
920.378	14457
920.488	14442
920.598	14613
920.708	14826
920.818	14640
920.928	14613
921.038	14762
921.148	14708
921.258	14404
921.368	14347
921.477	14320
921.587	14199
921.697	14058
921.806	14290
921.916	14119
922.025	13887
922.134	13887
922.244	13826
922.353	13906
922.462	13845
922.571	13715
922.68	13601
922.789	13502
922.898	13537
923.007	13377
923.116	13502
923.224	13476
923.333	13518
923.442	13419
923.55	13388
923.659	13430
923.767	13396
923.876	13259
923.984	13327
924.092	13179
924.201	13232
924.309	13240
924.417	13206
924.525	13145
924.633	13255
924.741	14043
924.849	12996
924.956	13206
925.064	12981
925.172	12848
925.279	12856
925.387	12966
925.494	12905
925.602	12970
925.709	13008
925.816	12833
925.924	12867
926.031	12954
926.138	12833
926.245	12943
926.352	12863
926.459	12916
926.566	12928
926.673	12783
926.779	12684
926.886	12681
926.993	12502
927.099	12517
927.206	12475
927.312	12517
927.419	12494
927.525	12517
927.631	12623
927.737	12388
927.843	12281
927.95	12285
928.056	12296
928.162	12448
928.267	12372
928.373	13050
928.479	12448
928.585	12175
928.69	12308
928.796	12277
928.901	12247
929.007	12038
929.112	12213
929.218	12095
929.323	12121
929.428	12064
929.533	12155
929.638	11927
929.743	11999
929.848	12110
929.953	12041
930.058	11866
930.163	11695
930.267	11707
930.372	11950
930.477	11672
930.581	11977
930.685	11809
930.79	11630
930.894	11699
930.998	11589
931.103	11748
931.207	11368
931.311	11307
931.415	11140
931.519	11014
931.623	11064
