Data from test_V78500241_3123.txt Node
Date: Fri Mar 25 15:31:36 CST 2022
User: usil
Spectrometer: V785-0024
Trigger mode: 0
Integration Time (sec): 4.000000E-1
Scans to average: 1
Nonlinearity correction enabled: false
Boxcar width: 0
Storing dark spectrum: false
XAxis mode: Wavelengths
Number of Pixels in Spectrum: 1024
>>>>>Begin Spectral Data<<<<<
801.071	27135
801.214	27051
801.356	26842
801.499	26804
801.641	26575
801.783	26564
801.926	26735
802.068	26678
802.211	26484
802.353	26473
802.496	26317
802.638	26347
802.78	26298
802.923	26248
803.065	26062
803.208	26088
803.35	26168
803.492	26393
803.635	26400
803.777	26237
803.919	26385
804.061	26693
804.204	26419
804.346	26339
804.488	26355
804.63	26328
804.773	26252
804.915	26320
805.057	26495
805.199	26343
805.341	26431
805.483	26533
805.626	26533
805.768	26465
805.91	26514
806.052	26457
806.194	26431
806.336	26746
806.478	26579
806.62	26507
806.762	26590
806.904	26659
807.046	27036
807.188	26994
807.33	26986
807.472	27013
807.614	26899
807.756	26769
807.898	26708
808.04	26549
808.182	26678
808.324	26762
808.465	26746
808.607	26967
808.749	27074
808.891	27077
809.033	27180
809.174	27192
809.316	26956
809.458	27032
809.6	26921
809.741	27230
809.883	27081
810.025	27294
810.166	27389
810.308	27374
810.45	27283
810.591	27283
810.733	27169
810.875	27013
811.016	27032
811.158	27009
811.299	27142
811.441	27241
811.582	27245
811.724	27157
811.865	26937
812.007	26990
812.148	27176
812.29	27142
812.431	27313
812.573	27405
812.714	27534
812.855	27656
812.997	27549
813.138	27865
813.279	27736
813.421	27408
813.562	27606
813.703	27382
813.845	27180
813.986	26967
814.127	26792
814.268	26883
814.41	26712
814.551	26613
814.692	26762
814.833	26663
814.974	26651
815.115	26785
815.256	26629
815.397	26663
815.539	26594
815.68	26453
815.821	26461
815.962	26594
816.103	26313
816.244	26351
816.385	26393
816.526	26282
816.666	25982
816.807	25959
816.948	26073
817.089	26214
817.23	26046
817.371	26046
817.512	25940
817.653	25871
817.793	25966
817.934	26001
818.075	26001
818.216	26054
818.356	25936
818.497	26043
818.638	25689
818.778	25784
818.919	25715
819.06	25849
819.2	25898
819.341	25978
819.481	25982
819.622	26180
819.762	26343
819.903	26229
820.043	26229
820.184	26122
820.324	26020
820.465	26202
820.605	26119
820.746	26065
820.886	25993
821.026	26081
821.167	25799
821.307	26142
821.447	25974
821.588	25852
821.728	25712
821.868	25571
822.008	25464
822.149	25411
822.289	25308
822.429	25080
822.569	25110
822.709	25069
822.849	25038
822.99	24947
823.13	24840
823.27	24981
823.41	24772
823.55	24707
823.69	24730
823.83	24707
823.97	24810
824.11	24505
824.25	24555
824.389	24475
824.529	24597
824.669	24391
824.809	24684
824.949	24692
825.089	24814
825.228	24642
825.368	24498
825.508	24426
825.648	24437
825.787	24555
825.927	24623
826.067	24414
826.206	24407
826.346	24486
826.485	24597
826.625	24384
826.765	24620
826.904	24452
827.044	24224
827.183	24121
827.323	24136
827.462	24277
827.601	24049
827.741	24178
827.88	24243
828.02	23977
828.159	24091
828.298	24178
828.437	24057
828.577	24060
828.716	24281
828.855	24133
828.994	23916
829.134	23893
829.273	23897
829.412	23901
829.551	23794
829.69	23863
829.829	23889
829.968	23843
830.107	23946
830.246	23672
830.385	23680
830.524	23748
830.663	23619
830.802	23589
830.941	23486
831.08	23558
831.219	23570
831.357	23718
831.496	23695
831.635	23417
831.774	23330
831.913	23296
832.051	23360
832.19	23261
832.329	23368
832.467	23159
832.606	23003
832.744	23018
832.883	23064
833.022	23102
833.16	23159
833.299	23128
833.437	23223
833.576	23277
833.714	23223
833.852	23334
833.991	23239
834.129	23197
834.267	23231
834.406	23349
834.544	23364
834.682	23193
834.821	23140
834.959	23349
835.097	23235
835.235	23212
835.373	23208
835.511	23166
835.65	23064
835.788	23041
835.926	23060
836.064	22885
836.202	22915
836.34	23128
836.478	23242
836.615	23064
836.753	23102
836.891	23208
837.029	23071
837.167	22885
837.305	23014
837.443	23010
837.58	22995
837.718	23071
837.856	22908
837.993	22938
838.131	22873
838.269	22752
838.406	22877
838.544	22812
838.681	22611
838.819	22618
838.956	22500
839.094	22344
839.231	22413
839.369	22516
839.506	22774
839.643	22778
839.781	22436
839.918	22424
840.055	22508
840.193	22333
840.33	22352
840.467	22459
840.604	22375
840.742	22615
840.879	22215
841.016	22272
841.153	22192
841.29	22481
841.427	22329
841.564	22344
841.701	22306
841.838	22314
841.975	22272
842.112	22287
842.249	22181
842.385	22097
842.522	22325
842.659	22120
842.796	22078
842.933	22135
843.069	22070
843.206	22139
843.343	22207
843.479	22112
843.616	22143
843.752	21835
843.889	21835
844.025	22002
844.162	21846
844.298	22032
844.435	21778
844.571	21629
844.708	21998
844.844	22017
844.98	22025
845.117	22006
845.253	21812
845.389	21686
845.525	21709
845.661	21793
845.798	21606
845.934	21682
846.07	21591
846.206	21675
846.342	21698
846.478	21637
846.614	21435
846.75	21298
846.886	21275
847.022	21370
847.158	21340
847.294	21401
847.429	21344
847.565	21283
847.701	21637
847.837	21116
847.972	21036
848.108	21195
848.244	21180
848.379	21009
848.515	20819
848.65	20910
848.786	20880
848.921	21062
849.057	21009
849.192	20948
849.328	20971
849.463	21005
849.598	20902
849.734	20697
849.869	20724
850.004	20697
850.14	20762
850.275	20739
850.41	20705
850.545	20522
850.68	20609
850.815	20754
850.95	20769
851.085	20872
851.22	20743
851.355	20720
851.49	20651
851.625	20670
851.76	20708
851.895	20636
852.03	20537
852.165	20689
852.299	20693
852.434	20769
852.569	20705
852.703	20682
852.838	20800
852.973	20845
853.107	20804
853.242	20667
853.376	20457
853.511	20408
853.645	20389
853.78	20514
853.914	20511
854.048	20533
854.183	20495
854.317	20537
854.451	20617
854.585	20571
854.72	20476
854.854	20655
854.988	20499
855.122	20431
855.256	20343
855.39	20571
855.524	20556
855.658	20469
855.792	20644
855.926	20598
856.06	20606
856.194	20583
856.327	20621
856.461	20408
856.595	20511
856.729	20503
856.862	20667
856.996	20492
857.13	20663
857.263	20716
857.397	20629
857.53	20583
857.664	20488
857.797	20545
857.931	20659
858.064	20564
858.197	20663
858.331	20541
858.464	20461
858.597	20423
858.731	20419
858.864	20476
858.997	20499
859.13	20587
859.263	20492
859.396	20606
859.529	20457
859.662	20503
859.795	20423
859.928	20537
860.061	20746
860.194	20678
860.327	20522
860.46	20549
860.592	20682
860.725	20655
860.858	20678
860.99	20522
861.123	20469
861.256	20446
861.388	20629
861.521	21096
861.653	20419
861.786	20252
861.918	20374
862.05	20374
862.183	20434
862.315	20549
862.447	20434
862.58	20434
862.712	20221
862.844	20180
862.976	20244
863.108	20229
863.24	20571
863.372	20180
863.504	20134
863.636	20115
863.768	20191
863.9	20206
864.032	20164
864.164	20183
864.296	20214
864.428	20343
864.559	20282
864.691	20377
864.823	20206
864.954	20195
865.086	20183
865.217	20183
865.349	20084
865.48	20119
865.612	20157
865.743	20225
865.875	20126
866.006	20218
866.137	20130
866.269	20210
866.4	20130
866.531	20077
866.662	20065
866.793	20020
866.924	20142
867.055	20161
867.186	20115
867.317	20046
867.448	20005
867.579	20073
867.71	20103
867.841	19982
867.972	20065
868.103	20027
868.233	20077
868.364	20062
868.495	20081
868.625	20294
868.756	20434
868.886	20210
869.017	20427
869.147	20480
869.278	20393
869.408	20313
869.539	20320
869.669	20415
869.799	20400
869.929	20381
870.06	20404
870.19	20663
870.32	20560
870.45	20659
870.58	20545
870.71	20762
870.84	20845
870.97	20701
871.1	20724
871.23	20887
871.36	20842
871.489	20910
871.619	20902
871.749	20918
871.879	20952
872.008	21077
872.138	20902
872.267	20979
872.397	20864
872.526	20845
872.656	20735
872.785	20823
872.915	20982
873.044	20960
873.173	21058
873.303	21032
873.432	20902
873.561	20998
873.69	20944
873.819	20971
873.948	21066
874.077	20963
874.206	20868
874.335	20864
874.464	21093
874.593	21192
874.722	21077
874.851	21100
874.979	21252
875.108	21302
875.237	21146
875.365	21173
875.494	21294
875.623	21332
875.751	21116
875.88	21241
876.008	21317
876.136	21355
876.265	21690
876.393	21743
876.521	21675
876.65	21663
876.778	21606
876.906	21488
877.034	21462
877.162	21648
877.29	21561
877.418	21694
877.546	21603
877.674	21625
877.802	21606
877.93	21583
878.058	21523
878.185	21481
878.313	21595
878.441	21477
878.568	21252
878.696	21507
878.824	21580
878.951	21778
879.079	21736
879.206	21865
879.333	21743
879.461	21633
879.588	21739
879.715	21785
879.842	21903
879.97	21709
880.097	21431
880.224	21370
880.351	21389
880.478	21424
880.605	21386
880.732	21431
880.859	21606
880.986	21435
881.112	21363
881.239	21393
881.366	21142
881.493	21051
881.619	20941
881.746	20929
881.872	20921
881.999	20899
882.125	21001
882.252	20986
882.378	20800
882.505	21043
882.631	20758
882.757	20762
882.883	20765
883.01	20697
883.136	20476
883.262	20564
883.388	20450
883.514	20625
883.64	20750
883.766	20549
883.892	20492
884.018	20598
884.143	20686
884.269	20670
884.395	20469
884.52	20332
884.646	20347
884.772	20187
884.897	20210
885.023	20396
885.148	20484
885.274	20488
885.399	20396
885.524	20412
885.65	20282
885.775	20320
885.9	20320
886.025	20461
886.15	20393
886.275	20282
886.4	20218
886.525	20324
886.65	20343
886.775	20195
886.9	20381
887.025	20476
887.149	20339
887.274	20134
887.399	20126
887.523	20046
887.648	20088
887.773	19993
887.897	20149
888.021	20248
888.146	20065
888.27	20221
888.395	20199
888.519	20092
888.643	20138
888.767	20115
888.891	19993
889.015	19951
889.139	20065
889.263	19993
889.387	20096
889.511	20107
889.635	20005
889.759	19856
889.883	19837
890.006	19837
890.13	20031
890.254	19856
890.377	19791
890.501	19693
890.624	19571
890.748	19719
890.871	19563
890.995	19449
891.118	19411
891.241	19426
891.364	19510
891.488	19582
891.611	19476
891.734	19449
891.857	19613
891.98	19422
892.103	19502
892.226	19525
892.349	19548
892.471	19270
892.594	19381
892.717	19373
892.839	19388
892.962	19354
893.085	19491
893.207	19457
893.33	19217
893.452	19324
893.575	19464
893.697	19434
893.819	19590
893.941	19651
894.064	19525
894.186	19392
894.308	19308
894.43	19548
894.552	19590
894.674	19468
894.796	19388
894.918	19369
895.04	19388
895.161	19559
895.283	19438
895.405	19301
895.526	19365
895.648	19449
895.769	19422
895.891	19533
896.012	19510
896.134	19521
896.255	19510
896.376	19362
896.498	19403
896.619	19365
896.74	19483
896.861	19453
896.982	19719
897.103	19906
897.224	19769
897.345	19518
897.466	19632
897.587	19624
897.708	19719
897.828	19677
897.949	19601
898.07	19460
898.19	19586
898.311	19628
898.431	19620
898.552	19639
898.672	19750
898.792	19666
898.913	19651
899.033	19483
899.153	19445
899.273	19365
899.393	19480
899.513	19396
899.633	19521
899.753	19476
899.873	19358
899.993	19415
900.113	19259
900.232	19453
900.352	19320
900.472	19240
900.591	19183
900.711	19160
900.83	19171
900.95	19304
901.069	19213
901.189	19053
901.308	18852
901.427	18798
901.546	18886
901.665	18894
901.784	18779
901.904	18589
902.023	18612
902.141	18353
902.26	18323
902.379	18490
902.498	18437
902.617	18285
902.735	18365
902.854	18239
902.973	18209
903.091	18121
903.21	18022
903.328	17977
903.446	17882
903.565	17752
903.683	17855
903.801	17726
903.919	17699
904.038	17733
904.156	17615
904.274	17703
904.392	17710
904.51	17463
904.627	17566
904.745	17589
904.863	17577
904.981	17429
905.098	17254
905.216	17284
905.334	17227
905.451	17227
905.569	17140
905.686	17307
905.803	17200
905.921	16949
906.038	17022
906.155	16968
906.272	16881
906.389	16980
906.506	16812
906.623	16828
906.74	16706
906.857	16611
906.974	16660
907.091	16740
907.208	16923
907.324	16755
907.441	16672
907.557	16565
907.674	16592
907.79	16542
907.907	16462
908.023	16535
908.139	16512
908.256	16497
908.372	16379
908.488	16421
908.604	16196
908.72	16124
908.836	16223
908.952	16226
909.068	16291
909.184	16303
909.3	16242
909.415	16314
909.531	16246
909.647	16010
909.762	15953
909.878	15827
909.993	15876
910.108	15975
910.224	15865
910.339	15838
910.454	15827
910.57	15789
910.685	15774
910.8	15972
910.915	15930
911.03	15694
911.145	15587
911.259	15500
911.374	15545
911.489	15481
911.604	15447
911.718	15351
911.833	15344
911.947	15237
912.062	15241
912.176	15287
912.291	15291
912.405	15450
912.519	15576
912.633	15477
912.748	15420
912.862	15226
912.976	15188
913.09	14994
913.204	15097
913.318	15119
913.431	15150
913.545	15161
913.659	15070
913.772	15062
913.886	15013
914	14918
914.113	15032
914.226	15097
914.34	14975
914.453	14739
914.566	14918
914.68	14902
914.793	14762
914.906	14743
915.019	14621
915.132	14450
915.245	14556
915.358	14575
915.47	14629
915.583	14564
915.696	14518
915.809	14705
915.921	14796
916.034	14514
916.146	14511
916.259	14446
916.371	14499
916.483	14629
916.595	14358
916.708	14385
916.82	14434
916.932	14324
917.044	14339
917.156	14446
917.268	14286
917.38	14199
917.491	14229
917.603	14301
917.715	14339
917.826	14290
917.938	14119
918.049	14043
918.161	14187
918.272	14221
918.384	14294
918.495	14172
918.606	14126
918.717	13959
918.828	14016
918.939	14008
919.05	13944
919.161	14001
919.272	13803
919.383	13917
919.494	13959
919.604	14130
919.715	14058
919.826	13856
919.936	13989
920.047	13967
920.157	13951
920.267	14187
920.378	13936
920.488	13913
920.598	14107
920.708	14271
920.818	13997
920.928	14084
921.038	14290
921.148	14320
921.258	13902
921.368	13856
921.477	13864
921.587	13715
921.697	13655
921.806	13769
921.916	13582
922.025	13354
922.134	13308
922.244	13308
922.353	13430
922.462	13278
922.571	13251
922.68	13019
922.789	13038
922.898	12954
923.007	12985
923.116	13053
923.224	13099
923.333	13057
923.442	12867
923.55	12779
923.659	12916
923.767	12871
923.876	12871
923.984	12817
924.092	12707
924.201	12802
924.309	12745
924.417	12825
924.525	12791
924.633	12753
924.741	13666
924.849	12498
924.956	12631
925.064	12555
925.172	12494
925.279	12414
925.387	12547
925.494	12521
925.602	12544
925.709	12452
925.816	12437
925.924	12452
926.031	12509
926.138	12369
926.245	12467
926.352	12414
926.459	12559
926.566	12540
926.673	12311
926.779	12285
926.886	12209
926.993	12167
927.099	12053
927.206	11954
927.312	12083
927.419	12175
927.525	12034
927.631	12114
927.737	11958
927.843	11935
927.95	11783
928.056	11878
928.162	11859
928.267	11874
928.373	12517
928.479	11973
928.585	11714
928.69	11821
928.796	11855
928.901	11737
929.007	11623
929.112	11733
929.218	11722
929.323	11638
929.428	11657
929.533	11710
929.638	11551
929.743	11516
929.848	11585
929.953	11539
930.058	11383
930.163	11391
930.267	11368
930.372	11516
930.477	11250
930.581	11452
930.685	11398
930.79	11201
930.894	11227
930.998	11147
931.103	11356
931.207	10930
931.311	10854
931.415	10858
931.519	10607
931.623	10637
