Data from test_V78500241_1171.txt Node
Date: Fri Mar 25 15:18:00 CST 2022
User: usil
Spectrometer: V785-0024
Trigger mode: 0
Integration Time (sec): 4.000000E-1
Scans to average: 1
Nonlinearity correction enabled: false
Boxcar width: 0
Storing dark spectrum: false
XAxis mode: Wavelengths
Number of Pixels in Spectrum: 1024
>>>>>Begin Spectral Data<<<<<
801.071	28112
801.214	28074
801.356	27934
801.499	27888
801.641	27709
801.783	27705
801.926	27724
802.068	27755
802.211	27679
802.353	27583
802.496	27427
802.638	27329
802.78	27359
802.923	27264
803.065	27142
803.208	27389
803.35	27549
803.492	27389
803.635	27492
803.777	27466
803.919	27473
804.061	27816
804.204	27667
804.346	27526
804.488	27389
804.63	27538
804.773	27538
804.915	27576
805.057	27679
805.199	27580
805.341	27629
805.483	27713
805.626	27865
805.768	27473
805.91	27549
806.052	27747
806.194	27732
806.336	27808
806.478	27800
806.62	27663
806.762	27918
806.904	27949
807.046	28200
807.188	28257
807.33	28196
807.472	28150
807.614	28116
807.756	28276
807.898	28025
808.04	27907
808.182	27972
808.324	28059
808.465	28063
808.607	28200
808.749	28325
808.891	28352
809.033	28584
809.174	28314
809.316	28162
809.458	28409
809.6	28291
809.741	28424
809.883	28504
810.025	28664
810.166	28637
810.308	28577
810.45	28527
810.591	28413
810.733	28386
810.875	28485
811.016	28276
811.158	28306
811.299	28466
811.441	28379
811.582	28447
811.724	28447
811.865	28485
812.007	28295
812.148	28428
812.29	28337
812.431	28607
812.573	28691
812.714	28683
812.855	29014
812.997	28919
813.138	29098
813.279	29064
813.421	28968
813.562	28946
813.703	28786
813.845	28603
813.986	28253
814.127	28318
814.268	27998
814.41	27975
814.551	28131
814.692	28006
814.833	28017
814.974	27987
815.115	27972
815.256	27823
815.397	27880
815.539	27876
815.68	27876
815.821	27918
815.962	27892
816.103	27884
816.244	27774
816.385	27739
816.526	27720
816.666	27477
816.807	27313
816.948	27526
817.089	27488
817.23	27401
817.371	27294
817.512	27313
817.653	27180
817.793	27268
817.934	27317
818.075	27408
818.216	27458
818.356	27405
818.497	27283
818.638	27047
818.778	27135
818.919	27009
819.06	27188
819.2	27226
819.341	27412
819.481	27443
819.622	27526
819.762	27614
819.903	27739
820.043	27743
820.184	27458
820.324	27458
820.465	27477
820.605	27606
820.746	27515
820.886	27427
821.026	27435
821.167	27431
821.307	27690
821.447	27462
821.588	27203
821.728	27176
821.868	27028
822.008	26880
822.149	26727
822.289	26758
822.429	26705
822.569	26568
822.709	26583
822.849	26377
822.99	26408
823.13	26427
823.27	26252
823.41	26183
823.55	26054
823.69	26221
823.83	26229
823.97	26100
824.11	25978
824.25	26012
824.389	25966
824.529	26157
824.669	25928
824.809	26024
824.949	25997
825.089	26088
825.228	26271
825.368	25913
825.508	25936
825.648	25890
825.787	26050
825.927	25902
826.067	25826
826.206	25864
826.346	25894
826.485	26043
826.625	25986
826.765	25947
826.904	25913
827.044	25742
827.183	25624
827.323	25658
827.462	25674
827.601	25696
827.741	25628
827.88	25525
828.02	25544
828.159	25601
828.298	25537
828.437	25704
828.577	25613
828.716	25761
828.855	25476
828.994	25464
829.134	25297
829.273	25335
829.412	25365
829.551	25369
829.69	25350
829.829	25324
829.968	25525
830.107	25400
830.246	25377
830.385	25316
830.524	25217
830.663	25225
830.802	25080
830.941	25027
831.08	24985
831.219	25099
831.357	25160
831.496	25133
831.635	24970
831.774	24951
831.913	24897
832.051	24825
832.19	24730
832.329	24814
832.467	24692
832.606	24593
832.744	24544
832.883	24673
833.022	24532
833.16	24654
833.299	24738
833.437	24859
833.576	24707
833.714	24776
833.852	24738
833.991	24673
834.129	24719
834.267	24798
834.406	24791
834.544	24802
834.682	24753
834.821	24677
834.959	24928
835.097	24760
835.235	24787
835.373	24810
835.511	24604
835.65	24654
835.788	24650
835.926	24551
836.064	24372
836.202	24429
836.34	24623
836.478	24540
836.615	24494
836.753	24608
836.891	24578
837.029	24635
837.167	24517
837.305	24452
837.443	24353
837.58	24319
837.718	24376
837.856	24433
837.993	24414
838.131	24410
838.269	24315
838.406	24407
838.544	24228
838.681	24148
838.819	23961
838.956	23961
839.094	23897
839.231	23973
839.369	24110
839.506	24232
839.643	24148
839.781	23840
839.918	23882
840.055	23840
840.193	23912
840.33	23745
840.467	23813
840.604	23802
840.742	23942
840.879	23649
841.016	23707
841.153	23703
841.29	23988
841.427	23794
841.564	23851
841.701	23843
841.838	23767
841.975	23699
842.112	23764
842.249	23592
842.385	23630
842.522	23718
842.659	23630
842.796	23604
842.933	23551
843.069	23379
843.206	23482
843.343	23585
843.479	23516
843.616	23573
843.752	23440
843.889	23284
844.025	23417
844.162	23330
844.298	23284
844.435	23311
844.571	23330
844.708	23402
844.844	23573
844.98	23611
845.117	23459
845.253	23296
845.389	23239
845.525	23254
845.661	23368
845.798	23037
845.934	23151
846.07	22987
846.206	23022
846.342	23166
846.478	22976
846.614	22763
846.75	22706
846.886	22752
847.022	22904
847.158	22839
847.294	22896
847.429	22839
847.565	22752
847.701	22987
847.837	22557
847.972	22565
848.108	22550
848.244	22508
848.379	22481
848.515	22432
848.65	22318
848.786	22417
848.921	22348
849.057	22504
849.192	22485
849.328	22367
849.463	22375
849.598	22421
849.734	22173
849.869	22223
850.004	22124
850.14	22169
850.275	22162
850.41	22078
850.545	22169
850.68	22131
850.815	22215
850.95	22067
851.085	22154
851.22	22242
851.355	22219
851.49	22086
851.625	22131
851.76	22158
851.895	21975
852.03	22116
852.165	22150
852.299	22177
852.434	22055
852.569	22314
852.703	22135
852.838	22246
852.973	22314
853.107	22280
853.242	22025
853.376	22017
853.511	21880
853.645	21911
853.78	22207
853.914	21941
854.048	21785
854.183	21903
854.317	22063
854.451	22265
854.585	21960
854.72	21964
854.854	22112
854.988	21857
855.122	21972
855.256	21861
855.39	21975
855.524	22093
855.658	21934
855.792	21994
855.926	22074
856.06	21964
856.194	22090
856.327	21941
856.461	21876
856.595	21968
856.729	21998
856.862	21968
856.996	22025
857.13	22097
857.263	22139
857.397	22040
857.53	22006
857.664	21926
857.797	21960
857.931	22048
858.064	22101
858.197	22032
858.331	21892
858.464	21949
858.597	21816
858.731	21922
858.864	21892
858.997	21785
859.13	21842
859.263	21979
859.396	21975
859.529	22006
859.662	21915
859.795	21812
859.928	22025
860.061	22036
860.194	22131
860.327	21941
860.46	21899
860.592	21979
860.725	22082
860.858	22006
860.99	22013
861.123	21785
861.256	21941
861.388	21998
861.521	22755
861.653	21945
861.786	21686
861.918	21827
862.05	21823
862.183	21713
862.315	21823
862.447	21880
862.58	21793
862.712	21671
862.844	21526
862.976	21679
863.108	21701
863.24	22097
863.372	21564
863.504	21637
863.636	21603
863.768	21720
863.9	21671
864.032	21694
864.164	21606
864.296	21625
864.428	21671
864.559	21641
864.691	21755
864.823	21656
864.954	21538
865.086	21739
865.217	21572
865.349	21473
865.48	21534
865.612	21568
865.743	21743
865.875	21492
866.006	21572
866.137	21698
866.269	21564
866.4	21568
866.531	21439
866.662	21439
866.793	21397
866.924	21488
867.055	21412
867.186	21443
867.317	21439
867.448	21401
867.579	21321
867.71	21321
867.841	21393
867.972	21530
868.103	21545
868.233	21561
868.364	21393
868.495	21568
868.625	21667
868.756	21736
868.886	21603
869.017	21633
869.147	21873
869.278	21762
869.408	21781
869.539	21705
869.669	21717
869.799	21766
869.929	21972
870.06	21857
870.19	21960
870.32	22036
870.45	22013
870.58	22097
870.71	22215
870.84	22230
870.97	22051
871.1	22082
871.23	22325
871.36	22287
871.489	22234
871.619	22211
871.749	22253
871.879	22276
872.008	22371
872.138	22143
872.267	22280
872.397	22200
872.526	22063
872.656	22078
872.785	22131
872.915	22409
873.044	22352
873.173	22234
873.303	22386
873.432	22382
873.561	22565
873.69	22310
873.819	22230
873.948	22390
874.077	22306
874.206	22284
874.335	22306
874.464	22333
874.593	22554
874.722	22504
874.851	22531
874.979	22538
875.108	22611
875.237	22607
875.365	22603
875.494	22554
875.623	22577
875.751	22603
875.88	22500
876.008	22611
876.136	22588
876.265	22953
876.393	23193
876.521	23025
876.65	22953
876.778	22858
876.906	22908
877.034	22889
877.162	22957
877.29	22843
877.418	22923
877.546	22923
877.674	22771
877.802	22946
877.93	22911
878.058	22805
878.185	22729
878.313	22809
878.441	22850
878.568	22679
878.696	22828
878.824	22911
878.951	22923
879.079	23064
879.206	23128
879.333	23052
879.461	22984
879.588	22930
879.715	23071
879.842	23212
879.97	22911
880.097	22748
880.224	22736
880.351	22755
880.478	22725
880.605	22664
880.732	22809
880.859	22911
880.986	22641
881.112	22668
881.239	22538
881.366	22386
881.493	22200
881.619	22253
881.746	22314
881.872	22348
881.999	22131
882.125	22196
882.252	22318
882.378	22090
882.505	22291
882.631	22051
882.757	22097
882.883	22002
883.01	21972
883.136	21956
883.262	21793
883.388	21804
883.514	22025
883.64	21934
883.766	21915
883.892	21663
884.018	21759
884.143	21850
884.269	21949
884.395	21682
884.52	21618
884.646	21561
884.772	21519
884.897	21561
885.023	21648
885.148	21701
885.274	21747
885.399	21595
885.524	21591
885.65	21622
885.775	21507
885.9	21504
886.025	21724
886.15	21507
886.275	21583
886.4	21481
886.525	21618
886.65	21523
886.775	21416
886.9	21713
887.025	21743
887.149	21534
887.274	21519
887.399	21355
887.523	21313
887.648	21321
887.773	21310
887.897	21294
888.021	21477
888.146	21252
888.27	21488
888.395	21348
888.519	21351
888.643	21279
888.767	21534
888.891	21188
889.015	21275
889.139	21233
889.263	20998
889.387	21272
889.511	21386
889.635	21275
889.759	20971
889.883	21176
890.006	21169
890.13	21169
890.254	21062
890.377	21009
890.501	20941
890.624	20891
890.748	20982
890.871	20834
890.995	20724
891.118	20651
891.241	20758
891.364	20712
891.488	20849
891.611	20667
891.734	20693
891.857	20845
891.98	20727
892.103	20720
892.226	20762
892.349	20644
892.471	20560
892.594	20549
892.717	20648
892.839	20587
892.962	20583
893.085	20705
893.207	20511
893.33	20495
893.452	20568
893.575	20823
893.697	20545
893.819	20659
893.941	20777
894.064	20682
894.186	20511
894.308	20469
894.43	20697
894.552	20758
894.674	20792
894.796	20564
894.918	20484
895.04	20518
895.161	20689
895.283	20541
895.405	20461
895.526	20503
895.648	20541
895.769	20587
895.891	20632
896.012	20632
896.134	20632
896.255	20552
896.376	20492
896.498	20659
896.619	20609
896.74	20602
896.861	20678
896.982	20845
897.103	21005
897.224	20819
897.345	20883
897.466	20788
897.587	20899
897.708	20925
897.828	20823
897.949	20739
898.07	20644
898.19	20708
898.311	20823
898.431	20689
898.552	20746
898.672	20876
898.792	20792
898.913	20697
899.033	20674
899.153	20663
899.273	20423
899.393	20431
899.513	20522
899.633	20598
899.753	20454
899.873	20450
899.993	20590
900.113	20431
900.232	20461
900.352	20480
900.472	20324
900.591	20233
900.711	20221
900.83	20343
900.95	20336
901.069	20431
901.189	20145
901.308	20073
901.427	19917
901.546	19947
901.665	19959
901.784	19837
901.904	19784
902.023	19559
902.141	19384
902.26	19476
902.379	19510
902.498	19327
902.617	19282
902.735	19365
902.854	19274
902.973	19289
903.091	18943
903.21	19050
903.328	19034
903.446	18867
903.565	18909
903.683	18856
903.801	18749
903.919	18882
904.038	18798
904.156	18711
904.274	18692
904.392	18700
904.51	18646
904.627	18673
904.745	18631
904.863	18654
904.981	18410
905.098	18304
905.216	18365
905.334	18304
905.451	18258
905.569	18144
905.686	18350
905.803	18167
905.921	18064
906.038	18121
906.155	18266
906.272	18083
906.389	17927
906.506	17741
906.623	17859
906.74	17729
906.857	17726
906.974	17668
907.091	17973
907.208	17980
907.324	17824
907.441	17824
907.557	17486
907.674	17573
907.79	17452
907.907	17558
908.023	17535
908.139	17611
908.256	17421
908.372	17558
908.488	17356
908.604	17299
908.72	17261
908.836	17280
908.952	17197
909.068	17246
909.184	17337
909.3	17250
909.415	17284
909.531	17193
909.647	17109
909.762	17041
909.878	16889
909.993	17022
910.108	16828
910.224	16976
910.339	16881
910.454	16801
910.57	16736
910.685	16691
910.8	16839
910.915	16885
911.03	16771
911.145	16649
911.259	16500
911.374	16497
911.489	16512
911.604	16470
911.718	16325
911.833	16341
911.947	16295
912.062	16071
912.176	16310
912.291	16265
912.405	16379
912.519	16455
912.633	16485
912.748	16341
912.862	16276
912.976	16131
913.09	15983
913.204	16135
913.318	16078
913.431	16204
913.545	16204
913.659	16135
913.772	16032
913.886	15857
914	15934
914.113	15922
914.226	16036
914.34	15964
914.453	15816
914.566	15892
914.68	15774
914.793	15751
914.906	15534
915.019	15469
915.132	15458
915.245	15477
915.358	15526
915.47	15549
915.583	15557
915.696	15488
915.809	15629
915.921	15698
916.034	15477
916.146	15431
916.259	15363
916.371	15447
916.483	15450
916.595	15298
916.708	15287
916.82	15321
916.932	15138
917.044	15298
917.156	15256
917.268	15150
917.38	15169
917.491	15032
917.603	15119
917.715	15161
917.826	15226
917.938	15055
918.049	15047
918.161	15085
918.272	15169
918.384	15104
918.495	15032
918.606	14895
918.717	14891
918.828	14861
918.939	14956
919.05	14830
919.161	14872
919.272	14621
919.383	14708
919.494	14899
919.604	14994
919.715	14758
919.826	14727
919.936	14739
920.047	14823
920.157	14925
920.267	14979
920.378	14925
920.488	14807
920.598	15020
920.708	15112
920.818	14864
920.928	15005
921.038	15146
921.148	15085
921.258	14773
921.368	14743
921.477	14594
921.587	14598
921.697	14450
921.806	14492
921.916	14438
922.025	14195
922.134	14161
922.244	14191
922.353	14309
922.462	14088
922.571	13940
922.68	13871
922.789	13932
922.898	13822
923.007	13742
923.116	13814
923.224	13845
923.333	13727
923.442	13696
923.55	13636
923.659	13799
923.767	13670
923.876	13575
923.984	13647
924.092	13567
924.201	13578
924.309	13491
924.417	13609
924.525	13472
924.633	13438
924.741	14419
924.849	13350
924.956	13324
925.064	13282
925.172	13225
925.279	13179
925.387	13282
925.494	13206
925.602	13384
925.709	13194
925.816	13160
925.924	13187
926.031	13324
926.138	13110
926.245	13289
926.352	13038
926.459	13221
926.566	13209
926.673	13038
926.779	12951
926.886	12985
926.993	12909
927.099	12764
927.206	12703
927.312	12753
927.419	12776
927.525	12741
927.631	12798
927.737	12627
927.843	12669
927.95	12563
928.056	12620
928.162	12650
928.267	12726
928.373	13129
928.479	12692
928.585	12414
928.69	12528
928.796	12593
928.901	12433
929.007	12319
929.112	12437
929.218	12338
929.323	12395
929.428	12277
929.533	12391
929.638	12304
929.743	12232
929.848	12292
929.953	12330
930.058	12201
930.163	12038
930.267	11965
930.372	12148
930.477	11999
930.581	12247
930.685	12068
930.79	11939
930.894	11859
930.998	11809
931.103	12011
931.207	11684
931.311	11501
931.415	11467
931.519	11299
931.623	11235
