Data from test_V78500241_1491.txt Node
Date: Fri Mar 25 15:20:14 CST 2022
User: usil
Spectrometer: V785-0024
Trigger mode: 0
Integration Time (sec): 4.000000E-1
Scans to average: 1
Nonlinearity correction enabled: false
Boxcar width: 0
Storing dark spectrum: false
XAxis mode: Wavelengths
Number of Pixels in Spectrum: 1024
>>>>>Begin Spectral Data<<<<<
801.071	28215
801.214	28048
801.356	27873
801.499	27816
801.641	27679
801.783	27523
801.926	27736
802.068	27603
802.211	27606
802.353	27542
802.496	27351
802.638	27275
802.78	27310
802.923	27279
803.065	27112
803.208	27230
803.35	27306
803.492	27477
803.635	27603
803.777	27515
803.919	27679
804.061	27816
804.204	27652
804.346	27614
804.488	27344
804.63	27545
804.773	27477
804.915	27679
805.057	27614
805.199	27526
805.341	27755
805.483	27755
805.626	27610
805.768	27603
805.91	27599
806.052	27838
806.194	27523
806.336	27907
806.478	27705
806.62	27705
806.762	27698
806.904	27968
807.046	28211
807.188	28044
807.33	28101
807.472	28116
807.614	27994
807.756	27934
807.898	27842
808.04	27850
808.182	28048
808.324	28036
808.465	27975
808.607	28249
808.749	28401
808.891	28451
809.033	28565
809.174	28409
809.316	28246
809.458	28287
809.6	28333
809.741	28497
809.883	28436
810.025	28538
810.166	28637
810.308	28702
810.45	28535
810.591	28519
810.733	28371
810.875	28459
811.016	28105
811.158	28272
811.299	28398
811.441	28577
811.582	28394
811.724	28367
811.865	28280
812.007	28299
812.148	28238
812.29	28390
812.431	28523
812.573	28698
812.714	28790
812.855	28839
812.997	28866
813.138	29223
813.279	29102
813.421	28881
813.562	28847
813.703	28580
813.845	28557
813.986	28291
814.127	28162
814.268	27968
814.41	28067
814.551	28112
814.692	28036
814.833	28021
814.974	27975
815.115	28013
815.256	28029
815.397	27850
815.539	27911
815.68	27838
815.821	27804
815.962	27823
816.103	27724
816.244	27644
816.385	27603
816.526	27648
816.666	27412
816.807	27363
816.948	27523
817.089	27481
817.23	27439
817.371	27477
817.512	27351
817.653	27454
817.793	27344
817.934	27272
818.075	27294
818.216	27359
818.356	27313
818.497	27249
818.638	27199
818.778	26994
818.919	27066
819.06	27226
819.2	27226
819.341	27359
819.481	27431
819.622	27515
819.762	27652
819.903	27496
820.043	27542
820.184	27405
820.324	27359
820.465	27408
820.605	27481
820.746	27485
820.886	27268
821.026	27523
821.167	27344
821.307	27485
821.447	27367
821.588	27184
821.728	27127
821.868	26952
822.008	26697
822.149	26781
822.289	26693
822.429	26659
822.569	26484
822.709	26473
822.849	26404
822.99	26347
823.13	26488
823.27	26267
823.41	26092
823.55	26024
823.69	26176
823.83	26259
823.97	26035
824.11	25963
824.25	25917
824.389	26077
824.529	26138
824.669	25917
824.809	25963
824.949	26031
825.089	26024
825.228	26035
825.368	25788
825.508	25925
825.648	25738
825.787	25814
825.927	25906
826.067	25883
826.206	25833
826.346	25791
826.485	25925
826.625	25746
826.765	25921
826.904	25769
827.044	25624
827.183	25662
827.323	25540
827.462	25567
827.601	25506
827.741	25563
827.88	25601
828.02	25384
828.159	25525
828.298	25518
828.437	25647
828.577	25441
828.716	25677
828.855	25495
828.994	25270
829.134	25354
829.273	25175
829.412	25206
829.551	25145
829.69	25202
829.829	25327
829.968	25346
830.107	25312
830.246	25179
830.385	25225
830.524	25107
830.663	25103
830.802	24840
830.941	24897
831.08	24779
831.219	25008
831.357	25015
831.496	25057
831.635	24722
831.774	24787
831.913	24806
832.051	24540
832.19	24627
832.329	24585
832.467	24456
832.606	24502
832.744	24544
832.883	24509
833.022	24395
833.16	24505
833.299	24601
833.437	24540
833.576	24532
833.714	24566
833.852	24749
833.991	24654
834.129	24555
834.267	24559
834.406	24593
834.544	24521
834.682	24734
834.821	24566
834.959	24635
835.097	24612
835.235	24620
835.373	24456
835.511	24623
835.65	24448
835.788	24521
835.926	24174
836.064	24228
836.202	24209
836.34	24422
836.478	24426
836.615	24304
836.753	24403
836.891	24433
837.029	24323
837.167	24315
837.305	24338
837.443	24182
837.58	24232
837.718	24296
837.856	24224
837.993	24136
838.131	24182
838.269	24114
838.406	24091
838.544	24076
838.681	23726
838.819	23836
838.956	23710
839.094	23691
839.231	23748
839.369	23790
839.506	24018
839.643	23882
839.781	23726
839.918	23665
840.055	23699
840.193	23714
840.33	23703
840.467	23596
840.604	23619
840.742	23832
840.879	23478
841.016	23589
841.153	23551
841.29	23684
841.427	23589
841.564	23623
841.701	23459
841.838	23649
841.975	23406
842.112	23505
842.249	23440
842.385	23337
842.522	23539
842.659	23433
842.796	23197
842.933	23414
843.069	23406
843.206	23334
843.343	23337
843.479	23315
843.616	23334
843.752	23155
843.889	23113
844.025	23242
844.162	23037
844.298	23204
844.435	23113
844.571	23044
844.708	23292
844.844	23231
844.98	23288
845.117	23227
845.253	23075
845.389	23041
845.525	23044
845.661	22938
845.798	22793
845.934	22991
846.07	22927
846.206	22801
846.342	22919
846.478	22774
846.614	22569
846.75	22538
846.886	22580
847.022	22668
847.158	22656
847.294	22577
847.429	22557
847.565	22489
847.701	22877
847.837	22402
847.972	22341
848.108	22413
848.244	22379
848.379	22048
848.515	22147
848.65	22158
848.786	22051
848.921	22162
849.057	22363
849.192	22196
849.328	22238
849.463	22249
849.598	22090
849.734	22032
849.869	22010
850.004	22002
850.14	22067
850.275	21979
850.41	21918
850.545	21895
850.68	21915
850.815	21922
850.95	21812
851.085	22124
851.22	22090
851.355	21983
851.49	21911
851.625	21911
851.76	22006
851.895	21800
852.03	21873
852.165	21884
852.299	21994
852.434	21895
852.569	21945
852.703	22013
852.838	22010
852.973	22169
853.107	22074
853.242	21800
853.376	21789
853.511	21576
853.645	21648
853.78	21869
853.914	21644
854.048	21717
854.183	21793
854.317	21846
854.451	21884
854.585	21736
854.72	21698
854.854	21797
854.988	21762
855.122	21709
855.256	21751
855.39	21705
855.524	21785
855.658	21629
855.792	21739
855.926	21827
856.06	21892
856.194	21850
856.327	21827
856.461	21732
856.595	21641
856.729	21804
856.862	21797
856.996	21785
857.13	21762
857.263	21903
857.397	21911
857.53	21675
857.664	21781
857.797	21770
857.931	21759
858.064	21739
858.197	21850
858.331	21838
858.464	21766
858.597	21599
858.731	21743
858.864	21667
858.997	21759
859.13	21701
859.263	21797
859.396	21850
859.529	21682
859.662	21698
859.795	21736
859.928	21827
860.061	21991
860.194	22006
860.327	21816
860.46	21816
860.592	21903
860.725	21964
860.858	21808
860.99	21656
861.123	21728
861.256	21717
861.388	21736
861.521	22295
861.653	21675
861.786	21606
861.918	21561
862.05	21644
862.183	21515
862.315	21679
862.447	21679
862.58	21641
862.712	21580
862.844	21378
862.976	21504
863.108	21500
863.24	21975
863.372	21378
863.504	21420
863.636	21424
863.768	21549
863.9	21431
864.032	21260
864.164	21481
864.296	21458
864.428	21583
864.559	21420
864.691	21439
864.823	21412
864.954	21397
865.086	21447
865.217	21329
865.349	21188
865.48	21389
865.612	21298
865.743	21466
865.875	21344
866.006	21325
866.137	21393
866.269	21329
866.4	21222
866.531	21298
866.662	21256
866.793	21214
866.924	21249
867.055	21256
867.186	21226
867.317	21199
867.448	21100
867.579	21218
867.71	21192
867.841	21108
867.972	21405
868.103	21302
868.233	21154
868.364	21279
868.495	21363
868.625	21454
868.756	21698
868.886	21408
869.017	21515
869.147	21694
869.278	21542
869.408	21583
869.539	21568
869.669	21629
869.799	21583
869.929	21705
870.06	21625
870.19	21854
870.32	21701
870.45	21869
870.58	22010
870.71	21983
870.84	22063
870.97	21975
871.1	21812
871.23	22078
871.36	22048
871.489	21945
871.619	22029
871.749	22006
871.879	22139
872.008	22268
872.138	22158
872.267	22067
872.397	21926
872.526	21865
872.656	21892
872.785	21983
872.915	22154
873.044	22150
873.173	22109
873.303	22192
873.432	22166
873.561	22253
873.69	22207
873.819	22109
873.948	22230
874.077	22192
874.206	22204
874.335	22143
874.464	22257
874.593	22306
874.722	22249
874.851	22455
874.979	22238
875.108	22440
875.237	22360
875.365	22230
875.494	22333
875.623	22512
875.751	22192
875.88	22261
876.008	22508
876.136	22645
876.265	22694
876.393	22809
876.521	22809
876.65	22786
876.778	22831
876.906	22645
877.034	22645
877.162	22679
877.29	22675
877.418	22736
877.546	22702
877.674	22611
877.802	22675
877.93	22710
878.058	22694
878.185	22451
878.313	22607
878.441	22694
878.568	22554
878.696	22607
878.824	22687
878.951	22755
879.079	22790
879.206	23075
879.333	22828
879.461	22790
879.588	22752
879.715	22793
879.842	22839
879.97	22767
880.097	22516
880.224	22432
880.351	22485
880.478	22588
880.605	22405
880.732	22538
880.859	22687
880.986	22523
881.112	22455
881.239	22363
881.366	22303
881.493	22169
881.619	22059
881.746	22067
881.872	22109
881.999	22074
882.125	21854
882.252	22090
882.378	22063
882.505	22162
882.631	21972
882.757	21766
882.883	21827
883.01	21793
883.136	21732
883.262	21660
883.388	21599
883.514	21732
883.64	21690
883.766	21663
883.892	21606
884.018	21679
884.143	21690
884.269	21766
884.395	21386
884.52	21439
884.646	21443
884.772	21275
884.897	21291
885.023	21382
885.148	21485
885.274	21492
885.399	21469
885.524	21462
885.65	21462
885.775	21389
885.9	21408
886.025	21507
886.15	21488
886.275	21386
886.4	21367
886.525	21272
886.65	21329
886.775	21256
886.9	21450
887.025	21610
887.149	21389
887.274	21214
887.399	21157
887.523	21192
887.648	21127
887.773	21100
887.897	21260
888.021	21100
888.146	21165
888.27	21359
888.395	21340
888.519	21237
888.643	21317
888.767	21100
888.891	21135
889.015	21062
889.139	21055
889.263	20842
889.387	21112
889.511	21180
889.635	21062
889.759	21005
889.883	20960
890.006	20971
890.13	21039
890.254	20796
890.377	20796
890.501	20682
890.624	20720
890.748	20796
890.871	20598
890.995	20511
891.118	20442
891.241	20552
891.364	20564
891.488	20636
891.611	20579
891.734	20518
891.857	20560
891.98	20450
892.103	20476
892.226	20667
892.349	20434
892.471	20336
892.594	20415
892.717	20499
892.839	20347
892.962	20522
893.085	20431
893.207	20419
893.33	20328
893.452	20347
893.575	20518
893.697	20465
893.819	20564
893.941	20636
894.064	20522
894.186	20313
894.308	20389
894.43	20514
894.552	20590
894.674	20374
894.796	20328
894.918	20271
895.04	20347
895.161	20457
895.283	20454
895.405	20434
895.526	20450
895.648	20305
895.769	20419
895.891	20389
896.012	20469
896.134	20282
896.255	20343
896.376	20457
896.498	20484
896.619	20351
896.74	20313
896.861	20377
896.982	20819
897.103	20845
897.224	20598
897.345	20724
897.466	20526
897.587	20682
897.708	20765
897.828	20712
897.949	20507
898.07	20518
898.19	20549
898.311	20689
898.431	20629
898.552	20659
898.672	20629
898.792	20693
898.913	20651
899.033	20530
899.153	20450
899.273	20328
899.393	20400
899.513	20381
899.633	20374
899.753	20400
899.873	20362
899.993	20415
900.113	20256
900.232	20389
900.352	20221
900.472	20180
900.591	20142
900.711	20100
900.83	20031
900.95	20218
901.069	20191
901.189	20039
901.308	19917
901.427	19765
901.546	19677
901.665	19727
901.784	19685
901.904	19575
902.023	19552
902.141	19331
902.26	19236
902.379	19373
902.498	19225
902.617	19152
902.735	19213
902.854	19244
902.973	19137
903.091	18901
903.21	18932
903.328	18939
903.446	18814
903.565	18772
903.683	18658
903.801	18642
903.919	18665
904.038	18703
904.156	18445
904.274	18540
904.392	18479
904.51	18517
904.627	18384
904.745	18528
904.863	18494
904.981	18315
905.098	18148
905.216	18254
905.334	18133
905.451	18129
905.569	18163
905.686	18159
905.803	18178
905.921	17874
906.038	18072
906.155	17866
906.272	17756
906.389	17821
906.506	17703
906.623	17741
906.74	17653
906.857	17581
906.974	17642
907.091	17699
907.208	17809
907.324	17695
907.441	17585
907.557	17516
907.674	17372
907.79	17356
907.907	17303
908.023	17376
908.139	17433
908.256	17383
908.372	17284
908.488	17220
908.604	17083
908.72	17048
908.836	17098
908.952	17022
909.068	17086
909.184	17216
909.3	17067
909.415	17083
909.531	17064
909.647	16790
909.762	16793
909.878	16774
909.993	16919
910.108	16653
910.224	16717
910.339	16771
910.454	16615
910.57	16634
910.685	16554
910.8	16771
910.915	16717
911.03	16637
911.145	16405
911.259	16432
911.374	16421
911.489	16303
911.604	16188
911.718	16116
911.833	16143
911.947	15987
912.062	15899
912.176	16074
912.291	16029
912.405	15998
912.519	16234
912.633	16318
912.748	16093
912.862	16124
912.976	15850
913.09	15854
913.204	15888
913.318	15972
913.431	15983
913.545	16051
913.659	16055
913.772	15979
913.886	15736
914	15701
914.113	15823
914.226	15972
914.34	15701
914.453	15633
914.566	15808
914.68	15587
914.793	15534
914.906	15363
915.019	15363
915.132	15306
915.245	15298
915.358	15313
915.47	15386
915.583	15344
915.696	15405
915.809	15412
915.921	15382
916.034	15325
916.146	15256
916.259	15233
916.371	15313
916.483	15359
916.595	15192
916.708	15233
916.82	15203
916.932	15009
917.044	15119
917.156	15127
917.268	14918
917.38	15009
917.491	14925
917.603	15017
917.715	15066
917.826	15165
917.938	14975
918.049	14777
918.161	14941
918.272	15028
918.384	15005
918.495	14990
918.606	14705
918.717	14720
918.828	14720
918.939	14708
919.05	14674
919.161	14727
919.272	14514
919.383	14621
919.494	14720
919.604	14800
919.715	14773
919.826	14617
919.936	14659
920.047	14785
920.157	14606
920.267	14864
920.378	14674
920.488	14674
920.598	14861
920.708	14914
920.818	14750
920.928	14845
921.038	14921
921.148	14902
921.258	14571
921.368	14526
921.477	14419
921.587	14381
921.697	14259
921.806	14370
921.916	14218
922.025	14103
922.134	14180
922.244	14012
922.353	14138
922.462	13879
922.571	13894
922.68	13712
922.789	13723
922.898	13742
923.007	13639
923.116	13784
923.224	13715
923.333	13658
923.442	13487
923.55	13510
923.659	13552
923.767	13594
923.876	13449
923.984	13521
924.092	13403
924.201	13487
924.309	13445
924.417	13453
924.525	13331
924.633	13422
924.741	14043
924.849	13168
924.956	13358
925.064	13179
925.172	13072
925.279	13065
925.387	13175
925.494	13088
925.602	13221
925.709	13141
925.816	13027
925.924	13076
926.031	13175
926.138	13023
926.245	13152
926.352	13027
926.459	13053
926.566	13110
926.673	13004
926.779	12871
926.886	12920
926.993	12719
927.099	12684
927.206	12525
927.312	12662
927.419	12639
927.525	12635
927.631	12711
927.737	12582
927.843	12532
927.95	12426
928.056	12448
928.162	12456
928.267	12532
928.373	13091
928.479	12574
928.585	12258
928.69	12464
928.796	12566
928.901	12414
929.007	12216
929.112	12315
929.218	12232
929.323	12251
929.428	12243
929.533	12327
929.638	12171
929.743	12163
929.848	12220
929.953	12140
930.058	12057
930.163	11935
930.267	11931
930.372	12068
930.477	11855
930.581	12038
930.685	11908
930.79	11775
930.894	11855
930.998	11733
931.103	11882
931.207	11611
931.311	11444
931.415	11356
931.519	11181
931.623	11147
