Data from test_V78500241_3306.txt Node
Date: Fri Mar 25 15:32:52 CST 2022
User: usil
Spectrometer: V785-0024
Trigger mode: 0
Integration Time (sec): 4.000000E-1
Scans to average: 1
Nonlinearity correction enabled: false
Boxcar width: 0
Storing dark spectrum: false
XAxis mode: Wavelengths
Number of Pixels in Spectrum: 1024
>>>>>Begin Spectral Data<<<<<
801.071	27188
801.214	27207
801.356	26921
801.499	26811
801.641	26655
801.783	26659
801.926	26777
802.068	26621
802.211	26579
802.353	26530
802.496	26450
802.638	26336
802.78	26400
802.923	26263
803.065	26233
803.208	26229
803.35	26434
803.492	26476
803.635	26625
803.777	26423
803.919	26446
804.061	26864
804.204	26526
804.346	26400
804.488	26412
804.63	26522
804.773	26419
804.915	26408
805.057	26617
805.199	26415
805.341	26560
805.483	26530
805.626	26617
805.768	26446
805.91	26648
806.052	26636
806.194	26518
806.336	26613
806.478	26644
806.62	26617
806.762	26621
806.904	26815
807.046	27001
807.188	26940
807.33	26982
807.472	27001
807.614	26861
807.756	26864
807.898	26773
808.04	26853
808.182	26940
808.324	26864
808.465	26929
808.607	27036
808.749	27180
808.891	27359
809.033	27336
809.174	27214
809.316	27279
809.458	27085
809.6	27066
809.741	27355
809.883	27325
810.025	27485
810.166	27545
810.308	27557
810.45	27431
810.591	27462
810.733	27161
810.875	27138
811.016	27264
811.158	27070
811.299	27393
811.441	27294
811.582	27321
811.724	27184
811.865	27157
812.007	27127
812.148	27157
812.29	27199
812.431	27302
812.573	27477
812.714	27576
812.855	27625
812.997	27751
813.138	27747
813.279	28051
813.421	27701
813.562	27857
813.703	27447
813.845	27351
813.986	27142
814.127	26872
814.268	26956
814.41	26735
814.551	26811
814.692	26834
814.833	26785
814.974	26819
815.115	26781
815.256	26765
815.397	26731
815.539	26697
815.68	26651
815.821	26697
815.962	26590
816.103	26564
816.244	26507
816.385	26282
816.526	26324
816.666	26191
816.807	26046
816.948	26134
817.089	26282
817.23	26164
817.371	26046
817.512	25997
817.653	26115
817.793	26111
817.934	26122
818.075	26092
818.216	26050
818.356	26088
818.497	25947
818.638	25769
818.778	25871
818.919	25913
819.06	26008
819.2	25879
819.341	26199
819.481	25944
819.622	26164
819.762	26381
819.903	26282
820.043	26176
820.184	26187
820.324	26126
820.465	26305
820.605	26271
820.746	26195
820.886	26088
821.026	26149
821.167	26130
821.307	26183
821.447	26050
821.588	26001
821.728	25871
821.868	25666
822.008	25521
822.149	25464
822.289	25567
822.429	25365
822.569	25168
822.709	25187
822.849	25194
822.99	25122
823.13	25019
823.27	25088
823.41	24886
823.55	24981
823.69	24863
823.83	24992
823.97	24825
824.11	24787
824.25	24623
824.389	24658
824.529	24837
824.669	24612
824.809	24829
824.949	24768
825.089	24749
825.228	24829
825.368	24544
825.508	24631
825.648	24585
825.787	24642
825.927	24574
826.067	24509
826.206	24589
826.346	24677
826.485	24726
826.625	24642
826.765	24779
826.904	24544
827.044	24357
827.183	24338
827.323	24277
827.462	24334
827.601	24235
827.741	24224
827.88	24247
828.02	24201
828.159	24388
828.298	24300
828.437	24323
828.577	24266
828.716	24361
828.855	24152
828.994	23950
829.134	24045
829.273	24129
829.412	24068
829.551	23836
829.69	24129
829.829	24026
829.968	24041
830.107	24247
830.246	23965
830.385	23988
830.524	23923
830.663	23824
830.802	23684
830.941	23767
831.08	23630
831.219	23847
831.357	23851
831.496	23878
831.635	23592
831.774	23467
831.913	23505
832.051	23433
832.19	23353
832.329	23505
832.467	23303
832.606	23239
832.744	23269
832.883	23231
833.022	23223
833.16	23315
833.299	23349
833.437	23417
833.576	23410
833.714	23349
833.852	23414
833.991	23402
834.129	23486
834.267	23425
834.406	23501
834.544	23520
834.682	23402
834.821	23231
834.959	23471
835.097	23410
835.235	23524
835.373	23455
835.511	23318
835.65	23311
835.788	23288
835.926	23193
836.064	22957
836.202	23071
836.34	23269
836.478	23307
836.615	23140
836.753	23231
836.891	23208
837.029	23277
837.167	23155
837.305	23052
837.443	23105
837.58	23060
837.718	23044
837.856	23132
837.993	23060
838.131	23025
838.269	22999
838.406	22930
838.544	22995
838.681	22786
838.819	22729
838.956	22557
839.094	22603
839.231	22653
839.369	22782
839.506	22953
839.643	22820
839.781	22660
839.918	22504
840.055	22538
840.193	22554
840.33	22375
840.467	22546
840.604	22500
840.742	22885
840.879	22462
841.016	22500
841.153	22348
841.29	22554
841.427	22424
841.564	22409
841.701	22497
841.838	22481
841.975	22421
842.112	22348
842.249	22409
842.385	22333
842.522	22535
842.659	22363
842.796	22215
842.933	22303
843.069	22249
843.206	22051
843.343	22341
843.479	22261
843.616	22196
843.752	22048
843.889	21994
844.025	22070
844.162	22090
844.298	22135
844.435	22116
844.571	22013
844.708	22086
844.844	22181
844.98	22246
845.117	22120
845.253	21979
845.389	21922
845.525	21861
845.661	21873
845.798	21804
845.934	21911
846.07	21800
846.206	21804
846.342	21827
846.478	21644
846.614	21557
846.75	21504
846.886	21408
847.022	21564
847.158	21603
847.294	21610
847.429	21667
847.565	21416
847.701	21728
847.837	21222
847.972	21233
848.108	21264
848.244	21283
848.379	21184
848.515	20982
848.65	21017
848.786	21077
848.921	21058
849.057	21108
849.192	21127
849.328	21104
849.463	21146
849.598	21032
849.734	20998
849.869	20914
850.004	20883
850.14	20887
850.275	20838
850.41	20781
850.545	20834
850.68	20925
850.815	20891
850.95	20781
851.085	21055
851.22	21001
851.355	20887
851.49	20857
851.625	20853
851.76	20777
851.895	20815
852.03	20754
852.165	20895
852.299	20952
852.434	20971
852.569	20811
852.703	20971
852.838	20982
852.973	21093
853.107	20986
853.242	20804
853.376	20678
853.511	20644
853.645	20640
853.78	20899
853.914	20689
854.048	20492
854.183	20765
854.317	20674
854.451	20952
854.585	20541
854.72	20640
854.854	20781
854.988	20568
855.122	20758
855.256	20533
855.39	20670
855.524	20758
855.658	20705
855.792	20701
855.926	20754
856.06	20686
856.194	20754
856.327	20648
856.461	20720
856.595	20758
856.729	20636
856.862	20804
856.996	20670
857.13	20746
857.263	20857
857.397	20682
857.53	20644
857.664	20781
857.797	20743
857.931	20861
858.064	20613
858.197	20834
858.331	20590
858.464	20640
858.597	20621
858.731	20689
858.864	20617
858.997	20697
859.13	20781
859.263	20686
859.396	20807
859.529	20697
859.662	20625
859.795	20644
859.928	20636
860.061	20906
860.194	20891
860.327	20724
860.46	20651
860.592	20727
860.725	20876
860.858	20826
860.99	20636
861.123	20727
861.256	20667
861.388	20811
861.521	21321
861.653	20537
861.786	20465
861.918	20579
862.05	20461
862.183	20545
862.315	20682
862.447	20560
862.58	20541
862.712	20423
862.844	20431
862.976	20495
863.108	20461
863.24	20891
863.372	20275
863.504	20476
863.636	20389
863.768	20492
863.9	20503
864.032	20343
864.164	20317
864.296	20423
864.428	20511
864.559	20412
864.691	20408
864.823	20351
864.954	20389
865.086	20381
865.217	20282
865.349	20301
865.48	20267
865.612	20351
865.743	20434
865.875	20298
866.006	20355
866.137	20332
866.269	20358
866.4	20180
866.531	20210
866.662	20252
866.793	20218
866.924	20252
867.055	20290
867.186	20298
867.317	20210
867.448	20111
867.579	20210
867.71	20168
867.841	20119
867.972	20267
868.103	20221
868.233	20259
868.364	20313
868.495	20263
868.625	20473
868.756	20552
868.886	20564
869.017	20484
869.147	20655
869.278	20579
869.408	20511
869.539	20457
869.669	20575
869.799	20568
869.929	20648
870.06	20636
870.19	20811
870.32	20743
870.45	20777
870.58	20937
870.71	21009
870.84	21028
870.97	20944
871.1	20937
871.23	21089
871.36	21127
871.489	20963
871.619	21119
871.749	20990
871.879	21096
872.008	21317
872.138	20998
872.267	21066
872.397	20986
872.526	20838
872.656	21017
872.785	20990
872.915	21077
873.044	21283
873.173	21085
873.303	21142
873.432	21260
873.561	21256
873.69	21184
873.819	21203
873.948	21085
874.077	21150
874.206	21154
874.335	21173
874.464	21275
874.593	21363
874.722	21275
874.851	21389
874.979	21363
875.108	21393
875.237	21351
875.365	21313
875.494	21351
875.623	21291
875.751	21313
875.88	21454
876.008	21462
876.136	21591
876.265	21724
876.393	21876
876.521	21766
876.65	21819
876.778	21720
876.906	21660
877.034	21682
877.162	21774
877.29	21568
877.418	21652
877.546	21724
877.674	21652
877.802	21747
877.93	21701
878.058	21652
878.185	21679
878.313	21572
878.441	21701
878.568	21599
878.696	21682
878.824	21667
878.951	21724
879.079	21838
879.206	22059
879.333	21873
879.461	21743
879.588	21747
879.715	21922
879.842	22059
879.97	21751
880.097	21557
880.224	21447
880.351	21595
880.478	21534
880.605	21481
880.732	21500
880.859	21747
880.986	21633
881.112	21488
881.239	21443
881.366	21279
881.493	21192
881.619	21017
881.746	21180
881.872	21096
881.999	21058
882.125	20944
882.252	21039
882.378	21051
882.505	21180
882.631	20975
882.757	20838
882.883	21017
883.01	20769
883.136	20826
883.262	20682
883.388	20720
883.514	20891
883.64	20819
883.766	20773
883.892	20716
884.018	20636
884.143	20811
884.269	20769
884.395	20526
884.52	20480
884.646	20541
884.772	20492
884.897	20480
885.023	20473
885.148	20514
885.274	20587
885.399	20651
885.524	20549
885.65	20556
885.775	20530
885.9	20522
886.025	20617
886.15	20484
886.275	20450
886.4	20396
886.525	20511
886.65	20339
886.775	20351
886.9	20606
887.025	20583
887.149	20389
887.274	20419
887.399	20145
887.523	20290
887.648	20142
887.773	20210
887.897	20252
888.021	20225
888.146	20233
888.27	20252
888.395	20412
888.519	20153
888.643	20286
888.767	20374
888.891	20214
889.015	20058
889.139	20229
889.263	20122
889.387	20115
889.511	20336
889.635	20157
889.759	20122
889.883	19978
890.006	20111
890.13	20240
890.254	20065
890.377	19906
890.501	19788
890.624	19788
890.748	19742
890.871	19704
890.995	19791
891.118	19670
891.241	19582
891.364	19647
891.488	19814
891.611	19700
891.734	19658
891.857	19715
891.98	19620
892.103	19693
892.226	19746
892.349	19567
892.471	19430
892.594	19582
892.717	19575
892.839	19552
892.962	19445
893.085	19651
893.207	19578
893.33	19491
893.452	19575
893.575	19651
893.697	19483
893.819	19670
893.941	19898
894.064	19723
894.186	19518
894.308	19464
894.43	19651
894.552	19791
894.674	19601
894.796	19590
894.918	19521
895.04	19487
895.161	19567
895.283	19533
895.405	19510
895.526	19533
895.648	19483
895.769	19651
895.891	19658
896.012	19567
896.134	19556
896.255	19571
896.376	19559
896.498	19480
896.619	19651
896.74	19601
896.861	19590
896.982	19791
897.103	19940
897.224	19830
897.345	19871
897.466	19605
897.587	19780
897.708	19833
897.828	19856
897.949	19723
898.07	19696
898.19	19715
898.311	19849
898.431	19723
898.552	19757
898.672	19875
898.792	19864
898.913	19776
899.033	19666
899.153	19575
899.273	19445
899.393	19537
899.513	19567
899.633	19540
899.753	19525
899.873	19415
899.993	19525
900.113	19422
900.232	19445
900.352	19430
900.472	19369
900.591	19297
900.711	19293
900.83	19407
900.95	19457
901.069	19449
901.189	19244
901.308	19008
901.427	18954
901.546	18939
901.665	18916
901.784	19019
901.904	18715
902.023	18814
902.141	18460
902.26	18502
902.379	18490
902.498	18422
902.617	18395
902.735	18509
902.854	18456
902.973	18376
903.091	18197
903.21	18068
903.328	18152
903.446	17988
903.565	17912
903.683	17939
903.801	17779
903.919	17916
904.038	17908
904.156	17589
904.274	17748
904.392	17710
904.51	17676
904.627	17699
904.745	17722
904.863	17840
904.981	17581
905.098	17429
905.216	17372
905.334	17364
905.451	17353
905.569	17387
905.686	17368
905.803	17341
905.921	17136
906.038	17277
906.155	17250
906.272	17094
906.389	17166
906.506	17025
906.623	17003
906.74	16980
906.857	16858
906.974	16877
907.091	16949
907.208	17048
907.324	16942
907.441	16881
907.557	16736
907.674	16607
907.79	16664
907.907	16694
908.023	16717
908.139	16820
908.256	16664
908.372	16485
908.488	16538
908.604	16337
908.72	16314
908.836	16352
908.952	16303
909.068	16451
909.184	16531
909.3	16341
909.415	16440
909.531	16375
909.647	16078
909.762	16112
909.878	16082
909.993	16101
910.108	16010
910.224	16078
910.339	16006
910.454	15930
910.57	15854
910.685	15804
910.8	16090
910.915	16017
911.03	15945
911.145	15679
911.259	15656
911.374	15686
911.489	15705
911.604	15637
911.718	15378
911.833	15439
911.947	15420
912.062	15188
912.176	15469
912.291	15389
912.405	15374
912.519	15644
912.633	15705
912.748	15454
912.862	15386
912.976	15245
913.09	15154
913.204	15222
913.318	15211
913.431	15287
913.545	15355
913.659	15469
913.772	15252
913.886	15131
914	15055
914.113	15161
914.226	15222
914.34	15222
914.453	14979
914.566	15154
914.68	15020
914.793	14921
914.906	14746
915.019	14739
915.132	14705
915.245	14644
915.358	14693
915.47	14727
915.583	14743
915.696	14754
915.809	14811
915.921	14857
916.034	14674
916.146	14541
916.259	14606
916.371	14712
916.483	14720
916.595	14549
916.708	14495
916.82	14473
916.932	14571
917.044	14450
917.156	14511
917.268	14423
917.38	14492
917.491	14328
917.603	14301
917.715	14355
917.826	14461
917.938	14389
918.049	14259
918.161	14408
918.272	14473
918.384	14499
918.495	14275
918.606	14195
918.717	14069
918.828	14191
918.939	14111
919.05	14100
919.161	14145
919.272	14050
919.383	14058
919.494	14233
919.604	14355
919.715	14168
919.826	14062
919.936	14195
920.047	14225
920.157	14024
920.267	14263
920.378	14172
920.488	14134
920.598	14328
920.708	14457
920.818	14248
920.928	14332
921.038	14465
921.148	14355
921.258	14062
921.368	14065
921.477	13898
921.587	13849
921.697	13708
921.806	13898
921.916	13734
922.025	13575
922.134	13559
922.244	13518
922.353	13613
922.462	13373
922.571	13339
922.68	13213
922.789	13206
922.898	13194
923.007	13149
923.116	13228
923.224	13160
923.333	13118
923.442	13046
923.55	12970
923.659	12989
923.767	13053
923.876	12894
923.984	13057
924.092	12932
924.201	12867
924.309	12894
924.417	12958
924.525	12871
924.633	12817
924.741	13841
924.849	12620
924.956	12825
925.064	12635
925.172	12570
925.279	12601
925.387	12601
925.494	12646
925.602	12734
925.709	12650
925.816	12486
925.924	12620
926.031	12646
926.138	12498
926.245	12574
926.352	12479
926.459	12616
926.566	12593
926.673	12475
926.779	12414
926.886	12315
926.993	12258
927.099	12148
927.206	12076
927.312	12064
927.419	12213
927.525	12083
927.631	12186
927.737	12045
927.843	12091
927.95	11863
928.056	11946
928.162	12057
928.267	11992
928.373	12574
928.479	12072
928.585	11809
928.69	11931
928.796	12011
928.901	11843
929.007	11741
929.112	11882
929.218	11828
929.323	11707
929.428	11764
929.533	11866
929.638	11688
929.743	11771
929.848	11745
929.953	11707
930.058	11566
930.163	11505
930.267	11391
930.372	11608
930.477	11383
930.581	11672
930.685	11482
930.79	11330
930.894	11334
930.998	11261
931.103	11402
931.207	11136
931.311	10965
931.415	10934
931.519	10786
931.623	10717
