Data from test_V78500241_2419.txt Node
Date: Fri Mar 25 15:26:42 CST 2022
User: usil
Spectrometer: V785-0024
Trigger mode: 0
Integration Time (sec): 4.000000E-1
Scans to average: 1
Nonlinearity correction enabled: false
Boxcar width: 0
Storing dark spectrum: false
XAxis mode: Wavelengths
Number of Pixels in Spectrum: 1024
>>>>>Begin Spectral Data<<<<<
801.071	27279
801.214	27237
801.356	26906
801.499	26834
801.641	26868
801.783	26800
801.926	26796
802.068	26891
802.211	26701
802.353	26788
802.496	26419
802.638	26381
802.78	26427
802.923	26313
803.065	26278
803.208	26271
803.35	26214
803.492	26518
803.635	26568
803.777	26381
803.919	26533
804.061	26807
804.204	26564
804.346	26499
804.488	26389
804.63	26511
804.773	26457
804.915	26613
805.057	26473
805.199	26446
805.341	26549
805.483	26708
805.626	26579
805.768	26530
805.91	26689
806.052	26655
806.194	26632
806.336	26792
806.478	26693
806.62	26682
806.762	26724
806.904	26918
807.046	27001
807.188	27093
807.33	27085
807.472	27169
807.614	26914
807.756	27028
807.898	26849
808.04	27089
808.182	26937
808.324	26982
808.465	26933
808.607	27268
808.749	27302
808.891	27340
809.033	27530
809.174	27313
809.316	27123
809.458	27252
809.6	27245
809.741	27348
809.883	27378
810.025	27568
810.166	27393
810.308	27496
810.45	27397
810.591	27325
810.733	27249
810.875	27252
811.016	27241
811.158	27131
811.299	27256
811.441	27382
811.582	27424
811.724	27127
811.865	27245
812.007	27123
812.148	27192
812.29	27127
812.431	27332
812.573	27587
812.714	27637
812.855	27812
812.997	27968
813.138	27823
813.279	27854
813.421	27751
813.562	27622
813.703	27667
813.845	27504
813.986	27119
814.127	27017
814.268	26944
814.41	27017
814.551	26792
814.692	26963
814.833	26948
814.974	26819
815.115	26861
815.256	26800
815.397	26804
815.539	26735
815.68	26705
815.821	26590
815.962	26674
816.103	26678
816.244	26495
816.385	26507
816.526	26457
816.666	26225
816.807	26111
816.948	26351
817.089	26180
817.23	26221
817.371	26142
817.512	26248
817.653	26054
817.793	26172
817.934	26195
818.075	26153
818.216	26084
818.356	26008
818.497	25852
818.638	25894
818.778	25818
818.919	25856
819.06	25940
819.2	25955
819.341	26096
819.481	26195
819.622	26301
819.762	26476
819.903	26507
820.043	26202
820.184	26233
820.324	26305
820.465	26229
820.605	26336
820.746	26138
820.886	26115
821.026	26161
821.167	26294
821.307	26126
821.447	26107
821.588	26088
821.728	25966
821.868	25864
822.008	25639
822.149	25742
822.289	25670
822.429	25354
822.569	25304
822.709	25240
822.849	25225
822.99	25080
823.13	25179
823.27	25050
823.41	24943
823.55	24943
823.69	25015
823.83	24894
823.97	24894
824.11	24764
824.25	24726
824.389	24833
824.529	24806
824.669	24871
824.809	24878
824.949	24844
825.089	24779
825.228	24901
825.368	24536
825.508	24700
825.648	24597
825.787	24551
825.927	24673
826.067	24578
826.206	24467
826.346	24772
826.485	24764
826.625	24620
826.765	24745
826.904	24642
827.044	24422
827.183	24300
827.323	24380
827.462	24395
827.601	24376
827.741	24292
827.88	24190
828.02	24194
828.159	24239
828.298	24365
828.437	24376
828.577	24327
828.716	24426
828.855	24178
828.994	24034
829.134	24018
829.273	24026
829.412	23996
829.551	23954
829.69	24060
829.829	24038
829.968	24110
830.107	24030
830.246	24053
830.385	24018
830.524	23965
830.663	23958
830.802	23707
830.941	23608
831.08	23623
831.219	23741
831.357	23764
831.496	23866
831.635	23756
831.774	23566
831.913	23642
832.051	23452
832.19	23414
832.329	23497
832.467	23303
832.606	23345
832.744	23360
832.883	23318
833.022	23288
833.16	23258
833.299	23341
833.437	23387
833.576	23360
833.714	23383
833.852	23551
833.991	23512
834.129	23581
834.267	23581
834.406	23353
834.544	23493
834.682	23376
834.821	23353
834.959	23547
835.097	23269
835.235	23410
835.373	23421
835.511	23406
835.65	23307
835.788	23292
835.926	23231
836.064	23048
836.202	23033
836.34	23284
836.478	23265
836.615	23220
836.753	23212
836.891	23239
837.029	23269
837.167	23162
837.305	23155
837.443	23216
837.58	23151
837.718	23280
837.856	23086
837.993	23022
838.131	23006
838.269	22930
838.406	22995
838.544	22892
838.681	22717
838.819	22786
838.956	22626
839.094	22641
839.231	22736
839.369	22672
839.506	22881
839.643	22767
839.781	22577
839.918	22531
840.055	22523
840.193	22531
840.33	22382
840.467	22474
840.604	22466
840.742	22713
840.879	22314
841.016	22284
841.153	22402
841.29	22634
841.427	22516
841.564	22573
841.701	22519
841.838	22447
841.975	22421
842.112	22344
842.249	22287
842.385	22276
842.522	22493
842.659	22329
842.796	22207
842.933	22238
843.069	22200
843.206	22280
843.343	22360
843.479	22246
843.616	22310
843.752	22029
843.889	22101
844.025	22257
844.162	21975
844.298	22135
844.435	22017
844.571	22010
844.708	22154
844.844	22185
844.98	22158
845.117	22082
845.253	21998
845.389	21926
845.525	21785
845.661	22013
845.798	21671
845.934	21880
846.07	21800
846.206	21835
846.342	22017
846.478	21793
846.614	21595
846.75	21454
846.886	21633
847.022	21641
847.158	21469
847.294	21466
847.429	21485
847.565	21515
847.701	21709
847.837	21226
847.972	21131
848.108	21355
848.244	21272
848.379	21116
848.515	21058
848.65	21184
848.786	21108
848.921	21173
849.057	21154
849.192	21252
849.328	21131
849.463	21207
849.598	21032
849.734	20986
849.869	20948
850.004	20914
850.14	20868
850.275	20781
850.41	20758
850.545	20804
850.68	20834
850.815	20872
850.95	20868
851.085	21051
851.22	21066
851.355	20830
851.49	20857
851.625	20826
851.76	20849
851.895	20655
852.03	20823
852.165	20929
852.299	20823
852.434	20895
852.569	20887
852.703	20849
852.838	20914
852.973	20830
853.107	20937
853.242	20845
853.376	20735
853.511	20686
853.645	20590
853.78	20678
853.914	20693
854.048	20609
854.183	20724
854.317	20811
854.451	20842
854.585	20807
854.72	20701
854.854	20868
854.988	20731
855.122	20636
855.256	20587
855.39	20708
855.524	20773
855.658	20826
855.792	20663
855.926	20689
856.06	20819
856.194	20785
856.327	20739
856.461	20705
856.595	20655
856.729	20621
856.862	20918
856.996	20663
857.13	20735
857.263	20769
857.397	20826
857.53	20644
857.664	20648
857.797	20762
857.931	20815
858.064	20731
858.197	20823
858.331	20758
858.464	20651
858.597	20606
858.731	20727
858.864	20564
858.997	20712
859.13	20708
859.263	20720
859.396	20792
859.529	20648
859.662	20606
859.795	20545
859.928	20834
860.061	20785
860.194	20788
860.327	20682
860.46	20796
860.592	20727
860.725	20807
860.858	20758
860.99	20716
861.123	20655
861.256	20590
861.388	20613
861.521	21249
861.653	20541
861.786	20556
861.918	20522
862.05	20663
862.183	20522
862.315	20579
862.447	20758
862.58	20590
862.712	20454
862.844	20317
862.976	20583
863.108	20511
863.24	20834
863.372	20355
863.504	20552
863.636	20423
863.768	20355
863.9	20396
864.032	20377
864.164	20313
864.296	20431
864.428	20518
864.559	20549
864.691	20552
864.823	20431
864.954	20412
865.086	20495
865.217	20347
865.349	20214
865.48	20415
865.612	20347
865.743	20484
865.875	20317
866.006	20305
866.137	20282
866.269	20317
866.4	20282
866.531	20263
866.662	20206
866.793	20225
866.924	20229
867.055	20324
867.186	20366
867.317	20164
867.448	20210
867.579	20138
867.71	20191
867.841	20180
867.972	20309
868.103	20240
868.233	20240
868.364	20317
868.495	20332
868.625	20488
868.756	20606
868.886	20461
869.017	20431
869.147	20632
869.278	20552
869.408	20568
869.539	20503
869.669	20693
869.799	20560
869.929	20613
870.06	20613
870.19	20811
870.32	20815
870.45	20876
870.58	20906
870.71	21017
870.84	21013
870.97	20963
871.1	20864
871.23	21123
871.36	21062
871.489	21058
871.619	21058
871.749	21028
871.879	21150
872.008	21123
872.138	21074
872.267	21089
872.397	21058
872.526	20815
872.656	20857
872.785	20944
872.915	21146
873.044	21195
873.173	21222
873.303	21108
873.432	21218
873.561	21127
873.69	21093
873.819	21199
873.948	21249
874.077	21222
874.206	21089
874.335	21142
874.464	21241
874.593	21382
874.722	21393
874.851	21340
874.979	21485
875.108	21481
875.237	21321
875.365	21146
875.494	21291
875.623	21397
875.751	21188
875.88	21416
876.008	21644
876.136	21511
876.265	21781
876.393	21751
876.521	21755
876.65	21907
876.778	21842
876.906	21690
877.034	21530
877.162	21644
877.29	21751
877.418	21816
877.546	21698
877.674	21751
877.802	21633
877.93	21606
878.058	21739
878.185	21572
878.313	21591
878.441	21603
878.568	21572
878.696	21724
878.824	21728
878.951	21694
879.079	21797
879.206	22082
879.333	21945
879.461	21663
879.588	21797
879.715	21850
879.842	21930
879.97	21736
880.097	21576
880.224	21671
880.351	21549
880.478	21587
880.605	21580
880.732	21481
880.859	21698
880.986	21534
881.112	21534
881.239	21507
881.366	21382
881.493	21142
881.619	21207
881.746	21150
881.872	21199
881.999	20998
882.125	20902
882.252	21222
882.378	21135
882.505	21222
882.631	21020
882.757	20918
882.883	20876
883.01	20887
883.136	20697
883.262	20678
883.388	20735
883.514	20815
883.64	20830
883.766	20727
883.892	20625
884.018	20674
884.143	20883
884.269	20796
884.395	20556
884.52	20465
884.646	20457
884.772	20358
884.897	20377
885.023	20560
885.148	20625
885.274	20609
885.399	20648
885.524	20606
885.65	20590
885.775	20518
885.9	20442
886.025	20526
886.15	20476
886.275	20568
886.4	20434
886.525	20438
886.65	20309
886.775	20317
886.9	20556
887.025	20689
887.149	20488
887.274	20275
887.399	20259
887.523	20153
887.648	20176
887.773	20100
887.897	20419
888.021	20286
888.146	20180
888.27	20301
888.395	20442
888.519	20256
888.643	20320
888.767	20301
888.891	20244
889.015	20206
889.139	20077
889.263	19993
889.387	20191
889.511	20218
889.635	20237
889.759	20069
889.883	19993
890.006	20065
890.13	20058
890.254	20043
890.377	20020
890.501	19803
890.624	19841
890.748	19849
890.871	19719
890.995	19571
891.118	19575
891.241	19651
891.364	19590
891.488	19715
891.611	19601
891.734	19708
891.857	19734
891.98	19639
892.103	19624
892.226	19674
892.349	19594
892.471	19464
892.594	19578
892.717	19597
892.839	19552
892.962	19578
893.085	19552
893.207	19613
893.33	19537
893.452	19537
893.575	19506
893.697	19609
893.819	19658
893.941	19731
894.064	19708
894.186	19578
894.308	19400
894.43	19685
894.552	19685
894.674	19628
894.796	19445
894.918	19460
895.04	19499
895.161	19757
895.283	19609
895.405	19419
895.526	19537
895.648	19514
895.769	19712
895.891	19674
896.012	19620
896.134	19666
896.255	19552
896.376	19635
896.498	19544
896.619	19601
896.74	19616
896.861	19506
896.982	20020
897.103	20092
897.224	19791
897.345	19807
897.466	19734
897.587	19674
897.708	19856
897.828	19731
897.949	19826
898.07	19662
898.19	19803
898.311	19868
898.431	19791
898.552	19830
898.672	19849
898.792	19871
898.913	19757
899.033	19700
899.153	19597
899.273	19434
899.393	19635
899.513	19666
899.633	19487
899.753	19544
899.873	19559
899.993	19670
900.113	19491
900.232	19575
900.352	19445
900.472	19297
900.591	19244
900.711	19316
900.83	19236
900.95	19373
901.069	19365
901.189	19228
901.308	18935
901.427	18890
901.546	18859
901.665	19000
901.784	18897
901.904	18779
902.023	18707
902.141	18448
902.26	18475
902.379	18426
902.498	18410
902.617	18410
902.735	18361
902.854	18323
902.973	18437
903.091	18152
903.21	18254
903.328	18087
903.446	18026
903.565	17999
903.683	17912
903.801	17767
903.919	17954
904.038	17870
904.156	17726
904.274	17783
904.392	17657
904.51	17657
904.627	17710
904.745	17821
904.863	17695
904.981	17398
905.098	17277
905.216	17345
905.334	17448
905.451	17452
905.569	17227
905.686	17459
905.803	17376
905.921	17121
906.038	17250
906.155	17185
906.272	17083
906.389	17121
906.506	16873
906.623	16866
906.74	16881
906.857	16816
906.974	16809
907.091	16927
907.208	17006
907.324	16987
907.441	16858
907.557	16656
907.674	16615
907.79	16561
907.907	16550
908.023	16717
908.139	16668
908.256	16611
908.372	16634
908.488	16569
908.604	16489
908.72	16284
908.836	16325
908.952	16333
909.068	16474
909.184	16504
909.3	16295
909.415	16295
909.531	16303
909.647	16105
909.762	16097
909.878	16017
909.993	16124
910.108	15934
910.224	15983
910.339	16109
910.454	16010
910.57	15861
910.685	15759
910.8	16086
910.915	15972
911.03	15823
911.145	15717
911.259	15705
911.374	15751
911.489	15637
911.604	15500
911.718	15473
911.833	15481
911.947	15359
912.062	15222
912.176	15412
912.291	15393
912.405	15530
912.519	15538
912.633	15599
912.748	15435
912.862	15370
912.976	15222
913.09	15176
913.204	15161
913.318	15275
913.431	15336
913.545	15279
913.659	15374
913.772	15154
913.886	14975
914	15077
914.113	15066
914.226	15169
914.34	15070
914.453	14899
914.566	15135
914.68	14994
914.793	14967
914.906	14727
915.019	14716
915.132	14617
915.245	14697
915.358	14693
915.47	14731
915.583	14625
915.696	14708
915.809	14739
915.921	14868
916.034	14583
916.146	14533
916.259	14526
916.371	14587
916.483	14583
916.595	14457
916.708	14511
916.82	14518
916.932	14400
917.044	14469
917.156	14434
917.268	14381
917.38	14362
917.491	14336
917.603	14313
917.715	14499
917.826	14461
917.938	14271
918.049	14180
918.161	14286
918.272	14393
918.384	14415
918.495	14355
918.606	14077
918.717	13894
918.828	14214
918.939	14107
919.05	14130
919.161	14153
919.272	13875
919.383	13917
919.494	14130
919.604	14290
919.715	14001
919.826	13963
919.936	14081
920.047	14168
920.157	14081
920.267	14240
920.378	14039
920.488	14027
920.598	14218
920.708	14351
920.818	14214
920.928	14237
921.038	14412
921.148	14313
921.258	14027
921.368	13997
921.477	13803
921.587	13902
921.697	13696
921.806	13917
921.916	13643
922.025	13518
922.134	13521
922.244	13422
922.353	13419
922.462	13403
922.571	13324
922.68	13084
922.789	13065
922.898	13164
923.007	13072
923.116	13168
923.224	13046
923.333	13095
923.442	12958
923.55	12916
923.659	13000
923.767	13057
923.876	12932
923.984	12935
924.092	12829
924.201	12878
924.309	12886
924.417	12935
924.525	12779
924.633	12760
924.741	13670
924.849	12646
924.956	12738
925.064	12593
925.172	12578
925.279	12627
925.387	12574
925.494	12566
925.602	12673
925.709	12631
925.816	12456
925.924	12448
926.031	12620
926.138	12589
926.245	12604
926.352	12403
926.459	12551
926.566	12589
926.673	12479
926.779	12346
926.886	12376
926.993	12171
927.099	12155
927.206	12007
927.312	12060
927.419	12224
927.525	12076
927.631	12235
927.737	12030
927.843	12053
927.95	11897
928.056	11958
928.162	11984
928.267	12034
928.373	12585
928.479	12125
928.585	11760
928.69	11935
928.796	11961
928.901	11908
929.007	11695
929.112	11843
929.218	11779
929.323	11764
929.428	11600
929.533	11897
929.638	11661
929.743	11596
929.848	11722
929.953	11642
930.058	11611
930.163	11402
930.267	11467
930.372	11558
930.477	11398
930.581	11539
930.685	11448
930.79	11261
930.894	11315
930.998	11273
931.103	11398
931.207	11052
931.311	11006
931.415	10816
931.519	10653
931.623	10778
