Data from test_V78500241_1524.txt Node
Date: Fri Mar 25 15:20:28 CST 2022
User: usil
Spectrometer: V785-0024
Trigger mode: 0
Integration Time (sec): 4.000000E-1
Scans to average: 1
Nonlinearity correction enabled: false
Boxcar width: 0
Storing dark spectrum: false
XAxis mode: Wavelengths
Number of Pixels in Spectrum: 1024
>>>>>Begin Spectral Data<<<<<
801.071	28124
801.214	27987
801.356	27778
801.499	27663
801.641	27587
801.783	27561
801.926	27580
802.068	27599
802.211	27580
802.353	27625
802.496	27272
802.638	27279
802.78	27306
802.923	27116
803.065	27100
803.208	27211
803.35	27199
803.492	27321
803.635	27431
803.777	27355
803.919	27466
804.061	27583
804.204	27504
804.346	27443
804.488	27378
804.63	27435
804.773	27332
804.915	27427
805.057	27485
805.199	27401
805.341	27492
805.483	27637
805.626	27553
805.768	27374
805.91	27606
806.052	27618
806.194	27393
806.336	27549
806.478	27591
806.62	27629
806.762	27644
806.904	27812
807.046	28048
807.188	27899
807.33	27968
807.472	28116
807.614	27907
807.756	28051
807.898	27884
808.04	27785
808.182	27934
808.324	28002
808.465	27930
808.607	28131
808.749	28177
808.891	28386
809.033	28333
809.174	28242
809.316	28265
809.458	28192
809.6	28253
809.741	28405
809.883	28310
810.025	28592
810.166	28550
810.308	28599
810.45	28527
810.591	28436
810.733	28363
810.875	28150
811.016	28196
811.158	28158
811.299	28284
811.441	28322
811.582	28333
811.724	28120
811.865	28341
812.007	28268
812.148	28242
812.29	28276
812.431	28535
812.573	28535
812.714	28691
812.855	28672
812.997	28946
813.138	29022
813.279	28820
813.421	28923
813.562	28771
813.703	28588
813.845	28459
813.986	28204
814.127	27907
814.268	27895
814.41	27968
814.551	27808
814.692	27953
814.833	27827
814.974	27884
815.115	27895
815.256	27770
815.397	27876
815.539	27770
815.68	27705
815.821	27709
815.962	27857
816.103	27854
816.244	27466
816.385	27462
816.526	27504
816.666	27317
816.807	27169
816.948	27332
817.089	27199
817.23	27279
817.371	27237
817.512	27104
817.653	27264
817.793	27081
817.934	27245
818.075	27230
818.216	27176
818.356	27100
818.497	27222
818.638	26952
818.778	26971
818.919	26929
819.06	26956
819.2	27203
819.341	27268
819.481	27386
819.622	27386
819.762	27492
819.903	27370
820.043	27344
820.184	27370
820.324	27317
820.465	27355
820.605	27351
820.746	27310
820.886	27211
821.026	27332
821.167	27302
821.307	27458
821.447	27150
821.588	27233
821.728	27135
821.868	26914
822.008	26609
822.149	26674
822.289	26712
822.429	26355
822.569	26240
822.709	26355
822.849	26282
822.99	26237
823.13	26138
823.27	26138
823.41	26005
823.55	25811
823.69	26081
823.83	25989
823.97	26008
824.11	25677
824.25	25791
824.389	25887
824.529	25932
824.669	25879
824.809	25788
824.949	25887
825.089	25890
825.228	25822
825.368	25655
825.508	25784
825.648	25594
825.787	25753
825.927	25769
826.067	25597
826.206	25712
826.346	25746
826.485	25807
826.625	25734
826.765	25902
826.904	25738
827.044	25445
827.183	25514
827.323	25240
827.462	25453
827.601	25426
827.741	25396
827.88	25316
828.02	25251
828.159	25365
828.298	25453
828.437	25335
828.577	25396
828.716	25468
828.855	25388
828.994	25072
829.134	25076
829.273	25133
829.412	25084
829.551	25069
829.69	25126
829.829	25194
829.968	25373
830.107	25061
830.246	25019
830.385	25027
830.524	25000
830.663	24871
830.802	24757
830.941	24696
831.08	24669
831.219	24837
831.357	24764
831.496	24905
831.635	24719
831.774	24646
831.913	24582
832.051	24589
832.19	24544
832.329	24532
832.467	24414
832.606	24308
832.744	24277
832.883	24391
833.022	24365
833.16	24505
833.299	24395
833.437	24353
833.576	24380
833.714	24372
833.852	24380
833.991	24380
834.129	24505
834.267	24490
834.406	24521
834.544	24441
834.682	24441
834.821	24410
834.959	24604
835.097	24388
835.235	24517
835.373	24464
835.511	24285
835.65	24315
835.788	24410
835.926	24136
836.064	24091
836.202	24079
836.34	24304
836.478	24266
836.615	24251
836.753	24251
836.891	24357
837.029	24243
837.167	24205
837.305	24270
837.443	24197
837.58	24106
837.718	24136
837.856	24045
837.993	23942
838.131	24095
838.269	23893
838.406	23954
838.544	23882
838.681	23672
838.819	23794
838.956	23592
839.094	23501
839.231	23665
839.369	23745
839.506	23942
839.643	23859
839.781	23528
839.918	23486
840.055	23577
840.193	23665
840.33	23448
840.467	23459
840.604	23547
840.742	23680
840.879	23356
841.016	23372
841.153	23406
841.29	23471
841.427	23478
841.564	23562
841.701	23429
841.838	23398
841.975	23322
842.112	23455
842.249	23216
842.385	23185
842.522	23455
842.659	23258
842.796	23235
842.933	23170
843.069	23212
843.206	23162
843.343	23395
843.479	23216
843.616	23162
843.752	23014
843.889	23018
844.025	23147
844.162	23014
844.298	23124
844.435	23041
844.571	22911
844.708	23056
844.844	23060
844.98	23014
845.117	23113
845.253	22949
845.389	22896
845.525	22809
845.661	22797
845.798	22736
845.934	22729
846.07	22790
846.206	22763
846.342	22778
846.478	22687
846.614	22615
846.75	22405
846.886	22451
847.022	22428
847.158	22451
847.294	22402
847.429	22512
847.565	22413
847.701	22717
847.837	22234
847.972	22139
848.108	22242
848.244	22417
848.379	22021
848.515	22044
848.65	21979
848.786	22063
848.921	22044
849.057	22070
849.192	22112
849.328	22070
849.463	22036
849.598	22013
849.734	21994
849.869	21884
850.004	21838
850.14	21888
850.275	21861
850.41	21755
850.545	21781
850.68	21736
850.815	21892
850.95	21682
851.085	21983
851.22	21926
851.355	21922
851.49	21850
851.625	21778
851.76	21759
851.895	21739
852.03	21637
852.165	21808
852.299	21793
852.434	22010
852.569	21854
852.703	21804
852.838	21854
852.973	21972
853.107	21987
853.242	21732
853.376	21618
853.511	21599
853.645	21652
853.78	21732
853.914	21580
854.048	21637
854.183	21652
854.317	21595
854.451	21895
854.585	21572
854.72	21557
854.854	21774
854.988	21610
855.122	21679
855.256	21542
855.39	21652
855.524	21679
855.658	21713
855.792	21679
855.926	21663
856.06	21679
856.194	21720
856.327	21614
856.461	21591
856.595	21564
856.729	21572
856.862	21770
856.996	21743
857.13	21747
857.263	21770
857.397	21739
857.53	21637
857.664	21766
857.797	21819
857.931	21759
858.064	21641
858.197	21728
858.331	21705
858.464	21633
858.597	21553
858.731	21667
858.864	21557
858.997	21637
859.13	21622
859.263	21694
859.396	21720
859.529	21739
859.662	21549
859.795	21526
859.928	21644
860.061	21918
860.194	21789
860.327	21797
860.46	21701
860.592	21766
860.725	21755
860.858	21876
860.99	21751
861.123	21652
861.256	21641
861.388	21728
861.521	22325
861.653	21466
861.786	21431
861.918	21454
862.05	21580
862.183	21667
862.315	21519
862.447	21762
862.58	21671
862.712	21363
862.844	21340
862.976	21488
863.108	21542
863.24	21648
863.372	21310
863.504	21359
863.636	21272
863.768	21428
863.9	21310
864.032	21378
864.164	21237
864.296	21401
864.428	21534
864.559	21477
864.691	21393
864.823	21359
864.954	21226
865.086	21222
865.217	21348
865.349	21249
865.48	21363
865.612	21195
865.743	21393
865.875	21207
866.006	21272
866.137	21302
866.269	21241
866.4	21256
866.531	21058
866.662	21093
866.793	21207
866.924	21154
867.055	21199
867.186	21100
867.317	21233
867.448	21123
867.579	21245
867.71	21055
867.841	21013
867.972	21283
868.103	21127
868.233	21272
868.364	21081
868.495	21329
868.625	21378
868.756	21458
868.886	21355
869.017	21420
869.147	21401
869.278	21526
869.408	21408
869.539	21405
869.669	21462
869.799	21428
869.929	21755
870.06	21473
870.19	21663
870.32	21682
870.45	21751
870.58	21846
870.71	21934
870.84	21895
870.97	21804
871.1	21804
871.23	21964
871.36	21953
871.489	21850
871.619	21979
871.749	21937
871.879	22074
872.008	22093
872.138	22036
872.267	21998
872.397	21888
872.526	21755
872.656	21831
872.785	21880
872.915	22078
873.044	22067
873.173	22173
873.303	22051
873.432	22097
873.561	22169
873.69	22063
873.819	21979
873.948	22204
874.077	22070
874.206	22021
874.335	21994
874.464	22063
874.593	22109
874.722	22120
874.851	22261
874.979	22238
875.108	22299
875.237	22101
875.365	22234
875.494	22268
875.623	22306
875.751	22196
875.88	22246
876.008	22325
876.136	22417
876.265	22637
876.393	22774
876.521	22683
876.65	22744
876.778	22649
876.906	22485
877.034	22622
877.162	22660
877.29	22580
877.418	22626
877.546	22577
877.674	22740
877.802	22535
877.93	22565
878.058	22497
878.185	22459
878.313	22493
878.441	22622
878.568	22508
878.696	22500
878.824	22691
878.951	22649
879.079	22698
879.206	22866
879.333	22679
879.461	22713
879.588	22790
879.715	22710
879.842	22965
879.97	22641
880.097	22379
880.224	22447
880.351	22310
880.478	22424
880.605	22333
880.732	22451
880.859	22618
880.986	22348
881.112	22394
881.239	22253
881.366	22272
881.493	22131
881.619	21903
881.746	22006
881.872	22044
881.999	21956
882.125	21949
882.252	21945
882.378	21861
882.505	22090
882.631	21945
882.757	21739
882.883	21766
883.01	21732
883.136	21667
883.262	21519
883.388	21519
883.514	21530
883.64	21728
883.766	21599
883.892	21454
884.018	21523
884.143	21576
884.269	21747
884.395	21344
884.52	21302
884.646	21283
884.772	21256
884.897	21260
885.023	21340
885.148	21462
885.274	21447
885.399	21378
885.524	21325
885.65	21344
885.775	21294
885.9	21260
886.025	21447
886.15	21378
886.275	21241
886.4	21184
886.525	21355
886.65	21256
886.775	21131
886.9	21332
887.025	21507
887.149	21169
887.274	21184
887.399	21150
887.523	21161
887.648	20967
887.773	21001
887.897	21241
888.021	21085
888.146	21001
888.27	21089
888.395	21157
888.519	21100
888.643	21085
888.767	21108
888.891	21036
889.015	20853
889.139	20933
889.263	20834
889.387	21005
889.511	21085
889.635	20891
889.759	20807
889.883	20876
890.006	20925
890.13	21032
890.254	20819
890.377	20800
890.501	20575
890.624	20590
890.748	20632
890.871	20484
890.995	20499
891.118	20336
891.241	20415
891.364	20507
891.488	20568
891.611	20454
891.734	20484
891.857	20454
891.98	20381
892.103	20446
892.226	20499
892.349	20301
892.471	20313
892.594	20381
892.717	20362
892.839	20324
892.962	20358
893.085	20396
893.207	20488
893.33	20275
893.452	20324
893.575	20427
893.697	20351
893.819	20412
893.941	20667
894.064	20446
894.186	20202
894.308	20252
894.43	20476
894.552	20514
894.674	20393
894.796	20229
894.918	20278
895.04	20320
895.161	20431
895.283	20336
895.405	20271
895.526	20393
895.648	20305
895.769	20339
895.891	20419
896.012	20450
896.134	20374
896.255	20434
896.376	20275
896.498	20298
896.619	20476
896.74	20233
896.861	20355
896.982	20564
897.103	20834
897.224	20499
897.345	20644
897.466	20476
897.587	20663
897.708	20845
897.828	20579
897.949	20625
898.07	20454
898.19	20575
898.311	20571
898.431	20511
898.552	20518
898.672	20556
898.792	20495
898.913	20655
899.033	20454
899.153	20446
899.273	20282
899.393	20240
899.513	20374
899.633	20202
899.753	20366
899.873	20278
899.993	20259
900.113	20275
900.232	20161
900.352	20157
900.472	20088
900.591	20065
900.711	20081
900.83	19917
900.95	20263
901.069	20187
901.189	19890
901.308	19624
901.427	19670
901.546	19658
901.665	19693
901.784	19578
901.904	19582
902.023	19316
902.141	19270
902.26	19148
902.379	19175
902.498	19152
902.617	19255
902.735	19061
902.854	19202
902.973	19091
903.091	18848
903.21	18741
903.328	18753
903.446	18764
903.565	18608
903.683	18692
903.801	18494
903.919	18547
904.038	18498
904.156	18475
904.274	18452
904.392	18365
904.51	18418
904.627	18399
904.745	18475
904.863	18403
904.981	18228
905.098	18030
905.216	18125
905.334	18133
905.451	18083
905.569	18083
905.686	18087
905.803	18057
905.921	17893
906.038	17965
906.155	17821
906.272	17687
906.389	17767
906.506	17638
906.623	17486
906.74	17665
906.857	17512
906.974	17497
907.091	17562
907.208	17756
907.324	17577
907.441	17558
907.557	17345
907.674	17254
907.79	17326
907.907	17360
908.023	17353
908.139	17265
908.256	17220
908.372	17155
908.488	17208
908.604	17121
908.72	16999
908.836	16991
908.952	17037
909.068	17037
909.184	17124
909.3	16972
909.415	16976
909.531	17003
909.647	16797
909.762	16679
909.878	16809
909.993	16729
910.108	16767
910.224	16596
910.339	16649
910.454	16626
910.57	16569
910.685	16462
910.8	16744
910.915	16687
911.03	16531
911.145	16299
911.259	16318
911.374	16398
911.489	16344
911.604	16166
911.718	15987
911.833	16040
911.947	16032
912.062	15869
912.176	16078
912.291	16048
912.405	16040
912.519	16371
912.633	16226
912.748	16097
912.862	16021
912.976	15751
913.09	15876
913.204	15800
913.318	15934
913.431	15861
913.545	16002
913.659	15972
913.772	15797
913.886	15610
914	15660
914.113	15770
914.226	15720
914.34	15694
914.453	15504
914.566	15766
914.68	15622
914.793	15549
914.906	15374
915.019	15332
915.132	15222
915.245	15306
915.358	15332
915.47	15176
915.583	15245
915.696	15252
915.809	15325
915.921	15424
916.034	15184
916.146	15138
916.259	15116
916.371	15329
916.483	15237
916.595	15085
916.708	15165
916.82	15089
916.932	15005
917.044	15089
917.156	15017
917.268	14876
917.38	14899
917.491	14891
917.603	14925
917.715	14910
917.826	15058
917.938	14826
918.049	14739
918.161	14773
918.272	14960
918.384	14990
918.495	14910
918.606	14693
918.717	14621
918.828	14625
918.939	14754
919.05	14644
919.161	14689
919.272	14499
919.383	14636
919.494	14750
919.604	14830
919.715	14617
919.826	14556
919.936	14659
920.047	14811
920.157	14648
920.267	14819
920.378	14663
920.488	14602
920.598	14720
920.708	15017
920.818	14834
920.928	14705
921.038	14944
921.148	14887
921.258	14552
921.368	14590
921.477	14450
921.587	14374
921.697	14206
921.806	14446
921.916	14278
922.025	14142
922.134	14012
922.244	13970
922.353	14073
922.462	13868
922.571	13875
922.68	13807
922.789	13704
922.898	13780
923.007	13681
923.116	13704
923.224	13655
923.333	13681
923.442	13594
923.55	13487
923.659	13571
923.767	13628
923.876	13419
923.984	13510
924.092	13430
924.201	13453
924.309	13464
924.417	13339
924.525	13339
924.633	13343
924.741	14107
924.849	13145
924.956	13285
925.064	13198
925.172	13027
925.279	13031
925.387	13107
925.494	13110
925.602	13278
925.709	13171
925.816	13031
925.924	13015
926.031	13091
926.138	13057
926.245	13065
926.352	12916
926.459	13012
926.566	13091
926.673	13042
926.779	12840
926.886	12776
926.993	12829
927.099	12696
927.206	12665
927.312	12509
927.419	12662
927.525	12673
927.631	12734
927.737	12589
927.843	12483
927.95	12429
928.056	12483
928.162	12521
928.267	12551
928.373	13149
928.479	12509
928.585	12323
928.69	12448
928.796	12445
928.901	12361
929.007	12228
929.112	12315
929.218	12228
929.323	12186
929.428	12209
929.533	12243
929.638	12167
929.743	12190
929.848	12209
929.953	12190
930.058	12053
930.163	11904
930.267	11889
930.372	11984
930.477	11977
930.581	12098
930.685	11923
930.79	11707
930.894	11882
930.998	11676
931.103	11897
931.207	11543
931.311	11406
931.415	11356
931.519	11094
931.623	11181
