Data from test_V78500241_2120.txt Node
Date: Fri Mar 25 15:24:37 CST 2022
User: usil
Spectrometer: V785-0024
Trigger mode: 0
Integration Time (sec): 4.000000E-1
Scans to average: 1
Nonlinearity correction enabled: false
Boxcar width: 0
Storing dark spectrum: false
XAxis mode: Wavelengths
Number of Pixels in Spectrum: 1024
>>>>>Begin Spectral Data<<<<<
801.071	27682
801.214	27656
801.356	27291
801.499	27264
801.641	27199
801.783	27252
801.926	27214
802.068	27081
802.211	27154
802.353	27032
802.496	26834
802.638	26876
802.78	26613
802.923	26708
803.065	26659
803.208	26621
803.35	26845
803.492	26800
803.635	27051
803.777	26994
803.919	26929
804.061	27233
804.204	27066
804.346	26857
804.488	26872
804.63	27009
804.773	26937
804.915	27070
805.057	26990
805.199	26815
805.341	26982
805.483	27135
805.626	26975
805.768	27024
805.91	27093
806.052	27085
806.194	26998
806.336	27332
806.478	27104
806.62	27108
806.762	27192
806.904	27386
807.046	27652
807.188	27526
807.33	27488
807.472	27667
807.614	27488
807.756	27367
807.898	27237
808.04	27332
808.182	27336
808.324	27325
808.465	27306
808.607	27443
808.749	27667
808.891	27873
809.033	27888
809.174	27610
809.316	27496
809.458	27629
809.6	27747
809.741	27816
809.883	27857
810.025	27945
810.166	28109
810.308	28192
810.45	27972
810.591	27918
810.733	27622
810.875	27557
811.016	27690
811.158	27443
811.299	27705
811.441	27739
811.582	27835
811.724	27690
811.865	27534
812.007	27667
812.148	27705
812.29	27816
812.431	27785
812.573	27918
812.714	28181
812.855	28204
812.997	28367
813.138	28299
813.279	28158
813.421	28341
813.562	28147
813.703	27960
813.845	27781
813.986	27667
814.127	27515
814.268	27386
814.41	27340
814.551	27306
814.692	27477
814.833	27237
814.974	27146
815.115	27382
815.256	27237
815.397	27279
815.539	27249
815.68	27142
815.821	26994
815.962	27192
816.103	27169
816.244	27058
816.385	26868
816.526	26891
816.666	26773
816.807	26655
816.948	26792
817.089	26731
817.23	26579
817.371	26632
817.512	26594
817.653	26495
817.793	26583
817.934	26644
818.075	26648
818.216	26606
818.356	26518
818.497	26461
818.638	26294
818.778	26400
818.919	26259
819.06	26492
819.2	26484
819.341	26571
819.481	26617
819.622	26815
819.762	26883
819.903	26956
820.043	26811
820.184	26708
820.324	26777
820.465	26746
820.605	26754
820.746	26754
820.886	26644
821.026	26724
821.167	26636
821.307	26883
821.447	26606
821.588	26336
821.728	26374
821.868	26275
822.008	26172
822.149	26168
822.289	26092
822.429	25890
822.569	25742
822.709	25700
822.849	25674
822.99	25674
823.13	25563
823.27	25491
823.41	25411
823.55	25247
823.69	25445
823.83	25407
823.97	25362
824.11	25255
824.25	25095
824.389	25171
824.529	25381
824.669	25240
824.809	25365
824.949	25244
825.089	25198
825.228	25320
825.368	25069
825.508	25034
825.648	25107
825.787	25065
825.927	25168
826.067	25095
826.206	25084
826.346	25103
826.485	25053
826.625	25107
826.765	25168
826.904	25232
827.044	24882
827.183	24825
827.323	24852
827.462	24920
827.601	24833
827.741	24833
827.88	24768
828.02	24711
828.159	24726
828.298	24840
828.437	24798
828.577	24802
828.716	24882
828.855	24627
828.994	24502
829.134	24513
829.273	24646
829.412	24464
829.551	24513
829.69	24559
829.829	24498
829.968	24578
830.107	24578
830.246	24582
830.385	24414
830.524	24426
830.663	24330
830.802	24239
830.941	24114
831.08	24114
831.219	24216
831.357	24129
831.496	24384
831.635	23996
831.774	24106
831.913	24045
832.051	23935
832.19	23847
832.329	24076
832.467	23840
832.606	23790
832.744	23882
832.883	23809
833.022	23870
833.16	23741
833.299	23942
833.437	23859
833.576	23817
833.714	23851
833.852	23977
833.991	23813
834.129	23805
834.267	23950
834.406	23855
834.544	23863
834.682	23958
834.821	23901
834.959	23942
835.097	23828
835.235	23897
835.373	23908
835.511	23824
835.65	23802
835.788	23699
835.926	23463
836.064	23486
836.202	23452
836.34	23745
836.478	23737
836.615	23642
836.753	23676
836.891	23638
837.029	23729
837.167	23653
837.305	23627
837.443	23455
837.58	23478
837.718	23551
837.856	23604
837.993	23592
838.131	23589
838.269	23364
838.406	23326
838.544	23459
838.681	23181
838.819	23288
838.956	23086
839.094	23159
839.231	23102
839.369	23254
839.506	23410
839.643	23239
839.781	22919
839.918	22946
840.055	22953
840.193	23025
840.33	22919
840.467	22972
840.604	23022
840.742	23147
840.879	22782
841.016	22843
841.153	22805
841.29	22980
841.427	22771
841.564	22961
841.701	22908
841.838	22869
841.975	22824
842.112	22782
842.249	22725
842.385	22687
842.522	22873
842.659	22637
842.796	22668
842.933	22713
843.069	22691
843.206	22660
843.343	22721
843.479	22588
843.616	22774
843.752	22417
843.889	22360
844.025	22664
844.162	22493
844.298	22500
844.435	22455
844.571	22428
844.708	22519
844.844	22649
844.98	22554
845.117	22580
845.253	22333
845.389	22253
845.525	22276
845.661	22211
845.798	22261
845.934	22337
846.07	22135
846.206	22196
846.342	22356
846.478	22112
846.614	22086
846.75	21899
846.886	21964
847.022	21972
847.158	21994
847.294	21911
847.429	21987
847.565	21922
847.701	22169
847.837	21515
847.972	21595
848.108	21770
848.244	21736
848.379	21526
848.515	21507
848.65	21515
848.786	21572
848.921	21572
849.057	21564
849.192	21610
849.328	21629
849.463	21549
849.598	21504
849.734	21553
849.869	21329
850.004	21287
850.14	21211
850.275	21359
850.41	21112
850.545	21374
850.68	21329
850.815	21351
850.95	21279
851.085	21481
851.22	21310
851.355	21317
851.49	21272
851.625	21283
851.76	21272
851.895	21222
852.03	21161
852.165	21275
852.299	21252
852.434	21355
852.569	21272
852.703	21344
852.838	21332
852.973	21424
853.107	21469
853.242	21260
853.376	21161
853.511	20914
853.645	21112
853.78	21161
853.914	21123
854.048	21062
854.183	21001
854.317	21165
854.451	21420
854.585	21093
854.72	21036
854.854	21176
854.988	21055
855.122	21165
855.256	21017
855.39	21074
855.524	21207
855.658	21256
855.792	21154
855.926	21062
856.06	21123
856.194	21150
856.327	21131
856.461	21165
856.595	21001
856.729	21093
856.862	21241
856.996	21165
857.13	21268
857.263	21195
857.397	21211
857.53	21131
857.664	21146
857.797	21135
857.931	21233
858.064	20971
858.197	21161
858.331	21096
858.464	21081
858.597	20960
858.731	21077
858.864	21043
858.997	21039
859.13	21089
859.263	21127
859.396	21260
859.529	20998
859.662	20963
859.795	21081
859.928	21055
860.061	21184
860.194	21272
860.327	21089
860.46	21154
860.592	21176
860.725	21207
860.858	21176
860.99	21070
861.123	21066
861.256	21150
861.388	21135
861.521	21800
861.653	20895
861.786	20864
861.918	21096
862.05	20986
862.183	21119
862.315	21089
862.447	21108
862.58	20956
862.712	20788
862.844	20769
862.976	20864
863.108	20899
863.24	21237
863.372	20781
863.504	20826
863.636	20823
863.768	20914
863.9	20792
864.032	20765
864.164	20655
864.296	20823
864.428	20849
864.559	20868
864.691	20921
864.823	20773
864.954	20735
865.086	20746
865.217	20636
865.349	20720
865.48	20697
865.612	20777
865.743	20830
865.875	20754
866.006	20674
866.137	20735
866.269	20739
866.4	20720
866.531	20674
866.662	20583
866.793	20571
866.924	20632
867.055	20571
867.186	20629
867.317	20522
867.448	20533
867.579	20648
867.71	20564
867.841	20632
867.972	20689
868.103	20571
868.233	20648
868.364	20701
868.495	20708
868.625	20804
868.756	20998
868.886	20842
869.017	20868
869.147	20998
869.278	21043
869.408	20887
869.539	20857
869.669	21036
869.799	20982
869.929	21013
870.06	20910
870.19	21180
870.32	21093
870.45	21081
870.58	21154
870.71	21138
870.84	21351
870.97	21222
871.1	21325
871.23	21485
871.36	21466
871.489	21408
871.619	21408
871.749	21545
871.879	21542
872.008	21633
872.138	21462
872.267	21317
872.397	21424
872.526	21321
872.656	21291
872.785	21264
872.915	21477
873.044	21572
873.173	21397
873.303	21488
873.432	21397
873.561	21507
873.69	21401
873.819	21561
873.948	21591
874.077	21603
874.206	21473
874.335	21466
874.464	21591
874.593	21770
874.722	21583
874.851	21869
874.979	21827
875.108	21800
875.237	21641
875.365	21614
875.494	21622
875.623	21812
875.751	21705
875.88	21766
876.008	21854
876.136	21892
876.265	22093
876.393	22291
876.521	22185
876.65	22147
876.778	22017
876.906	22093
877.034	22006
877.162	21956
877.29	22044
877.418	22093
877.546	22086
877.674	22051
877.802	22090
877.93	22048
878.058	22044
878.185	21918
878.313	22036
878.441	22158
878.568	21899
878.696	21987
878.824	22067
878.951	22215
879.079	22268
879.206	22337
879.333	22147
879.461	22055
879.588	22192
879.715	22223
879.842	22200
879.97	22074
880.097	21922
880.224	21907
880.351	21865
880.478	21857
880.605	21873
880.732	21797
880.859	22067
880.986	21899
881.112	21922
881.239	21793
881.366	21534
881.493	21519
881.619	21420
881.746	21500
881.872	21428
881.999	21408
882.125	21431
882.252	21363
882.378	21511
882.505	21481
882.631	21291
882.757	21104
882.883	21256
883.01	21123
883.136	21081
883.262	21036
883.388	21009
883.514	21039
883.64	21207
883.766	21104
883.892	20952
884.018	20956
884.143	21123
884.269	21230
884.395	20937
884.52	20811
884.646	20762
884.772	20838
884.897	20746
885.023	20849
885.148	20868
885.274	20921
885.399	20800
885.524	20720
885.65	20876
885.775	20864
885.9	20731
886.025	20918
886.15	20724
886.275	20777
886.4	20830
886.525	20743
886.65	20674
886.775	20743
886.9	20754
887.025	20941
887.149	20720
887.274	20549
887.399	20556
887.523	20587
887.648	20503
887.773	20511
887.897	20670
888.021	20541
888.146	20621
888.27	20549
888.395	20640
888.519	20511
888.643	20606
888.767	20575
888.891	20503
889.015	20374
889.139	20457
889.263	20320
889.387	20476
889.511	20640
889.635	20389
889.759	20278
889.883	20377
890.006	20434
890.13	20412
890.254	20290
890.377	20336
890.501	20218
890.624	20168
890.748	20286
890.871	19909
890.995	19993
891.118	19841
891.241	19883
891.364	20008
891.488	20031
891.611	19879
891.734	19887
891.857	20054
891.98	20005
892.103	19997
892.226	19883
892.349	19982
892.471	19727
892.594	19894
892.717	19837
892.839	19955
892.962	19841
893.085	19997
893.207	19894
893.33	19849
893.452	19799
893.575	19947
893.697	19898
893.819	20001
893.941	20054
894.064	19974
894.186	19860
894.308	19830
894.43	19868
894.552	20016
894.674	19909
894.796	19811
894.918	19738
895.04	19887
895.161	19921
895.283	19898
895.405	19788
895.526	19799
895.648	19811
895.769	19833
895.891	20043
896.012	19913
896.134	19864
896.255	19814
896.376	19978
896.498	19940
896.619	20081
896.74	19906
896.861	19947
896.982	20199
897.103	20393
897.224	20214
897.345	20103
897.466	19928
897.587	20073
897.708	20195
897.828	20168
897.949	20031
898.07	19830
898.19	19898
898.311	20134
898.431	19963
898.552	20122
898.672	20077
898.792	20157
898.913	20005
899.033	20130
899.153	19940
899.273	19852
899.393	19890
899.513	19860
899.633	19906
899.753	19833
899.873	19731
899.993	19799
900.113	19833
900.232	19704
900.352	19818
900.472	19765
900.591	19578
900.711	19704
900.83	19586
900.95	19750
901.069	19658
901.189	19544
901.308	19263
901.427	19343
901.546	19202
901.665	19194
901.784	19145
901.904	19160
902.023	18943
902.141	18783
902.26	18745
902.379	18829
902.498	18779
902.617	18673
902.735	18802
902.854	18753
902.973	18700
903.091	18376
903.21	18361
903.328	18315
903.446	18422
903.565	18247
903.683	18235
903.801	18216
903.919	18110
904.038	18285
904.156	17977
904.274	18114
904.392	18038
904.51	17958
904.627	18041
904.745	18049
904.863	18030
904.981	17707
905.098	17665
905.216	17642
905.334	17703
905.451	17600
905.569	17570
905.686	17611
905.803	17665
905.921	17455
906.038	17554
906.155	17596
906.272	17334
906.389	17372
906.506	17261
906.623	17242
906.74	17204
906.857	17117
906.974	17109
907.091	17193
907.208	17292
907.324	17132
907.441	17014
907.557	17003
907.674	16984
907.79	16843
907.907	16892
908.023	16961
908.139	16835
908.256	16911
908.372	16767
908.488	16786
908.604	16675
908.72	16607
908.836	16683
908.952	16622
909.068	16717
909.184	16660
909.3	16645
909.415	16672
909.531	16565
909.647	16436
909.762	16421
909.878	16382
909.993	16367
910.108	16356
910.224	16325
910.339	16341
910.454	16226
910.57	16223
910.685	16124
910.8	16428
910.915	16306
911.03	16143
911.145	15960
911.259	16067
911.374	15903
911.489	15850
911.604	15759
911.718	15663
911.833	15736
911.947	15572
912.062	15485
912.176	15671
912.291	15694
912.405	15717
912.519	15850
912.633	15755
912.748	15671
912.862	15568
912.976	15572
913.09	15370
913.204	15458
913.318	15523
913.431	15545
913.545	15564
913.659	15622
913.772	15477
913.886	15424
914	15351
914.113	15412
914.226	15431
914.34	15325
914.453	15237
914.566	15355
914.68	15382
914.793	15131
914.906	15039
915.019	15039
915.132	14880
915.245	14906
915.358	14956
915.47	14853
915.583	14967
915.696	15009
915.809	15074
915.921	15028
916.034	14925
916.146	14876
916.259	14819
916.371	14899
916.483	14868
916.595	14750
916.708	14739
916.82	14800
916.932	14750
917.044	14765
917.156	14667
917.268	14644
917.38	14739
917.491	14625
917.603	14568
917.715	14644
917.826	14636
917.938	14484
918.049	14457
918.161	14583
918.272	14651
918.384	14746
918.495	14575
918.606	14377
918.717	14237
918.828	14393
918.939	14313
919.05	14317
919.161	14301
919.272	14092
919.383	14172
919.494	14396
919.604	14552
919.715	14408
919.826	14256
919.936	14294
920.047	14393
920.157	14282
920.267	14427
920.378	14332
920.488	14301
920.598	14552
920.708	14644
920.818	14450
920.928	14469
921.038	14583
921.148	14518
921.258	14256
921.368	14237
921.477	14153
921.587	14130
921.697	14016
921.806	14157
921.916	13890
922.025	13826
922.134	13712
922.244	13636
922.353	13807
922.462	13483
922.571	13590
922.68	13411
922.789	13403
922.898	13392
923.007	13240
923.116	13320
923.224	13396
923.333	13365
923.442	13236
923.55	13247
923.659	13152
923.767	13285
923.876	13137
923.984	13251
924.092	13160
924.201	13126
924.309	13175
924.417	13012
924.525	13091
924.633	12981
924.741	13784
924.849	12840
924.956	12985
925.064	12806
925.172	12734
925.279	12825
925.387	12821
925.494	12856
925.602	12882
925.709	12791
925.816	12635
925.924	12749
926.031	12734
926.138	12760
926.245	12802
926.352	12639
926.459	12798
926.566	12779
926.673	12627
926.779	12574
926.886	12544
926.993	12369
927.099	12391
927.206	12273
927.312	12327
927.419	12418
927.525	12277
927.631	12437
927.737	12273
927.843	12258
927.95	12060
928.056	12167
928.162	12190
928.267	12186
928.373	12878
928.479	12270
928.585	11988
928.69	12148
928.796	12182
928.901	12015
929.007	11942
929.112	12034
929.218	12011
929.323	11977
929.428	11889
929.533	12034
929.638	11794
929.743	11836
929.848	11939
929.953	11961
930.058	11726
930.163	11649
930.267	11543
930.372	11722
930.477	11558
930.581	11828
930.685	11611
930.79	11398
930.894	11486
930.998	11471
931.103	11570
931.207	11235
931.311	11147
931.415	11193
931.519	10862
931.623	10881
