Data from test_V78500241_2693.txt Node
Date: Fri Mar 25 15:28:36 CST 2022
User: usil
Spectrometer: V785-0024
Trigger mode: 0
Integration Time (sec): 4.000000E-1
Scans to average: 1
Nonlinearity correction enabled: false
Boxcar width: 0
Storing dark spectrum: false
XAxis mode: Wavelengths
Number of Pixels in Spectrum: 1024
>>>>>Begin Spectral Data<<<<<
801.071	27135
801.214	27089
801.356	26785
801.499	26785
801.641	26625
801.783	26636
801.926	26720
802.068	26594
802.211	26484
802.353	26659
802.496	26427
802.638	26248
802.78	26206
802.923	26119
803.065	26229
803.208	26142
803.35	26267
803.492	26393
803.635	26294
803.777	26434
803.919	26320
804.061	26819
804.204	26507
804.346	26252
804.488	26381
804.63	26286
804.773	26343
804.915	26438
805.057	26499
805.199	26393
805.341	26362
805.483	26552
805.626	26541
805.768	26412
805.91	26537
806.052	26507
806.194	26343
806.336	26625
806.478	26533
806.62	26453
806.762	26708
806.904	26724
807.046	26830
807.188	26872
807.33	27013
807.472	26979
807.614	26743
807.756	26868
807.898	26705
808.04	26731
808.182	26678
808.324	26830
808.465	26807
808.607	26963
808.749	27028
808.891	27199
809.033	27245
809.174	27275
809.316	27043
809.458	27176
809.6	27081
809.741	27176
809.883	27264
810.025	27466
810.166	27325
810.308	27412
810.45	27427
810.591	27199
810.733	27161
810.875	27020
811.016	26914
811.158	26967
811.299	27146
811.441	27260
811.582	27154
811.724	27135
811.865	27058
812.007	26914
812.148	26975
812.29	27241
812.431	27249
812.573	27332
812.714	27557
812.855	27420
812.997	27762
813.138	27842
813.279	27751
813.421	27606
813.562	27507
813.703	27424
813.845	27256
813.986	26891
814.127	26899
814.268	26864
814.41	26663
814.551	26781
814.692	26826
814.833	26674
814.974	26617
815.115	26861
815.256	26716
815.397	26640
815.539	26644
815.68	26431
815.821	26450
815.962	26526
816.103	26488
816.244	26556
816.385	26389
816.526	26229
816.666	26111
816.807	26100
816.948	26043
817.089	26164
817.23	26016
817.371	25959
817.512	25982
817.653	25875
817.793	25894
817.934	25963
818.075	25890
818.216	25966
818.356	25955
818.497	25818
818.638	25856
818.778	25803
818.919	25662
819.06	25803
819.2	25982
819.341	26081
819.481	25970
819.622	26172
819.762	26347
819.903	26248
820.043	26115
820.184	26092
820.324	26073
820.465	26157
820.605	26195
820.746	26145
820.886	25970
821.026	26077
821.167	26012
821.307	26016
821.447	26122
821.588	25936
821.728	25830
821.868	25628
822.008	25445
822.149	25457
822.289	25434
822.429	25247
822.569	25133
822.709	25088
822.849	24875
822.99	24905
823.13	24776
823.27	24947
823.41	24814
823.55	24703
823.69	24734
823.83	24890
823.97	24726
824.11	24642
824.25	24475
824.389	24692
824.529	24692
824.669	24673
824.809	24654
824.949	24730
825.089	24707
825.228	24639
825.368	24490
825.508	24350
825.648	24551
825.787	24475
825.927	24578
826.067	24334
826.206	24521
826.346	24505
826.485	24464
826.625	24460
826.765	24540
826.904	24604
827.044	24315
827.183	24083
827.323	24163
827.462	24304
827.601	24330
827.741	24194
827.88	24133
828.02	24026
828.159	24174
828.298	24201
828.437	24266
828.577	24087
828.716	24079
828.855	24125
828.994	23904
829.134	23920
829.273	23973
829.412	23821
829.551	23802
829.69	23840
829.829	23836
829.968	23878
830.107	23851
830.246	23813
830.385	23821
830.524	23832
830.663	23786
830.802	23581
830.941	23520
831.08	23425
831.219	23615
831.357	23649
831.496	23737
831.635	23520
831.774	23402
831.913	23452
832.051	23364
832.19	23174
832.329	23311
832.467	23216
832.606	23162
832.744	23124
832.883	23227
833.022	23098
833.16	23197
833.299	23071
833.437	23132
833.576	23303
833.714	23303
833.852	23200
833.991	23197
834.129	23200
834.267	23383
834.406	23258
834.544	23311
834.682	23166
834.821	23121
834.959	23303
835.097	23227
835.235	23299
835.373	23204
835.511	23140
835.65	23006
835.788	23022
835.926	23075
836.064	22946
836.202	22911
836.34	23124
836.478	23143
836.615	23128
836.753	23083
836.891	23128
837.029	23140
837.167	22949
837.305	23014
837.443	22847
837.58	22934
837.718	22892
837.856	22942
837.993	22965
838.131	23022
838.269	22835
838.406	22854
838.544	22767
838.681	22550
838.819	22592
838.956	22421
839.094	22436
839.231	22390
839.369	22649
839.506	22805
839.643	22721
839.781	22459
839.918	22276
840.055	22489
840.193	22386
840.33	22200
840.467	22386
840.604	22413
840.742	22504
840.879	22230
841.016	22109
841.153	22166
841.29	22363
841.427	22322
841.564	22276
841.701	22348
841.838	22272
841.975	22291
842.112	22295
842.249	22291
842.385	22101
842.522	22424
842.659	22177
842.796	22086
842.933	22074
843.069	22010
843.206	22090
843.343	22249
843.479	22078
843.616	22147
843.752	21895
843.889	21831
844.025	22036
844.162	21945
844.298	21918
844.435	21899
844.571	21907
844.708	21915
844.844	22097
844.98	21956
845.117	21876
845.253	21838
845.389	21671
845.525	21671
845.661	21690
845.798	21675
845.934	21599
846.07	21587
846.206	21606
846.342	21766
846.478	21591
846.614	21504
846.75	21302
846.886	21329
847.022	21492
847.158	21374
847.294	21188
847.429	21431
847.565	21310
847.701	21549
847.837	21001
847.972	20975
848.108	21161
848.244	21066
848.379	20937
848.515	20857
848.65	20906
848.786	20902
848.921	20880
849.057	21043
849.192	21077
849.328	20960
849.463	20963
849.598	20762
849.734	20868
849.869	20849
850.004	20804
850.14	20674
850.275	20716
850.41	20587
850.545	20689
850.68	20708
850.815	20788
850.95	20746
851.085	20914
851.22	20956
851.355	20697
851.49	20670
851.625	20762
851.76	20674
851.895	20708
852.03	20670
852.165	20644
852.299	20720
852.434	20758
852.569	20701
852.703	20773
852.838	20727
852.973	20826
853.107	20845
853.242	20552
853.376	20636
853.511	20415
853.645	20446
853.78	20701
853.914	20655
854.048	20457
854.183	20400
854.317	20530
854.451	20708
854.585	20522
854.72	20587
854.854	20571
854.988	20583
855.122	20526
855.256	20473
855.39	20377
855.524	20655
855.658	20606
855.792	20556
855.926	20636
856.06	20640
856.194	20617
856.327	20530
856.461	20579
856.595	20579
856.729	20461
856.862	20613
856.996	20651
857.13	20621
857.263	20686
857.397	20678
857.53	20518
857.664	20590
857.797	20689
857.931	20598
858.064	20579
858.197	20750
858.331	20556
858.464	20495
858.597	20412
858.731	20431
858.864	20473
858.997	20518
859.13	20454
859.263	20640
859.396	20667
859.529	20533
859.662	20560
859.795	20438
859.928	20606
860.061	20682
860.194	20735
860.327	20594
860.46	20590
860.592	20693
860.725	20708
860.858	20648
860.99	20503
861.123	20537
861.256	20438
861.388	20499
861.521	21329
861.653	20374
861.786	20275
861.918	20575
862.05	20358
862.183	20412
862.315	20465
862.447	20609
862.58	20377
862.712	20195
862.844	20233
862.976	20320
863.108	20438
863.24	20845
863.372	20210
863.504	20275
863.636	20298
863.768	20282
863.9	20282
864.032	20161
864.164	20271
864.296	20313
864.428	20400
864.559	20370
864.691	20396
864.823	20332
864.954	20290
865.086	20202
865.217	20252
865.349	20096
865.48	20142
865.612	20206
865.743	20377
865.875	20267
866.006	20168
866.137	20077
866.269	20183
866.4	20187
866.531	20122
866.662	20115
866.793	19982
866.924	20122
867.055	20134
867.186	20107
867.317	20100
867.448	19978
867.579	20138
867.71	19955
867.841	20016
867.972	20122
868.103	20008
868.233	20111
868.364	20157
868.495	20286
868.625	20423
868.756	20431
868.886	20240
869.017	20457
869.147	20419
869.278	20385
869.408	20278
869.539	20415
869.669	20431
869.799	20427
869.929	20552
870.06	20408
870.19	20670
870.32	20708
870.45	20788
870.58	20800
870.71	20883
870.84	20826
870.97	20762
871.1	20655
871.23	20845
871.36	20948
871.489	20796
871.619	20830
871.749	20880
871.879	21005
872.008	21028
872.138	21013
872.267	20925
872.397	20944
872.526	20811
872.656	20849
872.785	20758
872.915	20960
873.044	21051
873.173	21066
873.303	20967
873.432	21055
873.561	21161
873.69	20929
873.819	20971
873.948	21055
874.077	20982
874.206	20990
874.335	21024
874.464	21070
874.593	21131
874.722	21138
874.851	21260
874.979	21165
875.108	21355
875.237	21252
875.365	21214
875.494	21138
875.623	21332
875.751	21188
875.88	21192
876.008	21317
876.136	21420
876.265	21652
876.393	21743
876.521	21675
876.65	21679
876.778	21701
876.906	21515
877.034	21511
877.162	21637
877.29	21447
877.418	21629
877.546	21553
877.674	21526
877.802	21557
877.93	21542
878.058	21496
878.185	21389
878.313	21561
878.441	21538
878.568	21477
878.696	21416
878.824	21682
878.951	21652
879.079	21686
879.206	21854
879.333	21785
879.461	21686
879.588	21614
879.715	21701
879.842	21831
879.97	21637
880.097	21283
880.224	21230
880.351	21435
880.478	21450
880.605	21291
880.732	21492
880.859	21656
880.986	21469
881.112	21435
881.239	21355
881.366	21199
881.493	21093
881.619	20956
881.746	21070
881.872	20956
881.999	20994
882.125	20963
882.252	21058
882.378	21039
882.505	21055
882.631	20891
882.757	20708
882.883	20716
883.01	20720
883.136	20632
883.262	20461
883.388	20606
883.514	20716
883.64	20807
883.766	20590
883.892	20575
884.018	20465
884.143	20579
884.269	20735
884.395	20434
884.52	20313
884.646	20385
884.772	20278
884.897	20214
885.023	20412
885.148	20377
885.274	20362
885.399	20526
885.524	20362
885.65	20419
885.775	20332
885.9	20278
886.025	20332
886.15	20233
886.275	20294
886.4	20214
886.525	20298
886.65	20218
886.775	20370
886.9	20320
887.025	20526
887.149	20206
887.274	20240
887.399	19921
887.523	19967
887.648	20096
887.773	20054
887.897	20138
888.021	20138
888.146	19993
888.27	20161
888.395	20218
888.519	20096
888.643	20214
888.767	20126
888.891	19944
889.015	19951
889.139	19925
889.263	19909
889.387	20077
889.511	20138
889.635	20031
889.759	19955
889.883	19932
890.006	19947
890.13	19909
890.254	19898
890.377	19864
890.501	19662
890.624	19674
890.748	19780
890.871	19594
890.995	19525
891.118	19468
891.241	19510
891.364	19491
891.488	19601
891.611	19480
891.734	19556
891.857	19567
891.98	19415
892.103	19510
892.226	19575
892.349	19480
892.471	19263
892.594	19544
892.717	19453
892.839	19502
892.962	19460
893.085	19468
893.207	19343
893.33	19190
893.452	19346
893.575	19400
893.697	19453
893.819	19506
893.941	19674
894.064	19594
894.186	19384
894.308	19434
894.43	19544
894.552	19624
894.674	19422
894.796	19304
894.918	19457
895.04	19384
895.161	19396
895.283	19460
895.405	19354
895.526	19559
895.648	19411
895.769	19514
895.891	19445
896.012	19514
896.134	19441
896.255	19506
896.376	19396
896.498	19449
896.619	19495
896.74	19320
896.861	19468
896.982	19704
897.103	19860
897.224	19765
897.345	19632
897.466	19605
897.587	19628
897.708	19757
897.828	19708
897.949	19533
898.07	19518
898.19	19582
898.311	19647
898.431	19605
898.552	19586
898.672	19685
898.792	19597
898.913	19590
899.033	19548
899.153	19460
899.273	19396
899.393	19377
899.513	19422
899.633	19384
899.753	19468
899.873	19422
899.993	19430
900.113	19453
900.232	19392
900.352	19430
900.472	19213
900.591	19213
900.711	19198
900.83	19088
900.95	19221
901.069	19289
901.189	19133
901.308	18890
901.427	18719
901.546	18798
901.665	18749
901.784	18829
901.904	18665
902.023	18673
902.141	18308
902.26	18361
902.379	18388
902.498	18376
902.617	18270
902.735	18391
902.854	18285
902.973	18315
903.091	18102
903.21	17939
903.328	18011
903.446	17882
903.565	17904
903.683	17786
903.801	17733
903.919	17722
904.038	17756
904.156	17634
904.274	17665
904.392	17539
904.51	17493
904.627	17509
904.745	17668
904.863	17661
904.981	17273
905.098	17345
905.216	17330
905.334	17349
905.451	17356
905.569	17147
905.686	17208
905.803	17227
905.921	17121
906.038	17079
906.155	17071
906.272	17029
906.389	16953
906.506	16847
906.623	16869
906.74	16797
906.857	16721
906.974	16774
907.091	16892
907.208	16923
907.324	16835
907.441	16706
907.557	16561
907.674	16489
907.79	16382
907.907	16535
908.023	16561
908.139	16558
908.256	16489
908.372	16512
908.488	16382
908.604	16261
908.72	16162
908.836	16192
908.952	16310
909.068	16200
909.184	16333
909.3	16268
909.415	16398
909.531	16234
909.647	16010
909.762	15964
909.878	16032
909.993	15975
910.108	16010
910.224	16017
910.339	15915
910.454	15895
910.57	15759
910.685	15709
910.8	16173
910.915	15968
911.03	15747
911.145	15755
911.259	15591
911.374	15618
911.489	15439
911.604	15408
911.718	15325
911.833	15401
911.947	15230
912.062	15146
912.176	15397
912.291	15428
912.405	15378
912.519	15618
912.633	15466
912.748	15374
912.862	15336
912.976	15161
913.09	15032
913.204	15173
913.318	15104
913.431	15173
913.545	15131
913.659	15218
913.772	15085
913.886	15020
914	14990
914.113	15039
914.226	14994
914.34	15020
914.453	14834
914.566	14921
914.68	14834
914.793	14838
914.906	14651
915.019	14499
915.132	14507
915.245	14575
915.358	14610
915.47	14564
915.583	14575
915.696	14636
915.809	14659
915.921	14648
916.034	14465
916.146	14473
916.259	14530
916.371	14545
916.483	14541
916.595	14434
916.708	14320
916.82	14446
916.932	14355
917.044	14408
917.156	14248
917.268	14233
917.38	14191
917.491	14237
917.603	14172
917.715	14351
917.826	14248
917.938	14180
918.049	14058
918.161	14199
918.272	14370
918.384	14358
918.495	14172
918.606	14069
918.717	13967
918.828	14005
918.939	14020
919.05	13864
919.161	14008
919.272	13887
919.383	13917
919.494	14161
919.604	14218
919.715	14039
919.826	13864
919.936	13913
920.047	14024
920.157	13982
920.267	14202
920.378	13921
920.488	13932
920.598	14149
920.708	14343
920.818	14103
920.928	14092
921.038	14259
921.148	14164
921.258	13978
921.368	13871
921.477	13753
921.587	13788
921.697	13578
921.806	13712
921.916	13552
922.025	13438
922.134	13392
922.244	13381
922.353	13525
922.462	13331
922.571	13118
922.68	13110
922.789	13057
922.898	13042
923.007	13008
923.116	13126
923.224	13072
923.333	12970
923.442	12943
923.55	12856
923.659	12920
923.767	12962
923.876	12768
923.984	12878
924.092	12776
924.201	12837
924.309	12806
924.417	12837
924.525	12673
924.633	12806
924.741	13693
924.849	12418
924.956	12601
925.064	12547
925.172	12437
925.279	12502
925.387	12479
925.494	12525
925.602	12639
925.709	12597
925.816	12372
925.924	12464
926.031	12551
926.138	12388
926.245	12475
926.352	12357
926.459	12517
926.566	12528
926.673	12285
926.779	12323
926.886	12216
926.993	12144
927.099	12057
927.206	12114
927.312	11999
927.419	12011
927.525	12049
927.631	12114
927.737	11821
927.843	11760
927.95	11722
928.056	11840
928.162	11904
928.267	11992
928.373	12372
928.479	11954
928.585	11764
928.69	11828
928.796	11798
928.901	11748
929.007	11672
929.112	11783
929.218	11748
929.323	11646
929.428	11653
929.533	11783
929.638	11623
929.743	11539
929.848	11646
929.953	11657
930.058	11509
930.163	11311
930.267	11379
930.372	11478
930.477	11273
930.581	11535
930.685	11425
930.79	11235
930.894	11296
930.998	11231
931.103	11341
931.207	11083
931.311	10866
931.415	10896
931.519	10668
931.623	10558
