Data from test_V78500241_94.txt Node
Date: Fri Mar 25 15:10:31 CST 2022
User: usil
Spectrometer: V785-0024
Trigger mode: 0
Integration Time (sec): 4.000000E-1
Scans to average: 1
Nonlinearity correction enabled: false
Boxcar width: 0
Storing dark spectrum: false
XAxis mode: Wavelengths
Number of Pixels in Spectrum: 1024
>>>>>Begin Spectral Data<<<<<
801.071	28284
801.214	28382
801.356	28070
801.499	28143
801.641	27747
801.783	27960
801.926	27850
802.068	27895
802.211	27743
802.353	27713
802.496	27572
802.638	27511
802.78	27412
802.923	27454
803.065	27310
803.208	27401
803.35	27473
803.492	27576
803.635	27698
803.777	27614
803.919	27694
804.061	27922
804.204	27549
804.346	27443
804.488	27462
804.63	27534
804.773	27389
804.915	27549
805.057	27759
805.199	27488
805.341	27625
805.483	27743
805.626	27568
805.768	27523
805.91	27633
806.052	27778
806.194	27466
806.336	27774
806.478	27751
806.62	27591
806.762	27838
806.904	27781
807.046	28074
807.188	28082
807.33	28059
807.472	28192
807.614	28010
807.756	27911
807.898	27918
808.04	27838
808.182	27720
808.324	27880
808.465	27861
808.607	27953
808.749	28055
808.891	28090
809.033	28207
809.174	28109
809.316	28116
809.458	27983
809.6	28147
809.741	28211
809.883	28154
810.025	28246
810.166	28299
810.308	28276
810.45	28462
810.591	28101
810.733	27979
810.875	28143
811.016	27975
811.158	27838
811.299	28147
811.441	28078
811.582	28120
811.724	28055
811.865	28143
812.007	28112
812.148	28040
812.29	28048
812.431	28363
812.573	28303
812.714	28417
812.855	28466
812.997	28637
813.138	28892
813.279	28618
813.421	28687
813.562	28550
813.703	28462
813.845	28242
813.986	27922
814.127	27850
814.268	27827
814.41	27823
814.551	27637
814.692	27736
814.833	27698
814.974	27629
815.115	27709
815.256	27488
815.397	27496
815.539	27557
815.68	27424
815.821	27264
815.962	27462
816.103	27397
816.244	27230
816.385	27112
816.526	27051
816.666	26940
816.807	26739
816.948	26899
817.089	26982
817.23	26815
817.371	26853
817.512	26796
817.653	26785
817.793	26712
817.934	26823
818.075	26823
818.216	26781
818.356	26602
818.497	26705
818.638	26431
818.778	26499
818.919	26446
819.06	26514
819.2	26571
819.341	26663
819.481	26697
819.622	26937
819.762	26986
819.903	26861
820.043	26777
820.184	26762
820.324	26891
820.465	26735
820.605	26762
820.746	26830
820.886	26659
821.026	26777
821.167	26834
821.307	26678
821.447	26811
821.588	26571
821.728	26423
821.868	26298
822.008	26271
822.149	26233
822.289	26176
822.429	26008
822.569	25928
822.709	25757
822.849	25769
822.99	25655
823.13	25540
823.27	25578
823.41	25350
823.55	25377
823.69	25438
823.83	25464
823.97	25464
824.11	25141
824.25	25190
824.389	25244
824.529	25244
824.669	25129
824.809	25152
824.949	25240
825.089	25213
825.228	25141
825.368	25027
825.508	25065
825.648	24981
825.787	24985
825.927	25057
826.067	25168
826.206	24829
826.346	25004
826.485	25050
826.625	25069
826.765	25088
826.904	25133
827.044	24700
827.183	24798
827.323	24650
827.462	24665
827.601	24764
827.741	24673
827.88	24677
828.02	24445
828.159	24639
828.298	24597
828.437	24783
828.577	24623
828.716	24764
828.855	24589
828.994	24342
829.134	24388
829.273	24391
829.412	24342
829.551	24277
829.69	24403
829.829	24342
829.968	24429
830.107	24460
830.246	24323
830.385	24232
830.524	24273
830.663	24064
830.802	23992
830.941	23984
831.08	23813
831.219	23889
831.357	23950
831.496	24205
831.635	23908
831.774	23802
831.913	23802
832.051	23741
832.19	23695
832.329	23657
832.467	23558
832.606	23661
832.744	23611
832.883	23417
833.022	23455
833.16	23486
833.299	23649
833.437	23653
833.576	23619
833.714	23592
833.852	23741
833.991	23615
834.129	23646
834.267	23627
834.406	23623
834.544	23573
834.682	23585
834.821	23630
834.959	23729
835.097	23459
835.235	23630
835.373	23452
835.511	23402
835.65	23337
835.788	23349
835.926	23204
836.064	23212
836.202	23265
836.34	23356
836.478	23379
836.615	23292
836.753	23444
836.891	23269
837.029	23406
837.167	23299
837.305	23242
837.443	23109
837.58	23208
837.718	23277
837.856	23273
837.993	23197
838.131	23159
838.269	23147
838.406	23048
838.544	22984
838.681	22896
838.819	22938
838.956	22641
839.094	22683
839.231	22710
839.369	22976
839.506	23048
839.643	22797
839.781	22607
839.918	22573
840.055	22653
840.193	22634
840.33	22527
840.467	22519
840.604	22512
840.742	22752
840.879	22375
841.016	22455
841.153	22428
841.29	22580
841.427	22424
841.564	22656
841.701	22516
841.838	22455
841.975	22417
842.112	22402
842.249	22417
842.385	22131
842.522	22390
842.659	22257
842.796	22291
842.933	22242
843.069	22188
843.206	22029
843.343	22188
843.479	22246
843.616	22249
843.752	21975
843.889	22097
844.025	22044
844.162	22067
844.298	22082
844.435	21816
844.571	21953
844.708	21998
844.844	22116
844.98	21930
845.117	22078
845.253	21880
845.389	21759
845.525	21880
845.661	21778
845.798	21694
845.934	21694
846.07	21660
846.206	21614
846.342	21778
846.478	21545
846.614	21519
846.75	21408
846.886	21306
847.022	21557
847.158	21439
847.294	21420
847.429	21355
847.565	21237
847.701	21633
847.837	21089
847.972	21055
848.108	21272
848.244	21241
848.379	21036
848.515	20914
848.65	20971
848.786	20914
848.921	20929
849.057	21112
849.192	21036
849.328	21127
849.463	20944
849.598	20819
849.734	20811
849.869	20853
850.004	20746
850.14	20826
850.275	20693
850.41	20541
850.545	20640
850.68	20670
850.815	20663
850.95	20640
851.085	20899
851.22	20811
851.355	20716
851.49	20754
851.625	20632
851.76	20632
851.895	20655
852.03	20575
852.165	20663
852.299	20598
852.434	20727
852.569	20632
852.703	20655
852.838	20758
852.973	20800
853.107	20769
853.242	20640
853.376	20590
853.511	20408
853.645	20484
853.78	20655
853.914	20617
854.048	20476
854.183	20438
854.317	20488
854.451	20648
854.585	20518
854.72	20446
854.854	20495
854.988	20309
855.122	20503
855.256	20412
855.39	20522
855.524	20655
855.658	20461
855.792	20556
855.926	20442
856.06	20450
856.194	20674
856.327	20514
856.461	20549
856.595	20480
856.729	20374
856.862	20579
856.996	20473
857.13	20564
857.263	20545
857.397	20476
857.53	20454
857.664	20362
857.797	20507
857.931	20613
858.064	20507
858.197	20575
858.331	20427
858.464	20336
858.597	20298
858.731	20358
858.864	20332
858.997	20446
859.13	20404
859.263	20317
859.396	20575
859.529	20381
859.662	20381
859.795	20423
859.928	20404
860.061	20461
860.194	20609
860.327	20355
860.46	20290
860.592	20560
860.725	20556
860.858	20442
860.99	20343
861.123	20263
861.256	20282
861.388	20438
861.521	20998
861.653	20336
861.786	20275
861.918	20347
862.05	20377
862.183	20442
862.315	20294
862.447	20476
862.58	20438
862.712	20183
862.844	20153
862.976	20244
863.108	20244
863.24	20575
863.372	20027
863.504	20122
863.636	20180
863.768	20168
863.9	20103
864.032	20024
864.164	20024
864.296	20088
864.428	20183
864.559	20275
864.691	20187
864.823	20263
864.954	20157
865.086	20111
865.217	19993
865.349	19970
865.48	19967
865.612	19963
865.743	20134
865.875	19917
866.006	19997
866.137	20035
866.269	20062
866.4	19940
866.531	19959
866.662	19997
866.793	19845
866.924	20005
867.055	19997
867.186	19944
867.317	19936
867.448	19811
867.579	19932
867.71	19803
867.841	19795
867.972	20062
868.103	19955
868.233	19989
868.364	19997
868.495	20081
868.625	20267
868.756	20142
868.886	20107
869.017	20240
869.147	20259
869.278	20263
869.408	20202
869.539	20130
869.669	20221
869.799	20229
869.929	20248
870.06	20256
870.19	20495
870.32	20465
870.45	20431
870.58	20465
870.71	20693
870.84	20632
870.97	20480
871.1	20545
871.23	20651
871.36	20819
871.489	20659
871.619	20655
871.749	20906
871.879	20762
872.008	20914
872.138	20651
872.267	20800
872.397	20613
872.526	20621
872.656	20606
872.785	20526
872.915	20804
873.044	20880
873.173	20826
873.303	20933
873.432	20792
873.561	20785
873.69	20788
873.819	20765
873.948	20834
874.077	20781
874.206	20735
874.335	20845
874.464	20849
874.593	21043
874.722	20986
874.851	21032
874.979	21039
875.108	21131
875.237	21066
875.365	21039
875.494	20887
875.623	21051
875.751	21024
875.88	21020
876.008	21192
876.136	21241
876.265	21336
876.393	21679
876.521	21462
876.65	21466
876.778	21507
876.906	21150
877.034	21348
877.162	21310
877.29	21367
877.418	21435
877.546	21370
877.674	21336
877.802	21431
877.93	21412
878.058	21389
878.185	21188
878.313	21317
878.441	21317
878.568	21211
878.696	21283
878.824	21355
878.951	21469
879.079	21561
879.206	21660
879.333	21401
879.461	21416
879.588	21534
879.715	21564
879.842	21587
879.97	21435
880.097	21192
880.224	21173
880.351	21165
880.478	21256
880.605	21176
880.732	21241
880.859	21466
880.986	21214
881.112	21325
881.239	20986
881.366	20952
881.493	20826
881.619	20834
881.746	20796
881.872	20769
881.999	20857
882.125	20777
882.252	20765
882.378	20773
882.505	20998
882.631	20644
882.757	20617
882.883	20689
883.01	20556
883.136	20526
883.262	20446
883.388	20362
883.514	20530
883.64	20492
883.766	20488
883.892	20461
884.018	20301
884.143	20495
884.269	20545
884.395	20317
884.52	20180
884.646	20278
884.772	20062
884.897	20069
885.023	20115
885.148	20168
885.274	20328
885.399	20305
885.524	20130
885.65	20164
885.775	20187
885.9	20214
886.025	20282
886.15	20271
886.275	20187
886.4	20157
886.525	20130
886.65	20145
886.775	20180
886.9	20332
887.025	20484
887.149	20088
887.274	20001
887.399	19913
887.523	19978
887.648	19883
887.773	19913
887.897	20050
888.021	19932
888.146	19856
888.27	19940
888.395	20107
888.519	20027
888.643	19936
888.767	19963
888.891	19795
889.015	19738
889.139	19693
889.263	19639
889.387	19849
889.511	19963
889.635	19887
889.759	19750
889.883	19731
890.006	19647
890.13	19803
890.254	19655
890.377	19628
890.501	19480
890.624	19571
890.748	19476
890.871	19476
890.995	19324
891.118	19266
891.241	19297
891.364	19381
891.488	19480
891.611	19365
891.734	19263
891.857	19441
891.98	19274
892.103	19403
892.226	19324
892.349	19266
892.471	19095
892.594	19228
892.717	19308
892.839	19190
892.962	19156
893.085	19289
893.207	19301
893.33	19141
893.452	19164
893.575	19301
893.697	19225
893.819	19411
893.941	19362
894.064	19282
894.186	19194
894.308	19122
894.43	19400
894.552	19407
894.674	19259
894.796	19202
894.918	19225
895.04	19190
895.161	19240
895.283	19137
895.405	19232
895.526	19206
895.648	19301
895.769	19335
895.891	19270
896.012	19343
896.134	19354
896.255	19232
896.376	19407
896.498	19297
896.619	19369
896.74	19289
896.861	19297
896.982	19597
897.103	19776
897.224	19571
897.345	19460
897.466	19506
897.587	19544
897.708	19632
897.828	19426
897.949	19468
898.07	19221
898.19	19430
898.311	19628
898.431	19411
898.552	19502
898.672	19563
898.792	19544
898.913	19430
899.033	19388
899.153	19206
899.273	19206
899.393	19221
899.513	19278
899.633	19240
899.753	19202
899.873	19095
899.993	19236
900.113	19183
900.232	19148
900.352	19126
900.472	19034
900.591	18985
900.711	19152
900.83	18920
900.95	19126
901.069	19080
901.189	18928
901.308	18673
901.427	18532
901.546	18642
901.665	18650
901.784	18646
901.904	18521
902.023	18365
902.141	18155
902.26	18114
902.379	18182
902.498	18159
902.617	18022
902.735	18182
902.854	18140
902.973	17973
903.091	17805
903.21	17726
903.328	17821
903.446	17779
903.565	17600
903.683	17611
903.801	17478
903.919	17585
904.038	17535
904.156	17410
904.274	17589
904.392	17345
904.51	17376
904.627	17341
904.745	17379
904.863	17353
904.981	17159
905.098	16980
905.216	17128
905.334	17113
905.451	17071
905.569	17033
905.686	17045
905.803	17079
905.921	16877
906.038	16938
906.155	16930
906.272	16706
906.389	16809
906.506	16573
906.623	16618
906.74	16569
906.857	16569
906.974	16470
907.091	16660
907.208	16687
907.324	16577
907.441	16466
907.557	16443
907.674	16234
907.79	16287
907.907	16280
908.023	16188
908.139	16238
908.256	16154
908.372	16177
908.488	16059
908.604	16017
908.72	15915
908.836	15888
908.952	15854
909.068	15979
909.184	16093
909.3	15941
909.415	15979
909.531	15968
909.647	15648
909.762	15580
909.878	15633
909.993	15751
910.108	15625
910.224	15660
910.339	15652
910.454	15603
910.57	15325
910.685	15382
910.8	15739
910.915	15701
911.03	15492
911.145	15241
911.259	15302
911.374	15211
911.489	15233
911.604	15123
911.718	14998
911.833	14960
911.947	14872
912.062	14746
912.176	14952
912.291	14971
912.405	14933
912.519	15165
912.633	15222
912.748	15005
912.862	14914
912.976	14804
913.09	14731
913.204	14724
913.318	14830
913.431	14868
913.545	14826
913.659	14937
913.772	14746
913.886	14712
914	14518
914.113	14712
914.226	14686
914.34	14724
914.453	14541
914.566	14746
914.68	14541
914.793	14568
914.906	14332
915.019	14355
915.132	14157
915.245	14290
915.358	14305
915.47	14305
915.583	14271
915.696	14347
915.809	14374
915.921	14454
916.034	14191
916.146	14149
916.259	14126
916.371	14259
916.483	14145
916.595	14149
916.708	14119
916.82	13993
916.932	14168
917.044	14161
917.156	14046
917.268	13944
917.38	14012
917.491	13951
917.603	13989
917.715	14058
917.826	14062
917.938	13868
918.049	13769
918.161	13860
918.272	14058
918.384	14050
918.495	14001
918.606	13761
918.717	13681
918.828	13811
918.939	13712
919.05	13639
919.161	13723
919.272	13567
919.383	13529
919.494	13700
919.604	13936
919.715	13734
919.826	13632
919.936	13662
920.047	13788
920.157	13677
920.267	13799
920.378	13753
920.488	13681
920.598	13719
920.708	13849
920.818	13753
920.928	13799
921.038	13967
921.148	13970
921.258	13575
921.368	13571
921.477	13407
921.587	13339
921.697	13202
921.806	13400
921.916	13308
922.025	13069
922.134	13126
922.244	13034
922.353	13099
922.462	12913
922.571	12837
922.68	12696
922.789	12684
922.898	12681
923.007	12722
923.116	12700
923.224	12692
923.333	12707
923.442	12582
923.55	12414
923.659	12540
923.767	12570
923.876	12525
923.984	12464
924.092	12525
924.201	12502
924.309	12479
924.417	12467
924.525	12407
924.633	12342
924.741	13232
924.849	12216
924.956	12372
925.064	12292
925.172	12095
925.279	12178
925.387	12220
925.494	12106
925.602	12216
925.709	12228
925.816	12102
925.924	12072
926.031	12239
926.138	12152
926.245	12110
926.352	12034
926.459	12190
926.566	12167
926.673	11999
926.779	11920
926.886	11939
926.993	11794
927.099	11726
927.206	11642
927.312	11680
927.419	11794
927.525	11767
927.631	11832
927.737	11760
927.843	11642
927.95	11478
928.056	11581
928.162	11623
928.267	11630
928.373	12171
928.479	11668
928.585	11448
928.69	11585
928.796	11592
928.901	11490
929.007	11353
929.112	11429
929.218	11467
929.323	11353
929.428	11341
929.533	11501
929.638	11345
929.743	11235
929.848	11303
929.953	11315
930.058	11136
930.163	10930
930.267	11022
930.372	11136
930.477	11003
930.581	11166
930.685	11067
930.79	10896
930.894	10942
930.998	10904
931.103	11079
931.207	10645
931.311	10592
931.415	10474
931.519	10363
931.623	10348
