Data from test_V78500241_1794.txt Node
Date: Fri Mar 25 15:22:20 CST 2022
User: usil
Spectrometer: V785-0024
Trigger mode: 0
Integration Time (sec): 4.000000E-1
Scans to average: 1
Nonlinearity correction enabled: false
Boxcar width: 0
Storing dark spectrum: false
XAxis mode: Wavelengths
Number of Pixels in Spectrum: 1024
>>>>>Begin Spectral Data<<<<<
801.071	27823
801.214	27747
801.356	27583
801.499	27538
801.641	27348
801.783	27439
801.926	27294
802.068	27435
802.211	27439
802.353	27249
802.496	27096
802.638	27074
802.78	26963
802.923	26998
803.065	26940
803.208	26925
803.35	26876
803.492	27127
803.635	27146
803.777	27036
803.919	27329
804.061	27682
804.204	27374
804.346	27070
804.488	27108
804.63	27192
804.773	27233
804.915	27256
805.057	27382
805.199	27199
805.341	27116
805.483	27454
805.626	27435
805.768	27154
805.91	27226
806.052	27329
806.194	27237
806.336	27515
806.478	27424
806.62	27348
806.762	27408
806.904	27534
807.046	27755
807.188	27823
807.33	27789
807.472	27743
807.614	27713
807.756	27854
807.898	27515
808.04	27572
808.182	27519
808.324	27701
808.465	27679
808.607	27983
808.749	27930
808.891	28055
809.033	28173
809.174	28154
809.316	27983
809.458	27975
809.6	28006
809.741	28036
809.883	28063
810.025	28284
810.166	28109
810.308	28253
810.45	28181
810.591	28067
810.733	27960
810.875	27835
811.016	27914
811.158	27831
811.299	27964
811.441	28044
811.582	28105
811.724	27823
811.865	27770
812.007	27918
812.148	27998
812.29	27972
812.431	28101
812.573	28276
812.714	28367
812.855	28390
812.997	28550
813.138	28702
813.279	28721
813.421	28504
813.562	28310
813.703	28223
813.845	28070
813.986	27911
814.127	27701
814.268	27656
814.41	27595
814.551	27523
814.692	27614
814.833	27553
814.974	27397
815.115	27561
815.256	27427
815.397	27397
815.539	27431
815.68	27363
815.821	27298
815.962	27485
816.103	27386
816.244	27287
816.385	27237
816.526	27104
816.666	26940
816.807	26819
816.948	27051
817.089	27074
817.23	26807
817.371	26929
817.512	26872
817.653	27051
817.793	26838
817.934	26857
818.075	26815
818.216	26906
818.356	26800
818.497	26834
818.638	26667
818.778	26663
818.919	26773
819.06	26739
819.2	26857
819.341	26811
819.481	26960
819.622	27001
819.762	27081
819.903	27176
820.043	27043
820.184	27009
820.324	26979
820.465	27017
820.605	27028
820.746	26975
820.886	26937
821.026	27028
821.167	27081
821.307	27161
821.447	26975
821.588	26655
821.728	26636
821.868	26522
822.008	26484
822.149	26374
822.289	26389
822.429	26103
822.569	26130
822.709	26001
822.849	26031
822.99	25871
823.13	25769
823.27	25917
823.41	25734
823.55	25605
823.69	25803
823.83	25734
823.97	25708
824.11	25476
824.25	25384
824.389	25582
824.529	25689
824.669	25544
824.809	25696
824.949	25590
825.089	25548
825.228	25605
825.368	25457
825.508	25308
825.648	25381
825.787	25460
825.927	25556
826.067	25346
826.206	25274
826.346	25464
826.485	25407
826.625	25377
826.765	25449
826.904	25362
827.044	25266
827.183	25129
827.323	25171
827.462	25175
827.601	25206
827.741	25160
827.88	25069
828.02	25027
828.159	25126
828.298	25080
828.437	25126
828.577	24985
828.716	25369
828.855	25107
828.994	24935
829.134	24814
829.273	24863
829.412	24867
829.551	24749
829.69	24719
829.829	24924
829.968	25034
830.107	24928
830.246	24719
830.385	24760
830.524	24665
830.663	24658
830.802	24601
830.941	24509
831.08	24445
831.219	24623
831.357	24414
831.496	24661
831.635	24479
831.774	24300
831.913	24418
832.051	24289
832.19	24205
832.329	24304
832.467	24003
832.606	24125
832.744	24041
832.883	24098
833.022	24140
833.16	24068
833.299	24155
833.437	24155
833.576	24155
833.714	24091
833.852	24273
833.991	24266
834.129	24292
834.267	24361
834.406	24251
834.544	24155
834.682	24239
834.821	24091
834.959	24365
835.097	24060
835.235	24201
835.373	24182
835.511	24182
835.65	24205
835.788	24083
835.926	23950
836.064	23882
836.202	23828
836.34	23961
836.478	24262
836.615	23908
836.753	24034
836.891	24121
837.029	24057
837.167	24190
837.305	24018
837.443	23935
837.58	23859
837.718	23923
837.856	23912
837.993	23741
838.131	23741
838.269	23916
838.406	23908
838.544	23760
838.681	23455
838.819	23577
838.956	23402
839.094	23395
839.231	23364
839.369	23512
839.506	23851
839.643	23630
839.781	23490
839.918	23204
840.055	23311
840.193	23273
840.33	23239
840.467	23452
840.604	23307
840.742	23566
840.879	23075
841.016	23181
841.153	23102
841.29	23391
841.427	23330
841.564	23337
841.701	23212
841.838	23216
841.975	23239
842.112	23094
842.249	23121
842.385	23052
842.522	23155
842.659	23067
842.796	22987
842.933	23124
843.069	23136
843.206	22919
843.343	23162
843.479	23098
843.616	22938
843.752	22790
843.889	22881
844.025	22953
844.162	22904
844.298	22873
844.435	22771
844.571	22744
844.708	22881
844.844	22999
844.98	23067
845.117	22847
845.253	22797
845.389	22694
845.525	22710
845.661	22725
845.798	22557
845.934	22538
846.07	22535
846.206	22626
846.342	22565
846.478	22546
846.614	22314
846.75	22306
846.886	22200
847.022	22398
847.158	22356
847.294	22310
847.429	22322
847.565	22173
847.701	22615
847.837	21899
847.972	21960
848.108	22105
848.244	22036
848.379	21876
848.515	21880
848.65	21956
848.786	21884
848.921	21903
849.057	21960
849.192	21949
849.328	22055
849.463	21960
849.598	21861
849.734	21732
849.869	21747
850.004	21835
850.14	21690
850.275	21637
850.41	21595
850.545	21679
850.68	21663
850.815	21709
850.95	21618
851.085	21869
851.22	21785
851.355	21720
851.49	21633
851.625	21663
851.76	21538
851.895	21485
852.03	21599
852.165	21447
852.299	21656
852.434	21686
852.569	21717
852.703	21644
852.838	21717
852.973	21728
853.107	21762
853.242	21595
853.376	21572
853.511	21443
853.645	21374
853.78	21652
853.914	21568
854.048	21412
854.183	21382
854.317	21420
854.451	21633
854.585	21500
854.72	21443
854.854	21568
854.988	21591
855.122	21397
855.256	21294
855.39	21408
855.524	21507
855.658	21511
855.792	21435
855.926	21389
856.06	21477
856.194	21603
856.327	21435
856.461	21401
856.595	21294
856.729	21462
856.862	21561
856.996	21405
857.13	21534
857.263	21504
857.397	21386
857.53	21428
857.664	21431
857.797	21545
857.931	21568
858.064	21412
858.197	21450
858.331	21389
858.464	21447
858.597	21264
858.731	21420
858.864	21485
858.997	21363
859.13	21443
859.263	21435
859.396	21492
859.529	21439
859.662	21447
859.795	21431
859.928	21523
860.061	21583
860.194	21526
860.327	21530
860.46	21488
860.592	21583
860.725	21739
860.858	21549
860.99	21447
861.123	21344
861.256	21454
861.388	21428
861.521	22219
861.653	21211
861.786	21138
861.918	21169
862.05	21363
862.183	21348
862.315	21511
862.447	21424
862.58	21443
862.712	21207
862.844	21070
862.976	21321
863.108	21214
863.24	21488
863.372	21252
863.504	21165
863.636	21218
863.768	21051
863.9	21055
864.032	21081
864.164	21047
864.296	21256
864.428	21211
864.559	21161
864.691	21279
864.823	21165
864.954	21108
865.086	21165
865.217	21135
865.349	21020
865.48	21070
865.612	21036
865.743	21165
865.875	21089
866.006	21032
866.137	21146
866.269	20842
866.4	20963
866.531	21066
866.662	21112
866.793	20937
866.924	20982
867.055	21058
867.186	20975
867.317	20956
867.448	20921
867.579	20880
867.71	20933
867.841	20872
867.972	20975
868.103	20952
868.233	21032
868.364	21066
868.495	21028
868.625	21161
868.756	21264
868.886	21188
869.017	21173
869.147	21351
869.278	21435
869.408	21252
869.539	21142
869.669	21325
869.799	21382
869.929	21336
870.06	21351
870.19	21507
870.32	21545
870.45	21488
870.58	21580
870.71	21694
870.84	21728
870.97	21625
871.1	21580
871.23	21835
871.36	21823
871.489	21812
871.619	21759
871.749	21781
871.879	21709
872.008	21918
872.138	21800
872.267	21823
872.397	21736
872.526	21766
872.656	21622
872.785	21637
872.915	21850
873.044	21865
873.173	21884
873.303	21854
873.432	21873
873.561	22017
873.69	21937
873.819	21884
873.948	21937
874.077	21926
874.206	21850
874.335	21732
874.464	21926
874.593	21842
874.722	21964
874.851	22067
874.979	22147
875.108	22051
875.237	21918
875.365	21956
875.494	22074
875.623	21975
875.751	21972
875.88	22010
876.008	22291
876.136	22261
876.265	22485
876.393	22497
876.521	22474
876.65	22523
876.778	22436
876.906	22379
877.034	22421
877.162	22382
877.29	22462
877.418	22462
877.546	22493
877.674	22398
877.802	22443
877.93	22451
878.058	22356
878.185	22287
878.313	22443
878.441	22306
878.568	22242
878.696	22303
878.824	22398
878.951	22432
879.079	22615
879.206	22679
879.333	22615
879.461	22405
879.588	22485
879.715	22474
879.842	22603
879.97	22424
880.097	22276
880.224	22272
880.351	22234
880.478	22238
880.605	22234
880.732	22257
880.859	22516
880.986	22238
881.112	22211
881.239	22139
881.366	21934
881.493	21895
881.619	21857
881.746	21975
881.872	21823
881.999	21781
882.125	21850
882.252	21831
882.378	21762
882.505	21888
882.631	21709
882.757	21610
882.883	21603
883.01	21625
883.136	21481
883.262	21386
883.388	21420
883.514	21416
883.64	21473
883.766	21405
883.892	21321
884.018	21272
884.143	21428
884.269	21553
884.395	21230
884.52	21005
884.646	21135
884.772	21001
884.897	21077
885.023	21222
885.148	21302
885.274	21310
885.399	21230
885.524	21127
885.65	21100
885.775	21157
885.9	21157
886.025	21241
886.15	21195
886.275	21089
886.4	21127
886.525	21157
886.65	21036
886.775	21127
886.9	21226
887.025	21359
887.149	21154
887.274	20895
887.399	20861
887.523	20937
887.648	20800
887.773	20876
887.897	20967
888.021	20895
888.146	20823
888.27	20914
888.395	20967
888.519	20979
888.643	20895
888.767	20941
888.891	20819
889.015	20765
889.139	20686
889.263	20716
889.387	20906
889.511	20906
889.635	20811
889.759	20659
889.883	20712
890.006	20693
890.13	20804
890.254	20727
890.377	20575
890.501	20347
890.624	20400
890.748	20446
890.871	20366
890.995	20221
891.118	20225
891.241	20275
891.364	20214
891.488	20328
891.611	20317
891.734	20317
891.857	20461
891.98	20339
892.103	20324
892.226	20259
892.349	20180
892.471	20149
892.594	20161
892.717	20252
892.839	20115
892.962	20229
893.085	20244
893.207	20191
893.33	20027
893.452	20122
893.575	20225
893.697	20134
893.819	20286
893.941	20370
894.064	20313
894.186	20115
894.308	20134
894.43	20267
894.552	20423
894.674	20290
894.796	20145
894.918	20103
895.04	20058
895.161	20206
895.283	20142
895.405	20176
895.526	20240
895.648	20115
895.769	20221
895.891	20214
896.012	20332
896.134	20305
896.255	20199
896.376	20039
896.498	20065
896.619	20199
896.74	20081
896.861	20199
896.982	20434
897.103	20568
897.224	20377
897.345	20473
897.466	20381
897.587	20347
897.708	20564
897.828	20446
897.949	20244
898.07	20259
898.19	20343
898.311	20549
898.431	20377
898.552	20332
898.672	20427
898.792	20488
898.913	20362
899.033	20278
899.153	20191
899.273	20054
899.393	20176
899.513	20172
899.633	20214
899.753	20081
899.873	20107
899.993	20122
900.113	20027
900.232	20054
900.352	20111
900.472	19871
900.591	19860
900.711	19940
900.83	19925
900.95	19917
901.069	19963
901.189	19765
901.308	19540
901.427	19445
901.546	19502
901.665	19449
901.784	19559
901.904	19415
902.023	19297
902.141	19171
902.26	18966
902.379	19088
902.498	19027
902.617	19000
902.735	19088
902.854	18977
902.973	18916
903.091	18757
903.21	18741
903.328	18711
903.446	18635
903.565	18547
903.683	18346
903.801	18323
903.919	18418
904.038	18475
904.156	18266
904.274	18273
904.392	18171
904.51	18266
904.627	18365
904.745	18296
904.863	18239
904.981	17973
905.098	18011
905.216	17942
905.334	17973
905.451	17984
905.569	17847
905.686	17961
905.803	17897
905.921	17707
906.038	17805
906.155	17817
906.272	17638
906.389	17703
906.506	17570
906.623	17471
906.74	17436
906.857	17353
906.974	17425
907.091	17539
907.208	17532
907.324	17505
907.441	17197
907.557	17193
907.674	17220
907.79	17048
907.907	17067
908.023	17178
908.139	17124
908.256	17071
908.372	17037
908.488	16972
908.604	16991
908.72	16824
908.836	16942
908.952	16869
909.068	16900
909.184	16862
909.3	16919
909.415	16984
909.531	16877
909.647	16626
909.762	16607
909.878	16569
909.993	16538
910.108	16542
910.224	16443
910.339	16527
910.454	16417
910.57	16455
910.685	16272
910.8	16717
910.915	16599
911.03	16405
911.145	16265
911.259	16211
911.374	16211
911.489	16162
911.604	16059
911.718	15915
911.833	15869
911.947	15736
912.062	15800
912.176	15865
912.291	15827
912.405	15960
912.519	16074
912.633	16139
912.748	15934
912.862	15846
912.976	15739
913.09	15622
913.204	15675
913.318	15781
913.431	15800
913.545	15819
913.659	15915
913.772	15663
913.886	15633
914	15564
914.113	15698
914.226	15614
914.34	15545
914.453	15545
914.566	15534
914.68	15454
914.793	15367
914.906	15169
915.019	15081
915.132	15024
915.245	15165
915.358	15127
915.47	15142
915.583	15199
915.696	15138
915.809	15336
915.921	15287
916.034	15157
916.146	14986
916.259	15123
916.371	15104
916.483	15024
916.595	14967
916.708	15009
916.82	15043
916.932	14914
917.044	14864
917.156	14857
917.268	14861
917.38	14826
917.491	14773
917.603	14815
917.715	14872
917.826	14990
917.938	14701
918.049	14663
918.161	14720
918.272	14895
918.384	14899
918.495	14769
918.606	14625
918.717	14564
918.828	14617
918.939	14590
919.05	14507
919.161	14575
919.272	14362
919.383	14431
919.494	14492
919.604	14636
919.715	14613
919.826	14457
919.936	14492
920.047	14636
920.157	14499
920.267	14735
920.378	14545
920.488	14533
920.598	14731
920.708	14853
920.818	14636
920.928	14712
921.038	14804
921.148	14800
921.258	14457
921.368	14374
921.477	14267
921.587	14240
921.697	14084
921.806	14309
921.916	14050
922.025	13947
922.134	13909
922.244	13746
922.353	13936
922.462	13818
922.571	13761
922.68	13548
922.789	13552
922.898	13559
923.007	13403
923.116	13525
923.224	13529
923.333	13521
923.442	13384
923.55	13346
923.659	13411
923.767	13506
923.876	13316
923.984	13400
924.092	13388
924.201	13304
924.309	13278
924.417	13377
924.525	13175
924.633	13152
924.741	14157
924.849	12951
924.956	13114
925.064	13031
925.172	12886
925.279	12890
925.387	12939
925.494	12939
925.602	13076
925.709	12996
925.816	12932
925.924	12920
926.031	12962
926.138	12871
926.245	12939
926.352	12749
926.459	12848
926.566	13031
926.673	12859
926.779	12738
926.886	12700
926.993	12547
927.099	12578
927.206	12540
927.312	12498
927.419	12597
927.525	12574
927.631	12536
927.737	12464
927.843	12300
927.95	12315
928.056	12452
928.162	12365
928.267	12311
928.373	13050
928.479	12357
928.585	12262
928.69	12311
928.796	12357
928.901	12216
929.007	12114
929.112	12235
929.218	12216
929.323	12076
929.428	12167
929.533	12163
929.638	12019
929.743	12076
929.848	12015
929.953	11973
930.058	11980
930.163	11813
930.267	11817
930.372	11954
930.477	11634
930.581	11980
930.685	11752
930.79	11665
930.894	11638
930.998	11551
931.103	11691
931.207	11391
931.311	11303
931.415	11258
931.519	10953
931.623	10999
