Data from test_V78500241_1890.txt Node
Date: Fri Mar 25 15:23:00 CST 2022
User: usil
Spectrometer: V785-0024
Trigger mode: 0
Integration Time (sec): 4.000000E-1
Scans to average: 1
Nonlinearity correction enabled: false
Boxcar width: 0
Storing dark spectrum: false
XAxis mode: Wavelengths
Number of Pixels in Spectrum: 1024
>>>>>Begin Spectral Data<<<<<
801.071	27793
801.214	27755
801.356	27389
801.499	27359
801.641	27344
801.783	27389
801.926	27344
802.068	27401
802.211	27351
802.353	27184
802.496	27070
802.638	26971
802.78	26990
802.923	26876
803.065	26868
803.208	26830
803.35	26956
803.492	27192
803.635	27058
803.777	26963
803.919	27100
804.061	27374
804.204	27043
804.346	27131
804.488	27024
804.63	27199
804.773	27138
804.915	27207
805.057	27245
805.199	27062
805.341	27157
805.483	27291
805.626	27397
805.768	27199
805.91	27252
806.052	27256
806.194	27260
806.336	27386
806.478	27355
806.62	27351
806.762	27359
806.904	27633
807.046	27789
807.188	27587
807.33	27610
807.472	27591
807.614	27587
807.756	27610
807.898	27507
808.04	27370
808.182	27427
808.324	27534
808.465	27538
808.607	27743
808.749	27774
808.891	28109
809.033	27808
809.174	27930
809.316	27895
809.458	27945
809.6	27770
809.741	28013
809.883	28010
810.025	28109
810.166	28158
810.308	28109
810.45	28158
810.591	28139
810.733	27926
810.875	27960
811.016	27869
811.158	27880
811.299	27945
811.441	27762
811.582	27911
811.724	27865
811.865	27918
812.007	27926
812.148	27831
812.29	27994
812.431	28063
812.573	28162
812.714	28196
812.855	28394
812.997	28409
813.138	28508
813.279	28386
813.421	28432
813.562	28325
813.703	28196
813.845	28177
813.986	27690
814.127	27720
814.268	27549
814.41	27671
814.551	27591
814.692	27599
814.833	27523
814.974	27507
815.115	27595
815.256	27466
815.397	27397
815.539	27469
815.68	27321
815.821	27408
815.962	27424
816.103	27264
816.244	27287
816.385	27138
816.526	27214
816.666	27005
816.807	26765
816.948	26849
817.089	26960
817.23	26883
817.371	26857
817.512	26891
817.653	26842
817.793	26648
817.934	26758
818.075	26819
818.216	26948
818.356	26746
818.497	26537
818.638	26526
818.778	26552
818.919	26537
819.06	26636
819.2	26648
819.341	26834
819.481	26819
819.622	27001
819.762	27093
819.903	27039
820.043	26994
820.184	26921
820.324	26902
820.465	26933
820.605	26952
820.746	27047
820.886	26796
821.026	27028
821.167	26876
821.307	27020
821.447	26823
821.588	26613
821.728	26583
821.868	26461
822.008	26332
822.149	26149
822.289	26263
822.429	26020
822.569	25993
822.709	26012
822.849	25670
822.99	25757
823.13	25765
823.27	25784
823.41	25613
823.55	25499
823.69	25769
823.83	25765
823.97	25620
824.11	25552
824.25	25525
824.389	25510
824.529	25457
824.669	25575
824.809	25628
824.949	25487
825.089	25339
825.228	25525
825.368	25228
825.508	25339
825.648	25297
825.787	25168
825.927	25449
826.067	25335
826.206	25251
826.346	25396
826.485	25297
826.625	25206
826.765	25571
826.904	25320
827.044	25122
827.183	25152
827.323	24985
827.462	25084
827.601	24973
827.741	25034
827.88	25031
828.02	24833
828.159	24939
828.298	25065
828.437	25129
828.577	24916
828.716	25270
828.855	24882
828.994	24810
829.134	24810
829.273	24779
829.412	24806
829.551	24757
829.69	24711
829.829	24768
829.968	24913
830.107	24814
830.246	24791
830.385	24711
830.524	24669
830.663	24563
830.802	24570
830.941	24426
831.08	24365
831.219	24475
831.357	24445
831.496	24646
831.635	24486
831.774	24388
831.913	24300
832.051	24186
832.19	24232
832.329	24300
832.467	24095
832.606	23946
832.744	24106
832.883	23939
833.022	24011
833.16	24190
833.299	24155
833.437	24178
833.576	24254
833.714	24270
833.852	24140
833.991	24380
834.129	24277
834.267	24281
834.406	24239
834.544	24224
834.682	24076
834.821	24148
834.959	24125
835.097	24136
835.235	24213
835.373	24262
835.511	24140
835.65	23996
835.788	23904
835.926	23897
836.064	23748
836.202	23863
836.34	23942
836.478	24053
836.615	24034
836.753	23931
836.891	24102
837.029	23935
837.167	23931
837.305	23855
837.443	23855
837.58	23722
837.718	23908
837.856	23855
837.993	23680
838.131	23847
838.269	23707
838.406	23832
838.544	23691
838.681	23414
838.819	23433
838.956	23307
839.094	23429
839.231	23421
839.369	23429
839.506	23741
839.643	23531
839.781	23452
839.918	23330
840.055	23330
840.193	23204
840.33	23242
840.467	23258
840.604	23334
840.742	23558
840.879	23083
841.016	23109
841.153	22949
841.29	23345
841.427	23200
841.564	23254
841.701	23250
841.838	23159
841.975	23083
842.112	23223
842.249	22949
842.385	22824
842.522	23124
842.659	23079
842.796	22885
842.933	22953
843.069	22862
843.206	22824
843.343	22946
843.479	22968
843.616	22915
843.752	22736
843.889	22805
844.025	22816
844.162	22771
844.298	22729
844.435	22710
844.571	22710
844.708	22820
844.844	22873
844.98	22908
845.117	22972
845.253	22782
845.389	22592
845.525	22584
845.661	22485
845.798	22417
845.934	22607
846.07	22470
846.206	22504
846.342	22618
846.478	22447
846.614	22230
846.75	22128
846.886	22268
847.022	22303
847.158	22188
847.294	22299
847.429	22162
847.565	22177
847.701	22447
847.837	21983
847.972	21907
848.108	22029
848.244	21884
848.379	21816
848.515	21846
848.65	21774
848.786	21812
848.921	21781
849.057	21854
849.192	21949
849.328	21846
849.463	21880
849.598	21892
849.734	21876
849.869	21682
850.004	21469
850.14	21580
850.275	21561
850.41	21454
850.545	21488
850.68	21564
850.815	21690
850.95	21549
851.085	21720
851.22	21606
851.355	21622
851.49	21583
851.625	21481
851.76	21473
851.895	21542
852.03	21492
852.165	21667
852.299	21652
852.434	21603
852.569	21682
852.703	21625
852.838	21557
852.973	21663
853.107	21656
853.242	21469
853.376	21447
853.511	21332
853.645	21272
853.78	21580
853.914	21530
854.048	21401
854.183	21367
854.317	21439
854.451	21572
854.585	21439
854.72	21370
854.854	21473
854.988	21252
855.122	21291
855.256	21355
855.39	21473
855.524	21431
855.658	21435
855.792	21279
855.926	21401
856.06	21344
856.194	21462
856.327	21321
856.461	21275
856.595	21382
856.729	21496
856.862	21496
856.996	21557
857.13	21526
857.263	21515
857.397	21439
857.53	21378
857.664	21351
857.797	21428
857.931	21496
858.064	21492
858.197	21386
858.331	21332
858.464	21424
858.597	21275
858.731	21431
858.864	21386
858.997	21237
859.13	21344
859.263	21466
859.396	21519
859.529	21351
859.662	21275
859.795	21302
859.928	21351
860.061	21504
860.194	21587
860.327	21336
860.46	21473
860.592	21435
860.725	21447
860.858	21553
860.99	21420
861.123	21317
861.256	21431
861.388	21420
861.521	21972
861.653	21252
861.786	21203
861.918	21146
862.05	21195
862.183	21272
862.315	21370
862.447	21306
862.58	21344
862.712	21116
862.844	21024
862.976	21207
863.108	21131
863.24	21485
863.372	21055
863.504	21131
863.636	21161
863.768	21127
863.9	21081
864.032	21093
864.164	21062
864.296	21211
864.428	21245
864.559	21127
864.691	21108
864.823	21108
864.954	21108
865.086	21024
865.217	21157
865.349	20941
865.48	21032
865.612	21001
865.743	21085
865.875	20975
866.006	20948
866.137	21017
866.269	21005
866.4	21047
866.531	20944
866.662	20891
866.793	20952
866.924	20929
867.055	20906
867.186	20914
867.317	20880
867.448	20902
867.579	20937
867.71	20853
867.841	20788
867.972	20887
868.103	20883
868.233	20952
868.364	20925
868.495	21024
868.625	21089
868.756	21317
868.886	21112
869.017	21157
869.147	21256
869.278	21222
869.408	21230
869.539	21119
869.669	21306
869.799	21173
869.929	21313
870.06	21359
870.19	21424
870.32	21420
870.45	21500
870.58	21523
870.71	21698
870.84	21736
870.97	21583
871.1	21526
871.23	21705
871.36	21736
871.489	21675
871.619	21671
871.749	21808
871.879	21728
872.008	21850
872.138	21724
872.267	21842
872.397	21698
872.526	21576
872.656	21694
872.785	21625
872.915	21842
873.044	21812
873.173	21766
873.303	21812
873.432	21846
873.561	21975
873.69	21800
873.819	21667
873.948	21751
874.077	21755
874.206	21720
874.335	21770
874.464	21983
874.593	21979
874.722	21972
874.851	22010
874.979	21937
875.108	22021
875.237	21865
875.365	21895
875.494	22067
875.623	22177
875.751	21842
875.88	21991
876.008	22116
876.136	22188
876.265	22390
876.393	22580
876.521	22584
876.65	22542
876.778	22489
876.906	22405
877.034	22268
877.162	22413
877.29	22318
877.418	22421
877.546	22417
877.674	22341
877.802	22363
877.93	22299
878.058	22265
878.185	22306
878.313	22234
878.441	22325
878.568	22177
878.696	22299
878.824	22356
878.951	22455
879.079	22500
879.206	22797
879.333	22516
879.461	22379
879.588	22497
879.715	22398
879.842	22675
879.97	22322
880.097	22223
880.224	22226
880.351	22192
880.478	22249
880.605	22128
880.732	22109
880.859	22394
880.986	22173
881.112	22280
881.239	21998
881.366	21918
881.493	21831
881.619	21675
881.746	21781
881.872	21766
881.999	21705
882.125	21690
882.252	21785
882.378	21789
882.505	21808
882.631	21606
882.757	21424
882.883	21633
883.01	21454
883.136	21363
883.262	21291
883.388	21245
883.514	21466
883.64	21458
883.766	21389
883.892	21279
884.018	21279
884.143	21340
884.269	21382
884.395	21154
884.52	21058
884.646	21058
884.772	21112
884.897	20963
885.023	21104
885.148	21298
885.274	21211
885.399	21211
885.524	21112
885.65	21116
885.775	21135
885.9	21096
886.025	21112
886.15	21138
886.275	21096
886.4	20921
886.525	21020
886.65	21062
886.775	20986
886.9	21081
887.025	21378
887.149	20948
887.274	20891
887.399	20872
887.523	20910
887.648	20758
887.773	20735
887.897	20937
888.021	21039
888.146	20731
888.27	20937
888.395	20963
888.519	20895
888.643	20899
888.767	20929
888.891	20708
889.015	20629
889.139	20845
889.263	20670
889.387	20762
889.511	20910
889.635	20735
889.759	20655
889.883	20541
890.006	20716
890.13	20708
890.254	20575
890.377	20609
890.501	20579
890.624	20450
890.748	20511
890.871	20278
890.995	20214
891.118	20248
891.241	20214
891.364	20347
891.488	20328
891.611	20244
891.734	20328
891.857	20240
891.98	20294
892.103	20275
892.226	20161
892.349	20218
892.471	20016
892.594	20111
892.717	20172
892.839	20043
892.962	20202
893.085	20134
893.207	20115
893.33	20096
893.452	20176
893.575	20157
893.697	20077
893.819	20332
893.941	20495
894.064	20286
894.186	20119
894.308	20077
894.43	20267
894.552	20313
894.674	20237
894.796	19993
894.918	20084
895.04	20214
895.161	20062
895.283	20244
895.405	20092
895.526	20081
895.648	20031
895.769	20153
895.891	20111
896.012	20199
896.134	20069
896.255	20210
896.376	20031
896.498	20111
896.619	20180
896.74	20092
896.861	20259
896.982	20423
897.103	20579
897.224	20351
897.345	20366
897.466	20225
897.587	20450
897.708	20564
897.828	20377
897.949	20290
898.07	20168
898.19	20206
898.311	20450
898.431	20309
898.552	20336
898.672	20457
898.792	20370
898.913	20374
899.033	20229
899.153	20126
899.273	20039
899.393	20069
899.513	20142
899.633	20180
899.753	20039
899.873	19967
899.993	20077
900.113	20008
900.232	20088
900.352	19978
900.472	19963
900.591	19871
900.711	19883
900.83	19780
900.95	19887
901.069	19906
901.189	19670
901.308	19590
901.427	19426
901.546	19407
901.665	19525
901.784	19453
901.904	19362
902.023	19270
902.141	18989
902.26	18951
902.379	19088
902.498	18966
902.617	18981
902.735	18973
902.854	18993
902.973	18943
903.091	18616
903.21	18654
903.328	18635
903.446	18464
903.565	18380
903.683	18388
903.801	18384
903.919	18456
904.038	18407
904.156	18235
904.274	18296
904.392	18194
904.51	18235
904.627	18148
904.745	18209
904.863	18292
904.981	17969
905.098	17965
905.216	17969
905.334	17980
905.451	17889
905.569	17813
905.686	17893
905.803	17722
905.921	17687
906.038	17840
906.155	17710
906.272	17501
906.389	17646
906.506	17429
906.623	17459
906.74	17440
906.857	17315
906.974	17303
907.091	17501
907.208	17547
907.324	17402
907.441	17360
907.557	17159
907.674	17155
907.79	17083
907.907	17067
908.023	17140
908.139	17083
908.256	16976
908.372	17113
908.488	16984
908.604	16934
908.72	16850
908.836	16953
908.952	16812
909.068	16790
909.184	16987
909.3	16782
909.415	16850
909.531	16835
909.647	16558
909.762	16649
909.878	16519
909.993	16565
910.108	16546
910.224	16485
910.339	16550
910.454	16462
910.57	16337
910.685	16341
910.8	16535
910.915	16466
911.03	16322
911.145	16112
911.259	16093
911.374	16200
911.489	15983
911.604	15918
911.718	15964
911.833	15930
911.947	15762
912.062	15747
912.176	15915
912.291	15838
912.405	15838
912.519	16074
912.633	16097
912.748	15873
912.862	15873
912.976	15789
913.09	15568
913.204	15690
913.318	15667
913.431	15797
913.545	15808
913.659	15808
913.772	15587
913.886	15561
914	15542
914.113	15504
914.226	15587
914.34	15557
914.453	15412
914.566	15492
914.68	15435
914.793	15526
914.906	15260
915.019	15089
915.132	15142
915.245	15222
915.358	15131
915.47	15081
915.583	15085
915.696	15237
915.809	15218
915.921	15207
916.034	15169
916.146	15009
916.259	15005
916.371	15150
916.483	14956
916.595	14876
916.708	14868
916.82	14986
916.932	14853
917.044	14845
917.156	14834
917.268	14781
917.38	14792
917.491	14693
917.603	14746
917.715	14819
917.826	14887
917.938	14708
918.049	14640
918.161	14750
918.272	14864
918.384	14792
918.495	14796
918.606	14530
918.717	14461
918.828	14587
918.939	14579
919.05	14480
919.161	14461
919.272	14328
919.383	14339
919.494	14575
919.604	14670
919.715	14545
919.826	14438
919.936	14385
920.047	14587
920.157	14446
920.267	14659
920.378	14488
920.488	14495
920.598	14686
920.708	14754
920.818	14625
920.928	14560
921.038	14811
921.148	14769
921.258	14427
921.368	14389
921.477	14252
921.587	14191
921.697	14031
921.806	14210
921.916	14039
922.025	13871
922.134	13868
922.244	13772
922.353	13970
922.462	13677
922.571	13613
922.68	13540
922.789	13537
922.898	13491
923.007	13426
923.116	13521
923.224	13491
923.333	13552
923.442	13324
923.55	13327
923.659	13327
923.767	13449
923.876	13422
923.984	13457
924.092	13240
924.201	13312
924.309	13327
924.417	13289
924.525	13247
924.633	13126
924.741	14046
924.849	13027
924.956	13076
925.064	12928
925.172	12897
925.279	12909
925.387	13019
925.494	12954
925.602	13107
925.709	13038
925.816	12795
925.924	12795
926.031	12989
926.138	12772
926.245	12882
926.352	12821
926.459	12882
926.566	12970
926.673	12768
926.779	12669
926.886	12734
926.993	12506
927.099	12475
927.206	12433
927.312	12559
927.419	12513
927.525	12471
927.631	12452
927.737	12418
927.843	12334
927.95	12251
928.056	12232
928.162	12334
928.267	12247
928.373	12844
928.479	12353
928.585	12117
928.69	12224
928.796	12342
928.901	12175
929.007	12003
929.112	12167
929.218	12068
929.323	12076
929.428	12011
929.533	12117
929.638	11935
929.743	11920
929.848	12038
929.953	11984
930.058	11828
930.163	11756
930.267	11767
930.372	11836
930.477	11710
930.581	11885
930.685	11707
930.79	11581
930.894	11710
930.998	11566
931.103	11707
931.207	11417
931.311	11307
931.415	11204
931.519	10961
931.623	11022
