Data from test_V78500241_2931.txt Node
Date: Fri Mar 25 15:30:16 CST 2022
User: usil
Spectrometer: V785-0024
Trigger mode: 0
Integration Time (sec): 4.000000E-1
Scans to average: 1
Nonlinearity correction enabled: false
Boxcar width: 0
Storing dark spectrum: false
XAxis mode: Wavelengths
Number of Pixels in Spectrum: 1024
>>>>>Begin Spectral Data<<<<<
801.071	27272
801.214	27233
801.356	26963
801.499	26880
801.641	26819
801.783	26807
801.926	26807
802.068	26914
802.211	26667
802.353	26777
802.496	26484
802.638	26450
802.78	26590
802.923	26351
803.065	26237
803.208	26298
803.35	26457
803.492	26587
803.635	26636
803.777	26640
803.919	26708
804.061	26918
804.204	26777
804.346	26556
804.488	26514
804.63	26583
804.773	26549
804.915	26762
805.057	26792
805.199	26450
805.341	26636
805.483	26697
805.626	26708
805.768	26651
805.91	26807
806.052	26705
806.194	26701
806.336	26910
806.478	26724
806.62	26697
806.762	26785
806.904	26933
807.046	27081
807.188	27256
807.33	27146
807.472	27272
807.614	27112
807.756	27188
807.898	26967
808.04	26921
808.182	27089
808.324	27116
808.465	27058
808.607	27169
808.749	27378
808.891	27336
809.033	27412
809.174	27405
809.316	27237
809.458	27256
809.6	27374
809.741	27469
809.883	27424
810.025	27625
810.166	27682
810.308	27603
810.45	27599
810.591	27488
810.733	27534
810.875	27272
811.016	27165
811.158	27211
811.299	27359
811.441	27603
811.582	27458
811.724	27336
811.865	27256
812.007	27176
812.148	27173
812.29	27427
812.431	27519
812.573	27492
812.714	27709
812.855	27880
812.997	27831
813.138	27899
813.279	27827
813.421	27838
813.562	27724
813.703	27557
813.845	27443
813.986	27089
814.127	27146
814.268	26956
814.41	27013
814.551	26891
814.692	27207
814.833	27024
814.974	26937
815.115	27020
815.256	26720
815.397	27043
815.539	26750
815.68	26807
815.821	26689
815.962	26625
816.103	26750
816.244	26686
816.385	26609
816.526	26507
816.666	26324
816.807	26206
816.948	26240
817.089	26313
817.23	26275
817.371	26355
817.512	26252
817.653	26107
817.793	26252
817.934	26290
818.075	26328
818.216	26237
818.356	26199
818.497	26035
818.638	26043
818.778	25997
818.919	25997
819.06	26035
819.2	26225
819.341	26180
819.481	26202
819.622	26412
819.762	26549
819.903	26473
820.043	26450
820.184	26385
820.324	26389
820.465	26248
820.605	26237
820.746	26294
820.886	26157
821.026	26339
821.167	26355
821.307	26339
821.447	26271
821.588	26111
821.728	25944
821.868	25788
822.008	25727
822.149	25537
822.289	25734
822.429	25407
822.569	25449
822.709	25510
822.849	25228
822.99	25217
823.13	25160
823.27	25164
823.41	24894
823.55	24985
823.69	24973
823.83	24958
823.97	24996
824.11	24837
824.25	24757
824.389	24844
824.529	24939
824.669	24661
824.809	25008
824.949	24939
825.089	24878
825.228	24791
825.368	24817
825.508	24661
825.648	24711
825.787	24722
825.927	24726
826.067	24654
826.206	24825
826.346	24749
826.485	24700
826.625	24604
826.765	24783
826.904	24681
827.044	24498
827.183	24445
827.323	24330
827.462	24456
827.601	24300
827.741	24346
827.88	24475
828.02	24254
828.159	24369
828.298	24323
828.437	24467
828.577	24407
828.716	24437
828.855	24239
828.994	24053
829.134	24136
829.273	24064
829.412	24159
829.551	24026
829.69	24072
829.829	24121
829.968	24174
830.107	24167
830.246	24072
830.385	24030
830.524	23954
830.663	23824
830.802	23889
830.941	23714
831.08	23615
831.219	23752
831.357	23809
831.496	24026
831.635	23790
831.774	23573
831.913	23577
832.051	23623
832.19	23330
832.329	23482
832.467	23337
832.606	23315
832.744	23349
832.883	23330
833.022	23261
833.16	23436
833.299	23455
833.437	23395
833.576	23433
833.714	23482
833.852	23402
833.991	23440
834.129	23596
834.267	23414
834.406	23566
834.544	23383
834.682	23524
834.821	23455
834.959	23726
835.097	23330
835.235	23395
835.373	23368
835.511	23364
835.65	23318
835.788	23250
835.926	23239
836.064	22995
836.202	23048
836.34	23353
836.478	23379
836.615	23200
836.753	23292
836.891	23223
837.029	23216
837.167	23250
837.305	23223
837.443	23204
837.58	22995
837.718	23064
837.856	23162
837.993	23075
838.131	23071
838.269	22995
838.406	22984
838.544	22999
838.681	22835
838.819	22603
838.956	22519
839.094	22565
839.231	22645
839.369	22649
839.506	22957
839.643	22835
839.781	22497
839.918	22546
840.055	22493
840.193	22508
840.33	22527
840.467	22455
840.604	22569
840.742	22660
840.879	22466
841.016	22462
841.153	22409
841.29	22535
841.427	22478
841.564	22424
841.701	22584
841.838	22440
841.975	22299
842.112	22375
842.249	22443
842.385	22337
842.522	22596
842.659	22375
842.796	22261
842.933	22272
843.069	22185
843.206	22128
843.343	22268
843.479	22204
843.616	22234
843.752	22067
843.889	22070
844.025	22169
844.162	21979
844.298	22150
844.435	21991
844.571	21930
844.708	22124
844.844	22268
844.98	22322
845.117	22173
845.253	21979
845.389	21838
845.525	21899
845.661	21964
845.798	21808
845.934	21846
846.07	21667
846.206	21808
846.342	21964
846.478	21625
846.614	21622
846.75	21538
846.886	21500
847.022	21648
847.158	21500
847.294	21496
847.429	21557
847.565	21507
847.701	21648
847.837	21279
847.972	21214
848.108	21211
848.244	21367
848.379	21119
848.515	20994
848.65	21093
848.786	21135
848.921	21093
849.057	21184
849.192	21192
849.328	21214
849.463	21264
849.598	21043
849.734	21032
849.869	20937
850.004	20910
850.14	20826
850.275	20773
850.41	20788
850.545	20861
850.68	20952
850.815	20929
850.95	20857
851.085	21062
851.22	20868
851.355	20956
851.49	20910
851.625	20826
851.76	20785
851.895	20724
852.03	20689
852.165	20845
852.299	20895
852.434	20914
852.569	20902
852.703	20899
852.838	21005
852.973	20998
853.107	20990
853.242	20758
853.376	20701
853.511	20590
853.645	20765
853.78	20838
853.914	20838
854.048	20606
854.183	20602
854.317	20754
854.451	20849
854.585	20621
854.72	20659
854.854	20800
854.988	20587
855.122	20693
855.256	20670
855.39	20670
855.524	20762
855.658	20693
855.792	20754
855.926	20689
856.06	20777
856.194	20750
856.327	20735
856.461	20682
856.595	20632
856.729	20655
856.862	20743
856.996	20629
857.13	20773
857.263	20678
857.397	20834
857.53	20697
857.664	20697
857.797	20758
857.931	20712
858.064	20746
858.197	20765
858.331	20655
858.464	20590
858.597	20609
858.731	20659
858.864	20644
858.997	20682
859.13	20663
859.263	20705
859.396	20727
859.529	20644
859.662	20708
859.795	20629
859.928	20735
860.061	20838
860.194	20887
860.327	20735
860.46	20807
860.592	20823
860.725	20853
860.858	20682
860.99	20724
861.123	20579
861.256	20655
861.388	20663
861.521	21363
861.653	20670
861.786	20412
861.918	20438
862.05	20571
862.183	20602
862.315	20587
862.447	20708
862.58	20659
862.712	20358
862.844	20351
862.976	20571
863.108	20526
863.24	20891
863.372	20229
863.504	20385
863.636	20404
863.768	20328
863.9	20396
864.032	20252
864.164	20415
864.296	20514
864.428	20408
864.559	20412
864.691	20450
864.823	20450
864.954	20492
865.086	20290
865.217	20282
865.349	20278
865.48	20324
865.612	20434
865.743	20362
865.875	20328
866.006	20305
866.137	20290
866.269	20244
866.4	20233
866.531	20259
866.662	20183
866.793	20298
866.924	20214
867.055	20267
867.186	20240
867.317	20138
867.448	20100
867.579	20309
867.71	20206
867.841	20191
867.972	20233
868.103	20290
868.233	20176
868.364	20195
868.495	20320
868.625	20446
868.756	20602
868.886	20415
869.017	20404
869.147	20526
869.278	20663
869.408	20427
869.539	20454
869.669	20522
869.799	20590
869.929	20568
870.06	20587
870.19	20750
870.32	20697
870.45	20834
870.58	20948
870.71	21001
870.84	20921
870.97	20979
871.1	21032
871.23	21104
871.36	21104
871.489	20994
871.619	21108
871.749	21036
871.879	21116
872.008	21108
872.138	21138
872.267	21116
872.397	20910
872.526	20811
872.656	20910
872.785	20895
872.915	21051
873.044	21195
873.173	21188
873.303	21211
873.432	21207
873.561	21165
873.69	21173
873.819	21222
873.948	21169
874.077	21192
874.206	21058
874.335	21131
874.464	21294
874.593	21389
874.722	21291
874.851	21435
874.979	21317
875.108	21412
875.237	21454
875.365	21260
875.494	21359
875.623	21458
875.751	21211
875.88	21336
876.008	21447
876.136	21606
876.265	21751
876.393	21911
876.521	21865
876.65	21846
876.778	21781
876.906	21709
877.034	21656
877.162	21720
877.29	21618
877.418	21743
877.546	21762
877.674	21743
877.802	21568
877.93	21671
878.058	21603
878.185	21633
878.313	21713
878.441	21671
878.568	21523
878.696	21717
878.824	21709
878.951	21747
879.079	21869
879.206	21937
879.333	21797
879.461	21774
879.588	21797
879.715	21888
879.842	21888
879.97	21713
880.097	21504
880.224	21576
880.351	21443
880.478	21545
880.605	21428
880.732	21564
880.859	21625
880.986	21568
881.112	21568
881.239	21431
881.366	21344
881.493	21142
881.619	21096
881.746	21058
881.872	21074
881.999	21066
882.125	20956
882.252	21135
882.378	21135
882.505	21222
882.631	20880
882.757	20906
882.883	20906
883.01	20921
883.136	20861
883.262	20678
883.388	20587
883.514	20861
883.64	20754
883.766	20765
883.892	20568
884.018	20636
884.143	20830
884.269	20891
884.395	20457
884.52	20393
884.646	20469
884.772	20476
884.897	20362
885.023	20473
885.148	20549
885.274	20625
885.399	20625
885.524	20381
885.65	20503
885.775	20522
885.9	20473
886.025	20549
886.15	20480
886.275	20438
886.4	20206
886.525	20393
886.65	20400
886.775	20434
886.9	20571
887.025	20651
887.149	20480
887.274	20271
887.399	20233
887.523	20313
887.648	20164
887.773	20191
887.897	20275
888.021	20343
888.146	20248
888.27	20389
888.395	20324
888.519	20267
888.643	20347
888.767	20282
888.891	20122
889.015	20054
889.139	20172
889.263	19978
889.387	20195
889.511	20164
889.635	20145
889.759	20043
889.883	20008
890.006	20111
890.13	20191
890.254	19830
890.377	20050
890.501	19795
890.624	19674
890.748	19906
890.871	19632
890.995	19647
891.118	19586
891.241	19609
891.364	19761
891.488	19738
891.611	19563
891.734	19670
891.857	19666
891.98	19658
892.103	19689
892.226	19556
892.349	19495
892.471	19441
892.594	19480
892.717	19552
892.839	19556
892.962	19563
893.085	19620
893.207	19487
893.33	19430
893.452	19670
893.575	19632
893.697	19468
893.819	19689
893.941	19719
894.064	19776
894.186	19533
894.308	19533
894.43	19677
894.552	19651
894.674	19738
894.796	19441
894.918	19518
895.04	19438
895.161	19712
895.283	19487
895.405	19472
895.526	19544
895.648	19552
895.769	19681
895.891	19548
896.012	19685
896.134	19662
896.255	19647
896.376	19529
896.498	19586
896.619	19742
896.74	19521
896.861	19609
896.982	19913
897.103	19986
897.224	19784
897.345	19746
897.466	19647
897.587	19833
897.708	19940
897.828	19868
897.949	19750
898.07	19723
898.19	19807
898.311	19868
898.431	19765
898.552	19890
898.672	19890
898.792	19875
898.913	19791
899.033	19738
899.153	19639
899.273	19483
899.393	19616
899.513	19677
899.633	19544
899.753	19518
899.873	19533
899.993	19586
900.113	19529
900.232	19514
900.352	19445
900.472	19548
900.591	19365
900.711	19464
900.83	19289
900.95	19400
901.069	19350
901.189	19343
901.308	19000
901.427	18947
901.546	19057
901.665	19065
901.784	18909
901.904	18795
902.023	18802
902.141	18540
902.26	18483
902.379	18627
902.498	18574
902.617	18407
902.735	18547
902.854	18494
902.973	18330
903.091	18133
903.21	18190
903.328	18171
903.446	17961
903.565	17931
903.683	17984
903.801	17817
903.919	17927
904.038	17836
904.156	17821
904.274	17840
904.392	17691
904.51	17653
904.627	17737
904.745	17752
904.863	17748
904.981	17402
905.098	17383
905.216	17421
905.334	17417
905.451	17459
905.569	17353
905.686	17421
905.803	17341
905.921	17223
906.038	17448
906.155	17185
906.272	17045
906.389	17094
906.506	16900
906.623	17029
906.74	16915
906.857	16831
906.974	16919
907.091	16995
907.208	16995
907.324	16946
907.441	16866
907.557	16755
907.674	16725
907.79	16656
907.907	16599
908.023	16599
908.139	16805
908.256	16592
908.372	16527
908.488	16588
908.604	16443
908.72	16333
908.836	16341
908.952	16390
909.068	16386
909.184	16428
909.3	16417
909.415	16417
909.531	16242
909.647	16211
909.762	16017
909.878	16074
909.993	16063
910.108	16044
910.224	16139
910.339	16105
910.454	16002
910.57	15926
910.685	15778
910.8	16093
910.915	16051
911.03	15956
911.145	15755
911.259	15739
911.374	15667
911.489	15671
911.604	15572
911.718	15477
911.833	15378
911.947	15416
912.062	15336
912.176	15389
912.291	15515
912.405	15370
912.519	15690
912.633	15766
912.748	15428
912.862	15401
912.976	15344
913.09	15180
913.204	15264
913.318	15287
913.431	15329
913.545	15351
913.659	15336
913.772	15245
913.886	15138
914	15127
914.113	15093
914.226	15264
914.34	15157
914.453	14864
914.566	15123
914.68	15013
914.793	14849
914.906	14834
915.019	14663
915.132	14655
915.245	14667
915.358	14686
915.47	14735
915.583	14716
915.696	14701
915.809	14800
915.921	14830
916.034	14602
916.146	14594
916.259	14545
916.371	14720
916.483	14629
916.595	14613
916.708	14670
916.82	14484
916.932	14533
917.044	14465
917.156	14492
917.268	14385
917.38	14278
917.491	14317
917.603	14446
917.715	14423
917.826	14507
917.938	14351
918.049	14214
918.161	14240
918.272	14488
918.384	14408
918.495	14237
918.606	14157
918.717	14119
918.828	14153
918.939	14183
919.05	13978
919.161	14161
919.272	13970
919.383	14008
919.494	14168
919.604	14240
919.715	14157
919.826	14024
919.936	14046
920.047	14153
920.157	14096
920.267	14233
920.378	14157
920.488	14016
920.598	14290
920.708	14393
920.818	14195
920.928	14267
921.038	14377
921.148	14313
921.258	13951
921.368	13928
921.477	13845
921.587	13894
921.697	13776
921.806	13772
921.916	13681
922.025	13529
922.134	13457
922.244	13445
922.353	13533
922.462	13434
922.571	13331
922.68	13221
922.789	13091
922.898	13145
923.007	13122
923.116	13194
923.224	13160
923.333	13107
923.442	13076
923.55	12894
923.659	12962
923.767	13076
923.876	12958
923.984	13023
924.092	12935
924.201	12947
924.309	12932
924.417	12962
924.525	12802
924.633	12848
924.741	13670
924.849	12616
924.956	12669
925.064	12631
925.172	12544
925.279	12486
925.387	12612
925.494	12563
925.602	12753
925.709	12658
925.816	12517
925.924	12486
926.031	12696
926.138	12494
926.245	12490
926.352	12467
926.459	12570
926.566	12608
926.673	12448
926.779	12308
926.886	12289
926.993	12228
927.099	12133
927.206	12182
927.312	12186
927.419	12258
927.525	12110
927.631	12190
927.737	12034
927.843	12057
927.95	11923
928.056	11965
928.162	11901
928.267	12019
928.373	12616
928.479	12038
928.585	11790
928.69	11950
928.796	12087
928.901	11935
929.007	11714
929.112	11874
929.218	11889
929.323	11707
929.428	11688
929.533	11904
929.638	11729
929.743	11668
929.848	11714
929.953	11661
930.058	11592
930.163	11364
930.267	11471
930.372	11516
930.477	11341
930.581	11592
930.685	11452
930.79	11368
930.894	11440
930.998	11368
931.103	11360
931.207	11109
931.311	10995
931.415	10930
931.519	10660
931.623	10653
