Data from test_V78500241_268.txt Node
Date: Fri Mar 25 15:11:43 CST 2022
User: usil
Spectrometer: V785-0024
Trigger mode: 0
Integration Time (sec): 4.000000E-1
Scans to average: 1
Nonlinearity correction enabled: false
Boxcar width: 0
Storing dark spectrum: false
XAxis mode: Wavelengths
Number of Pixels in Spectrum: 1024
>>>>>Begin Spectral Data<<<<<
801.071	28253
801.214	28261
801.356	28059
801.499	27937
801.641	27789
801.783	27911
801.926	27983
802.068	27770
802.211	27865
802.353	27610
802.496	27450
802.638	27553
802.78	27523
802.923	27447
803.065	27332
803.208	27435
803.35	27427
803.492	27644
803.635	27671
803.777	27523
803.919	27835
804.061	27937
804.204	27656
804.346	27523
804.488	27496
804.63	27557
804.773	27481
804.915	27667
805.057	27789
805.199	27595
805.341	27637
805.483	27682
805.626	27633
805.768	27526
805.91	27720
806.052	27823
806.194	27545
806.336	27930
806.478	27622
806.62	27838
806.762	27937
806.904	28048
807.046	28196
807.188	28093
807.33	28120
807.472	28074
807.614	28070
807.756	28116
807.898	28002
808.04	27998
808.182	27899
808.324	27949
808.465	27861
808.607	28105
808.749	28215
808.891	28386
809.033	28546
809.174	28318
809.316	28352
809.458	28329
809.6	28242
809.741	28348
809.883	28417
810.025	28478
810.166	28554
810.308	28474
810.45	28542
810.591	28546
810.733	28306
810.875	28135
811.016	28147
811.158	28196
811.299	28337
811.441	28432
811.582	28382
811.724	28188
811.865	28204
812.007	28219
812.148	28230
812.29	28257
812.431	28382
812.573	28645
812.714	28790
812.855	28729
812.997	29041
813.138	29105
813.279	28919
813.421	28835
813.562	28740
813.703	28622
813.845	28424
813.986	28215
814.127	28185
814.268	27835
814.41	27888
814.551	28036
814.692	28082
814.833	27812
814.974	27930
815.115	27987
815.256	27682
815.397	27789
815.539	27823
815.68	27656
815.821	27641
815.962	27728
816.103	27819
816.244	27454
816.385	27481
816.526	27427
816.666	27325
816.807	27188
816.948	27336
817.089	27226
817.23	27313
817.371	27249
817.512	27138
817.653	27093
817.793	27116
817.934	27192
818.075	27233
818.216	27222
818.356	27127
818.497	27203
818.638	26902
818.778	26895
818.919	26762
819.06	26864
819.2	27096
819.341	27135
819.481	27020
819.622	27332
819.762	27450
819.903	27382
820.043	27294
820.184	27192
820.324	27310
820.465	27241
820.605	27306
820.746	27207
820.886	27119
821.026	27272
821.167	27154
821.307	27226
821.447	27173
821.588	27138
821.728	26754
821.868	26545
822.008	26575
822.149	26579
822.289	26438
822.429	26324
822.569	26259
822.709	26111
822.849	26020
822.99	25989
823.13	26161
823.27	25898
823.41	25772
823.55	25761
823.69	25799
823.83	25940
823.97	25807
824.11	25780
824.25	25556
824.389	25712
824.529	25704
824.669	25616
824.809	25772
824.949	25772
825.089	25776
825.228	25807
825.368	25594
825.508	25537
825.648	25548
825.787	25438
825.927	25643
826.067	25472
826.206	25525
826.346	25601
826.485	25430
826.625	25430
826.765	25635
826.904	25609
827.044	25400
827.183	25339
827.323	25285
827.462	25343
827.601	25206
827.741	25221
827.88	25327
828.02	24981
828.159	25183
828.298	25263
828.437	25339
828.577	25190
828.716	25301
828.855	25107
828.994	24992
829.134	25027
829.273	25023
829.412	24829
829.551	24882
829.69	24833
829.829	25012
829.968	25099
830.107	24970
830.246	24989
830.385	24859
830.524	24722
830.663	24700
830.802	24612
830.941	24452
831.08	24547
831.219	24642
831.357	24574
831.496	24669
831.635	24528
831.774	24418
831.913	24517
832.051	24311
832.19	24422
832.329	24319
832.467	24197
832.606	24171
832.744	24106
832.883	24281
833.022	24201
833.16	24201
833.299	24064
833.437	24209
833.576	24243
833.714	24174
833.852	24350
833.991	24296
834.129	24228
834.267	24270
834.406	24251
834.544	24300
834.682	24235
834.821	24220
834.959	24445
835.097	24148
835.235	24205
835.373	24148
835.511	24254
835.65	24102
835.788	23977
835.926	23840
836.064	23942
836.202	23817
836.34	23984
836.478	24201
836.615	23992
836.753	23977
836.891	24232
837.029	24110
837.167	24079
837.305	23889
837.443	23992
837.58	23863
837.718	23942
837.856	23824
837.993	23847
838.131	23824
838.269	23942
838.406	23874
838.544	23710
838.681	23395
838.819	23440
838.956	23303
839.094	23273
839.231	23376
839.369	23493
839.506	23703
839.643	23653
839.781	23395
839.918	23315
840.055	23227
840.193	23185
840.33	23280
840.467	23296
840.604	23166
840.742	23512
840.879	23018
841.016	23102
841.153	23109
841.29	23345
841.427	23288
841.564	23204
841.701	23242
841.838	23178
841.975	22972
842.112	23098
842.249	22968
842.385	23037
842.522	23181
842.659	23067
842.796	22904
842.933	23029
843.069	22953
843.206	22869
843.343	22957
843.479	22949
843.616	22968
843.752	22748
843.889	22733
844.025	22908
844.162	22771
844.298	22812
844.435	22759
844.571	22889
844.708	22869
844.844	22934
844.98	22889
845.117	22854
845.253	22694
845.389	22603
845.525	22615
845.661	22508
845.798	22508
845.934	22493
846.07	22493
846.206	22462
846.342	22546
846.478	22523
846.614	22280
846.75	22185
846.886	22139
847.022	22295
847.158	22246
847.294	22162
847.429	22223
847.565	22219
847.701	22443
847.837	21979
847.972	21926
848.108	21945
848.244	21991
848.379	21869
848.515	21728
848.65	21606
848.786	21717
848.921	21709
849.057	21876
849.192	21861
849.328	21751
849.463	21759
849.598	21793
849.734	21686
849.869	21648
850.004	21443
850.14	21572
850.275	21439
850.41	21367
850.545	21466
850.68	21450
850.815	21583
850.95	21447
851.085	21652
851.22	21504
851.355	21511
851.49	21492
851.625	21469
851.76	21462
851.895	21287
852.03	21492
852.165	21386
852.299	21580
852.434	21530
852.569	21511
852.703	21515
852.838	21641
852.973	21576
853.107	21557
853.242	21530
853.376	21302
853.511	21195
853.645	21207
853.78	21378
853.914	21306
854.048	21332
854.183	21321
854.317	21279
854.451	21435
854.585	21298
854.72	21184
854.854	21500
854.988	21150
855.122	21230
855.256	21329
855.39	21351
855.524	21340
855.658	21321
855.792	21355
855.926	21348
856.06	21249
856.194	21431
856.327	21287
856.461	21214
856.595	21237
856.729	21226
856.862	21359
856.996	21355
857.13	21351
857.263	21336
857.397	21386
857.53	21355
857.664	21287
857.797	21340
857.931	21363
858.064	21321
858.197	21340
858.331	21272
858.464	21161
858.597	21070
858.731	21272
858.864	21279
858.997	21408
859.13	21154
859.263	21355
859.396	21359
859.529	21302
859.662	21176
859.795	21230
859.928	21321
860.061	21469
860.194	21485
860.327	21283
860.46	21447
860.592	21359
860.725	21466
860.858	21344
860.99	21233
861.123	21180
861.256	21108
861.388	21332
861.521	21857
861.653	21157
861.786	21077
861.918	21161
862.05	21165
862.183	21325
862.315	21283
862.447	21336
862.58	21184
862.712	21066
862.844	21127
862.976	21154
863.108	20960
863.24	21393
863.372	20830
863.504	20895
863.636	21047
863.768	20967
863.9	21013
864.032	20872
864.164	20990
864.296	20910
864.428	20986
864.559	21013
864.691	21100
864.823	20979
864.954	20929
865.086	21001
865.217	20910
865.349	20830
865.48	20849
865.612	20842
865.743	20971
865.875	20861
866.006	20967
866.137	20941
866.269	20762
866.4	20826
866.531	20899
866.662	20716
866.793	20876
866.924	20754
867.055	20853
867.186	20800
867.317	20697
867.448	20651
867.579	20693
867.71	20625
867.841	20754
867.972	20842
868.103	20785
868.233	20765
868.364	20891
868.495	20956
868.625	21074
868.756	21211
868.886	20990
869.017	20998
869.147	21157
869.278	21192
869.408	21135
869.539	20990
869.669	21108
869.799	21157
869.929	21192
870.06	21009
870.19	21287
870.32	21294
870.45	21382
870.58	21454
870.71	21572
870.84	21526
870.97	21488
871.1	21530
871.23	21572
871.36	21663
871.489	21599
871.619	21511
871.749	21473
871.879	21469
872.008	21648
872.138	21663
872.267	21618
872.397	21523
872.526	21344
872.656	21530
872.785	21534
872.915	21633
873.044	21648
873.173	21625
873.303	21724
873.432	21755
873.561	21869
873.69	21523
873.819	21762
873.948	21793
874.077	21675
874.206	21679
874.335	21500
874.464	21823
874.593	21903
874.722	21759
874.851	21804
874.979	21873
875.108	21949
875.237	21781
875.365	21827
875.494	21797
875.623	22025
875.751	21827
875.88	21941
876.008	21956
876.136	22147
876.265	22276
876.393	22390
876.521	22287
876.65	22455
876.778	22291
876.906	22223
877.034	22287
877.162	22211
877.29	22154
877.418	22166
877.546	22135
877.674	22192
877.802	22211
877.93	22249
878.058	22196
878.185	22105
878.313	22310
878.441	22181
878.568	22051
878.696	22063
878.824	22348
878.951	22306
879.079	22409
879.206	22516
879.333	22333
879.461	22226
879.588	22386
879.715	22341
879.842	22519
879.97	22249
880.097	22006
880.224	21922
880.351	22059
880.478	22101
880.605	22181
880.732	21987
880.859	22207
880.986	22036
881.112	22025
881.239	21804
881.366	21724
881.493	21591
881.619	21614
881.746	21660
881.872	21641
881.999	21526
882.125	21572
882.252	21667
882.378	21557
882.505	21770
882.631	21545
882.757	21424
882.883	21435
883.01	21428
883.136	21233
883.262	21237
883.388	21207
883.514	21378
883.64	21302
883.766	21214
883.892	21093
884.018	21310
884.143	21317
884.269	21351
884.395	21112
884.52	20891
884.646	20994
884.772	20971
884.897	20891
885.023	20986
885.148	20948
885.274	21104
885.399	21051
885.524	20944
885.65	21024
885.775	20975
885.9	20819
886.025	21180
886.15	20956
886.275	20986
886.4	20975
886.525	21047
886.65	20872
886.775	20754
886.9	21077
887.025	21192
887.149	20826
887.274	20590
887.399	20792
887.523	20746
887.648	20712
887.773	20613
887.897	20750
888.021	20842
888.146	20648
888.27	20883
888.395	20857
888.519	20735
888.643	20826
888.767	20792
888.891	20712
889.015	20480
889.139	20648
889.263	20545
889.387	20655
889.511	20682
889.635	20590
889.759	20499
889.883	20530
890.006	20450
890.13	20499
890.254	20362
890.377	20400
890.501	20374
890.624	20195
890.748	20305
890.871	20081
890.995	20142
891.118	20043
891.241	20005
891.364	20088
891.488	20145
891.611	20050
891.734	20103
891.857	20092
891.98	20054
892.103	20031
892.226	19982
892.349	20046
892.471	19830
892.594	20001
892.717	19997
892.839	19967
892.962	19982
893.085	20054
893.207	20001
893.33	19970
893.452	19921
893.575	20206
893.697	19947
893.819	20157
893.941	20134
894.064	20096
894.186	20005
894.308	19940
894.43	20035
894.552	20145
894.674	20176
894.796	19822
894.918	20058
895.04	19879
895.161	20046
895.283	20058
895.405	19982
895.526	19955
895.648	19917
895.769	19970
895.891	20001
896.012	20012
896.134	19986
896.255	19913
896.376	19986
896.498	20065
896.619	20092
896.74	19959
896.861	20069
896.982	20320
897.103	20465
897.224	20271
897.345	20153
897.466	20119
897.587	20164
897.708	20332
897.828	20195
897.949	20183
898.07	20035
898.19	20126
898.311	20153
898.431	20142
898.552	20191
898.672	20320
898.792	20313
898.913	20153
899.033	20263
899.153	19947
899.273	19917
899.393	19955
899.513	20069
899.633	19959
899.753	19890
899.873	19898
899.993	20020
900.113	19818
900.232	19978
900.352	19784
900.472	19799
900.591	19651
900.711	19772
900.83	19662
900.95	19788
901.069	19799
901.189	19685
901.308	19282
901.427	19335
901.546	19270
901.665	19274
901.784	19145
901.904	19209
902.023	19103
902.141	18913
902.26	18894
902.379	18920
902.498	18749
902.617	18776
902.735	18977
902.854	18715
902.973	18749
903.091	18547
903.21	18361
903.328	18338
903.446	18464
903.565	18209
903.683	18247
903.801	18304
903.919	18194
904.038	18289
904.156	18011
904.274	18106
904.392	18007
904.51	18007
904.627	18087
904.745	18159
904.863	18114
904.981	17897
905.098	17748
905.216	17802
905.334	17794
905.451	17638
905.569	17756
905.686	17733
905.803	17665
905.921	17452
906.038	17627
906.155	17604
906.272	17512
906.389	17455
906.506	17364
906.623	17261
906.74	17288
906.857	17102
906.974	17086
907.091	17307
907.208	17444
907.324	17269
907.441	17197
907.557	17048
907.674	16930
907.79	16847
907.907	16984
908.023	16889
908.139	16968
908.256	16885
908.372	16908
908.488	16805
908.604	16679
908.72	16611
908.836	16672
908.952	16569
909.068	16622
909.184	16698
909.3	16634
909.415	16713
909.531	16637
909.647	16436
909.762	16447
909.878	16303
909.993	16413
910.108	16451
910.224	16341
910.339	16428
910.454	16265
910.57	16242
910.685	16105
910.8	16424
910.915	16314
911.03	16196
911.145	15941
911.259	15915
911.374	15945
911.489	15888
911.604	15804
911.718	15682
911.833	15774
911.947	15572
912.062	15572
912.176	15728
912.291	15690
912.405	15682
912.519	15930
912.633	15873
912.748	15717
912.862	15580
912.976	15511
913.09	15458
913.204	15481
913.318	15561
913.431	15614
913.545	15549
913.659	15614
913.772	15530
913.886	15367
914	15325
914.113	15420
914.226	15485
914.34	15363
914.453	15173
914.566	15359
914.68	15195
914.793	15192
914.906	14902
915.019	14895
915.132	14944
915.245	14937
915.358	14864
915.47	14849
915.583	14937
915.696	14975
915.809	15074
915.921	15123
916.034	14906
916.146	14853
916.259	14800
916.371	14941
916.483	14823
916.595	14788
916.708	14792
916.82	14705
916.932	14792
917.044	14769
917.156	14746
917.268	14613
917.38	14606
917.491	14545
917.603	14621
917.715	14625
917.826	14560
917.938	14533
918.049	14400
918.161	14549
918.272	14629
918.384	14659
918.495	14484
918.606	14431
918.717	14278
918.828	14355
918.939	14324
919.05	14252
919.161	14351
919.272	14195
919.383	14202
919.494	14423
919.604	14514
919.715	14339
919.826	14176
919.936	14210
920.047	14355
920.157	14248
920.267	14541
920.378	14305
920.488	14263
920.598	14454
920.708	14587
920.818	14442
920.928	14442
921.038	14594
921.148	14590
921.258	14320
921.368	14172
921.477	14035
921.587	14039
921.697	13932
921.806	14020
921.916	13845
922.025	13670
922.134	13704
922.244	13715
922.353	13731
922.462	13563
922.571	13468
922.68	13343
922.789	13270
922.898	13358
923.007	13236
923.116	13354
923.224	13278
923.333	13266
923.442	13209
923.55	13133
923.659	13164
923.767	13304
923.876	13156
923.984	13164
924.092	13050
924.201	13103
924.309	13061
924.417	13000
924.525	13023
924.633	12966
924.741	13818
924.849	12817
924.956	13008
925.064	12726
925.172	12677
925.279	12753
925.387	12734
925.494	12768
925.602	12928
925.709	12856
925.816	12749
925.924	12753
926.031	12863
926.138	12700
926.245	12882
926.352	12612
926.459	12768
926.566	12772
926.673	12620
926.779	12506
926.886	12502
926.993	12464
927.099	12403
927.206	12407
927.312	12281
927.419	12361
927.525	12281
927.631	12410
927.737	12186
927.843	12091
927.95	12064
928.056	12091
928.162	12201
928.267	12220
928.373	12681
928.479	12228
928.585	11916
928.69	12171
928.796	12171
928.901	11977
929.007	11920
929.112	12041
929.218	11977
929.323	11840
929.428	11893
929.533	11984
929.638	11813
929.743	11794
929.848	11893
929.953	11817
930.058	11779
930.163	11547
930.267	11634
930.372	11729
930.477	11532
930.581	11794
930.685	11558
930.79	11421
930.894	11535
930.998	11467
931.103	11558
931.207	11166
931.311	11105
931.415	11056
931.519	10847
931.623	10759
