Data from test_V78500241_2185.txt Node
Date: Fri Mar 25 15:25:04 CST 2022
User: usil
Spectrometer: V785-0024
Trigger mode: 0
Integration Time (sec): 4.000000E-1
Scans to average: 1
Nonlinearity correction enabled: false
Boxcar width: 0
Storing dark spectrum: false
XAxis mode: Wavelengths
Number of Pixels in Spectrum: 1024
>>>>>Begin Spectral Data<<<<<
801.071	27743
801.214	27618
801.356	27424
801.499	27462
801.641	27344
801.783	27302
801.926	27393
802.068	27272
802.211	27256
802.353	27138
802.496	26967
802.638	27017
802.78	26902
802.923	26918
803.065	26701
803.208	26834
803.35	26921
803.492	27131
803.635	27135
803.777	26952
803.919	27112
804.061	27511
804.204	27184
804.346	27089
804.488	26975
804.63	27207
804.773	27108
804.915	27150
805.057	27260
805.199	27161
805.341	27055
805.483	27279
805.626	27374
805.768	27192
805.91	27351
806.052	27336
806.194	27211
806.336	27355
806.478	27302
806.62	27180
806.762	27393
806.904	27340
807.046	27789
807.188	27793
807.33	27656
807.472	27679
807.614	27606
807.756	27549
807.898	27675
808.04	27466
808.182	27214
808.324	27717
808.465	27568
808.607	27705
808.749	27972
808.891	28006
809.033	27914
809.174	28055
809.316	27747
809.458	27937
809.6	27846
809.741	27991
809.883	28048
810.025	28169
810.166	28200
810.308	28059
810.45	28029
810.591	28059
810.733	27835
810.875	27899
811.016	27709
811.158	27846
811.299	28059
811.441	28040
811.582	27914
811.724	27956
811.865	27880
812.007	27797
812.148	27861
812.29	27960
812.431	28067
812.573	28177
812.714	28261
812.855	28401
812.997	28618
813.138	28592
813.279	28550
813.421	28451
813.562	28428
813.703	28120
813.845	27991
813.986	27850
814.127	27576
814.268	27568
814.41	27614
814.551	27534
814.692	27797
814.833	27477
814.974	27496
815.115	27511
815.256	27443
815.397	27298
815.539	27473
815.68	27230
815.821	27142
815.962	27310
816.103	27344
816.244	27192
816.385	27093
816.526	27116
816.666	26914
816.807	26948
816.948	26986
817.089	26982
817.23	26902
817.371	26724
817.512	26921
817.653	26785
817.793	26785
817.934	26769
818.075	26963
818.216	26868
818.356	26838
818.497	26849
818.638	26488
818.778	26587
818.919	26609
819.06	26579
819.2	26826
819.341	26773
819.481	26819
819.622	27024
819.762	27203
819.903	27024
820.043	27074
820.184	26979
820.324	26998
820.465	27013
820.605	26998
820.746	26849
820.886	26682
821.026	26948
821.167	26727
821.307	26986
821.447	26933
821.588	26864
821.728	26602
821.868	26434
822.008	26415
822.149	26206
822.289	26206
822.429	26046
822.569	25993
822.709	26001
822.849	25833
822.99	25906
823.13	25765
823.27	25738
823.41	25681
823.55	25460
823.69	25704
823.83	25666
823.97	25685
824.11	25247
824.25	25491
824.389	25445
824.529	25521
824.669	25312
824.809	25548
824.949	25575
825.089	25483
825.228	25278
825.368	25236
825.508	25259
825.648	25270
825.787	25331
825.927	25346
826.067	25316
826.206	25339
826.346	25358
826.485	25388
826.625	25270
826.765	25377
826.904	25392
827.044	25050
827.183	25190
827.323	24970
827.462	25004
827.601	25095
827.741	24981
827.88	25091
828.02	25019
828.159	24981
828.298	25019
828.437	25129
828.577	25034
828.716	25050
828.855	24992
828.994	24734
829.134	24631
829.273	24661
829.412	24650
829.551	24772
829.69	24639
829.829	24730
829.968	24806
830.107	24616
830.246	24734
830.385	24669
830.524	24574
830.663	24445
830.802	24384
830.941	24330
831.08	24235
831.219	24365
831.357	24460
831.496	24490
831.635	24311
831.774	24129
831.913	24194
832.051	24110
832.19	24174
832.329	24045
832.467	24015
832.606	23912
832.744	23874
832.883	23897
833.022	23969
833.16	24057
833.299	24133
833.437	24049
833.576	24091
833.714	23988
833.852	24015
833.991	24106
834.129	24030
834.267	24125
834.406	24064
834.544	23931
834.682	24106
834.821	23984
834.959	24102
835.097	23977
835.235	24140
835.373	23999
835.511	24038
835.65	23794
835.788	23843
835.926	23741
836.064	23623
836.202	23672
836.34	23889
836.478	23912
836.615	23783
836.753	23729
836.891	23794
837.029	23908
837.167	23714
837.305	23790
837.443	23775
837.58	23619
837.718	23729
837.856	23676
837.993	23687
838.131	23714
838.269	23623
838.406	23657
838.544	23573
838.681	23315
838.819	23402
838.956	23250
839.094	23174
839.231	23231
839.369	23296
839.506	23573
839.643	23455
839.781	23117
839.918	23124
840.055	23258
840.193	23212
840.33	23022
840.467	23132
840.604	23178
840.742	23417
840.879	22904
841.016	22976
841.153	22984
841.29	23181
841.427	22923
841.564	23083
841.701	22923
841.838	22987
841.975	22927
842.112	22869
842.249	22881
842.385	22797
842.522	23105
842.659	22858
842.796	22831
842.933	22900
843.069	22778
843.206	22805
843.343	22987
843.479	22801
843.616	22801
843.752	22691
843.889	22634
844.025	22824
844.162	22565
844.298	22687
844.435	22580
844.571	22527
844.708	22626
844.844	22710
844.98	22660
845.117	22706
845.253	22599
845.389	22413
845.525	22356
845.661	22390
845.798	22379
845.934	22390
846.07	22276
846.206	22333
846.342	22363
846.478	22287
846.614	22143
846.75	22025
846.886	22074
847.022	22257
847.158	22154
847.294	22090
847.429	22207
847.565	22086
847.701	22352
847.837	21880
847.972	21797
848.108	21888
848.244	22013
848.379	21622
848.515	21709
848.65	21564
848.786	21606
848.921	21728
849.057	21667
849.192	21774
849.328	21671
849.463	21667
849.598	21599
849.734	21553
849.869	21534
850.004	21412
850.14	21458
850.275	21511
850.41	21291
850.545	21443
850.68	21340
850.815	21450
850.95	21496
851.085	21614
851.22	21523
851.355	21462
851.49	21332
851.625	21439
851.76	21416
851.895	21336
852.03	21405
852.165	21408
852.299	21420
852.434	21473
852.569	21519
852.703	21416
852.838	21610
852.973	21591
853.107	21511
853.242	21291
853.376	21370
853.511	21108
853.645	21291
853.78	21329
853.914	21313
854.048	21241
854.183	21207
854.317	21218
854.451	21393
854.585	21310
854.72	21123
854.854	21310
854.988	21154
855.122	21241
855.256	21176
855.39	21211
855.524	21306
855.658	21260
855.792	21214
855.926	21287
856.06	21287
856.194	21306
856.327	21237
856.461	21222
856.595	21245
856.729	21188
856.862	21443
856.996	21283
857.13	21389
857.263	21363
857.397	21374
857.53	21214
857.664	21378
857.797	21294
857.931	21283
858.064	21272
858.197	21313
858.331	21195
858.464	21154
858.597	21165
858.731	21233
858.864	21260
858.997	21199
859.13	21112
859.263	21252
859.396	21272
859.529	21161
859.662	21157
859.795	21298
859.928	21192
860.061	21344
860.194	21500
860.327	21336
860.46	21176
860.592	21344
860.725	21435
860.858	21241
860.99	21272
861.123	21184
861.256	21211
861.388	21241
861.521	21941
861.653	21104
861.786	21074
861.918	21081
862.05	21146
862.183	21211
862.315	21230
862.447	21272
862.58	21199
862.712	20960
862.844	20971
862.976	21062
863.108	21096
863.24	21279
863.372	20902
863.504	20933
863.636	21036
863.768	21070
863.9	20914
864.032	20880
864.164	20899
864.296	20933
864.428	20960
864.559	20975
864.691	21013
864.823	20937
864.954	20921
865.086	21024
865.217	20899
865.349	20800
865.48	20880
865.612	20891
865.743	20998
865.875	20857
866.006	20899
866.137	20876
866.269	20769
866.4	20933
866.531	20689
866.662	20689
866.793	20769
866.924	20857
867.055	20804
867.186	20819
867.317	20845
867.448	20785
867.579	20762
867.71	20640
867.841	20750
867.972	20811
868.103	20826
868.233	20804
868.364	20899
868.495	20807
868.625	21039
868.756	21074
868.886	20914
869.017	21017
869.147	21066
869.278	21074
869.408	20975
869.539	21020
869.669	21131
869.799	21104
869.929	21173
870.06	21112
870.19	21283
870.32	21241
870.45	21355
870.58	21363
870.71	21462
870.84	21485
870.97	21450
871.1	21389
871.23	21553
871.36	21766
871.489	21580
871.619	21492
871.749	21481
871.879	21618
872.008	21766
872.138	21717
872.267	21671
872.397	21507
872.526	21496
872.656	21481
872.785	21317
872.915	21591
873.044	21728
873.173	21568
873.303	21587
873.432	21705
873.561	21800
873.69	21724
873.819	21701
873.948	21663
874.077	21751
874.206	21481
874.335	21614
874.464	21797
874.593	21884
874.722	21778
874.851	21956
874.979	21895
875.108	21972
875.237	21789
875.365	21732
875.494	21816
875.623	21975
875.751	21899
875.88	21991
876.008	22006
876.136	22025
876.265	22246
876.393	22440
876.521	22367
876.65	22386
876.778	22363
876.906	22063
877.034	22253
877.162	22128
877.29	22166
877.418	22196
877.546	22253
877.674	22135
877.802	22112
877.93	22200
878.058	22143
878.185	22082
878.313	22147
878.441	22257
878.568	22173
878.696	22074
878.824	22192
878.951	22253
879.079	22314
879.206	22485
879.333	22394
879.461	22200
879.588	22455
879.715	22356
879.842	22508
879.97	22249
880.097	21998
880.224	22147
880.351	22078
880.478	21994
880.605	22059
880.732	22063
880.859	22276
880.986	22032
881.112	22101
881.239	22006
881.366	21644
881.493	21709
881.619	21587
881.746	21656
881.872	21671
881.999	21542
882.125	21557
882.252	21694
882.378	21637
882.505	21686
882.631	21447
882.757	21454
882.883	21222
883.01	21416
883.136	21260
883.262	21192
883.388	21138
883.514	21298
883.64	21336
883.766	21264
883.892	21013
884.018	21173
884.143	21169
884.269	21340
884.395	20986
884.52	20921
884.646	20944
884.772	20792
884.897	20849
885.023	20880
885.148	21020
885.274	21138
885.399	21020
885.524	20891
885.65	20994
885.775	20986
885.9	20853
886.025	21055
886.15	21013
886.275	20906
886.4	20910
886.525	20826
886.65	20941
886.775	20819
886.9	20998
887.025	21245
887.149	20861
887.274	20720
887.399	20716
887.523	20693
887.648	20708
887.773	20731
887.897	20712
888.021	20758
888.146	20629
888.27	20785
888.395	20769
888.519	20651
888.643	20705
888.767	20708
888.891	20674
889.015	20541
889.139	20560
889.263	20530
889.387	20651
889.511	20636
889.635	20617
889.759	20549
889.883	20412
890.006	20476
890.13	20621
890.254	20396
890.377	20492
890.501	20355
890.624	20309
890.748	20366
890.871	20237
890.995	20202
891.118	20024
891.241	20027
891.364	20081
891.488	20210
891.611	20103
891.734	20069
891.857	20218
891.98	20088
892.103	20153
892.226	20069
892.349	20046
892.471	19875
892.594	20031
892.717	20115
892.839	20039
892.962	20005
893.085	20001
893.207	20054
893.33	19902
893.452	19940
893.575	19959
893.697	19864
893.819	20111
893.941	20290
894.064	20115
894.186	19830
894.308	19963
894.43	20119
894.552	20240
894.674	20046
894.796	19856
894.918	20062
895.04	19959
895.161	20073
895.283	19944
895.405	20024
895.526	20039
895.648	19993
895.769	20024
895.891	20001
896.012	20069
896.134	20046
896.255	19978
896.376	19959
896.498	20035
896.619	19993
896.74	19986
896.861	19978
896.982	20294
897.103	20343
897.224	20305
897.345	20240
897.466	20054
897.587	20161
897.708	20377
897.828	20180
897.949	20073
898.07	20134
898.19	20111
898.311	20263
898.431	20149
898.552	20214
898.672	20199
898.792	20320
898.913	20233
899.033	20058
899.153	20020
899.273	19898
899.393	20046
899.513	20012
899.633	20016
899.753	19955
899.873	19849
899.993	20016
900.113	19883
900.232	19944
900.352	19883
900.472	19803
900.591	19658
900.711	19719
900.83	19674
900.95	19849
901.069	19795
901.189	19537
901.308	19415
901.427	19320
901.546	19331
901.665	19403
901.784	19400
901.904	19289
902.023	19160
902.141	18878
902.26	18962
902.379	18909
902.498	18996
902.617	18821
902.735	18848
902.854	18920
902.973	18814
903.091	18623
903.21	18471
903.328	18620
903.446	18422
903.565	18330
903.683	18292
903.801	18117
903.919	18247
904.038	18216
904.156	18152
904.274	18201
904.392	18091
904.51	18091
904.627	18064
904.745	18087
904.863	18136
904.981	17828
905.098	17680
905.216	17821
905.334	17783
905.451	17828
905.569	17859
905.686	17764
905.803	17809
905.921	17524
906.038	17676
906.155	17532
906.272	17444
906.389	17436
906.506	17402
906.623	17334
906.74	17353
906.857	17265
906.974	17277
907.091	17345
907.208	17421
907.324	17273
907.441	17147
907.557	17071
907.674	16987
907.79	17048
907.907	17037
908.023	17052
908.139	17045
908.256	16995
908.372	16896
908.488	16927
908.604	16778
908.72	16698
908.836	16854
908.952	16664
909.068	16698
909.184	16858
909.3	16729
909.415	16748
909.531	16683
909.647	16409
909.762	16459
909.878	16386
909.993	16481
910.108	16485
910.224	16470
910.339	16538
910.454	16303
910.57	16303
910.685	16204
910.8	16394
910.915	16421
911.03	16242
911.145	16154
911.259	16055
911.374	16097
911.489	15964
911.604	15793
911.718	15774
911.833	15739
911.947	15603
912.062	15660
912.176	15861
912.291	15747
912.405	15789
912.519	15907
912.633	15949
912.748	15785
912.862	15743
912.976	15644
913.09	15443
913.204	15473
913.318	15629
913.431	15656
913.545	15625
913.659	15770
913.772	15637
913.886	15408
914	15374
914.113	15492
914.226	15530
914.34	15386
914.453	15348
914.566	15363
914.68	15294
914.793	15275
914.906	15093
915.019	14990
915.132	14960
915.245	14960
915.358	14956
915.47	14944
915.583	14918
915.696	15077
915.809	15081
915.921	15211
916.034	14956
916.146	14910
916.259	14952
916.371	15020
916.483	14960
916.595	14754
916.708	14838
916.82	14785
916.932	14811
917.044	14838
917.156	14796
917.268	14697
917.38	14663
917.491	14636
917.603	14629
917.715	14743
917.826	14739
917.938	14537
918.049	14511
918.161	14651
918.272	14769
918.384	14655
918.495	14606
918.606	14457
918.717	14400
918.828	14412
918.939	14465
919.05	14248
919.161	14400
919.272	14126
919.383	14237
919.494	14514
919.604	14663
919.715	14351
919.826	14278
919.936	14488
920.047	14503
920.157	14347
920.267	14610
920.378	14450
920.488	14446
920.598	14549
920.708	14636
920.818	14541
920.928	14545
921.038	14640
921.148	14636
921.258	14419
921.368	14313
921.477	14210
921.587	14142
921.697	14050
921.806	14138
921.916	13986
922.025	13856
922.134	13837
922.244	13734
922.353	13860
922.462	13750
922.571	13506
922.68	13343
922.789	13373
922.898	13445
923.007	13285
923.116	13441
923.224	13415
923.333	13480
923.442	13400
923.55	13297
923.659	13324
923.767	13434
923.876	13263
923.984	13293
924.092	13118
924.201	13187
924.309	13282
924.417	13247
924.525	13122
924.633	13099
924.741	13765
924.849	12890
924.956	13095
925.064	12901
925.172	12730
925.279	12863
925.387	12928
925.494	12856
925.602	13050
925.709	12859
925.816	12776
925.924	12772
926.031	12916
926.138	12726
926.245	12791
926.352	12707
926.459	12795
926.566	12814
926.673	12722
926.779	12707
926.886	12597
926.993	12506
927.099	12486
927.206	12361
927.312	12369
927.419	12483
927.525	12403
927.631	12429
927.737	12365
927.843	12292
927.95	12258
928.056	12209
928.162	12308
928.267	12239
928.373	12935
928.479	12220
928.585	12064
928.69	12232
928.796	12194
928.901	12091
929.007	11977
929.112	12087
929.218	12030
929.323	11973
929.428	12076
929.533	12087
929.638	11908
929.743	11893
929.848	11942
929.953	11863
930.058	11817
930.163	11638
930.267	11680
930.372	11745
930.477	11619
930.581	11828
930.685	11741
930.79	11493
930.894	11646
930.998	11524
931.103	11623
931.207	11296
931.311	11254
931.415	11124
931.519	10987
931.623	10885
