Data from test_V78500241_1289.txt Node
Date: Fri Mar 25 15:18:49 CST 2022
User: usil
Spectrometer: V785-0024
Trigger mode: 0
Integration Time (sec): 4.000000E-1
Scans to average: 1
Nonlinearity correction enabled: false
Boxcar width: 0
Storing dark spectrum: false
XAxis mode: Wavelengths
Number of Pixels in Spectrum: 1024
>>>>>Begin Spectral Data<<<<<
801.071	28249
801.214	28173
801.356	28036
801.499	27747
801.641	27637
801.783	27610
801.926	27720
802.068	27808
802.211	27755
802.353	27583
802.496	27393
802.638	27488
802.78	27393
802.923	27431
803.065	27336
803.208	27256
803.35	27466
803.492	27367
803.635	27576
803.777	27534
803.919	27542
804.061	27914
804.204	27599
804.346	27557
804.488	27603
804.63	27553
804.773	27610
804.915	27591
805.057	27854
805.199	27572
805.341	27732
805.483	27770
805.626	27660
805.768	27595
805.91	27652
806.052	27857
806.194	27793
806.336	27884
806.478	27819
806.62	27766
806.762	27808
806.904	28002
807.046	28287
807.188	28128
807.33	28063
807.472	28291
807.614	27998
807.756	28158
807.898	28051
808.04	27934
808.182	28013
808.324	28116
808.465	28044
808.607	28268
808.749	28428
808.891	28428
809.033	28565
809.174	28519
809.316	28398
809.458	28493
809.6	28360
809.741	28500
809.883	28523
810.025	28748
810.166	28664
810.308	28793
810.45	28611
810.591	28565
810.733	28504
810.875	28394
811.016	28382
811.158	28276
811.299	28401
811.441	28531
811.582	28550
811.724	28489
811.865	28379
812.007	28443
812.148	28440
812.29	28367
812.431	28634
812.573	28782
812.714	28797
812.855	28892
812.997	28938
813.138	29178
813.279	29140
813.421	28961
813.562	28919
813.703	28683
813.845	28702
813.986	28325
814.127	28249
814.268	28173
814.41	28116
814.551	28147
814.692	28192
814.833	27956
814.974	28036
815.115	28162
815.256	27991
815.397	28006
815.539	28013
815.68	27941
815.821	28032
815.962	27922
816.103	27987
816.244	27816
816.385	27698
816.526	27720
816.666	27583
816.807	27412
816.948	27389
817.089	27549
817.23	27389
817.371	27405
817.512	27424
817.653	27355
817.793	27386
817.934	27294
818.075	27553
818.216	27481
818.356	27367
818.497	27180
818.638	27135
818.778	27135
818.919	27176
819.06	27089
819.2	27332
819.341	27431
819.481	27462
819.622	27595
819.762	27747
819.903	27701
820.043	27523
820.184	27580
820.324	27583
820.465	27583
820.605	27477
820.746	27599
820.886	27420
821.026	27530
821.167	27355
821.307	27618
821.447	27454
821.588	27283
821.728	27249
821.868	27017
822.008	26861
822.149	26868
822.289	26849
822.429	26731
822.569	26522
822.709	26423
822.849	26423
822.99	26499
823.13	26427
823.27	26404
823.41	26111
823.55	26161
823.69	26153
823.83	26278
823.97	26005
824.11	26096
824.25	25959
824.389	26046
824.529	26206
824.669	25955
824.809	26191
824.949	26191
825.089	26081
825.228	25993
825.368	25951
825.508	25986
825.648	26005
825.787	26069
825.927	26134
826.067	25917
826.206	25951
826.346	25940
826.485	25978
826.625	25913
826.765	26088
826.904	25898
827.044	25674
827.183	25685
827.323	25613
827.462	25731
827.601	25616
827.741	25521
827.88	25742
828.02	25594
828.159	25776
828.298	25578
828.437	25734
828.577	25632
828.716	25723
828.855	25635
828.994	25362
829.134	25358
829.273	25312
829.412	25438
829.551	25304
829.69	25491
829.829	25415
829.968	25449
830.107	25388
830.246	25358
830.385	25270
830.524	25168
830.663	25095
830.802	25164
830.941	24863
831.08	24947
831.219	24981
831.357	25057
831.496	25164
831.635	25126
831.774	24928
831.913	24875
832.051	24802
832.19	24719
832.329	24810
832.467	24730
832.606	24597
832.744	24601
832.883	24635
833.022	24597
833.16	24563
833.299	24635
833.437	24730
833.576	24669
833.714	24787
833.852	24749
833.991	24700
834.129	24726
834.267	24741
834.406	24612
834.544	24677
834.682	24730
834.821	24639
834.959	24920
835.097	24623
835.235	24825
835.373	24688
835.511	24719
835.65	24494
835.788	24593
835.926	24399
836.064	24315
836.202	24418
836.34	24604
836.478	24631
836.615	24525
836.753	24669
836.891	24665
837.029	24452
837.167	24399
837.305	24471
837.443	24407
837.58	24251
837.718	24479
837.856	24376
837.993	24201
838.131	24273
838.269	24292
838.406	24315
838.544	24068
838.681	24022
838.819	23939
838.956	23870
839.094	23908
839.231	23946
839.369	24174
839.506	24251
839.643	24114
839.781	23790
839.918	23707
840.055	23691
840.193	23859
840.33	23745
840.467	23847
840.604	23805
840.742	24011
840.879	23634
841.016	23687
841.153	23608
841.29	23817
841.427	23805
841.564	23729
841.701	23775
841.838	23836
841.975	23611
842.112	23646
842.249	23535
842.385	23444
842.522	23676
842.659	23524
842.796	23539
842.933	23558
843.069	23478
843.206	23402
843.343	23512
843.479	23490
843.616	23482
843.752	23239
843.889	23326
844.025	23360
844.162	23235
844.298	23258
844.435	23231
844.571	23204
844.708	23311
844.844	23436
844.98	23414
845.117	23440
845.253	23356
845.389	23136
845.525	23064
845.661	23220
845.798	23018
845.934	23041
846.07	22908
846.206	22995
846.342	23181
846.478	22885
846.614	22820
846.75	22649
846.886	22763
847.022	22710
847.158	22675
847.294	22801
847.429	22915
847.565	22733
847.701	22976
847.837	22516
847.972	22443
848.108	22580
848.244	22462
848.379	22333
848.515	22375
848.65	22322
848.786	22242
848.921	22348
849.057	22432
849.192	22363
849.328	22363
849.463	22398
849.598	22318
849.734	22261
849.869	22215
850.004	22044
850.14	22093
850.275	22105
850.41	21937
850.545	22105
850.68	21979
850.815	22120
850.95	22051
851.085	22219
851.22	22158
851.355	22067
851.49	22002
851.625	22006
851.76	21994
851.895	21956
852.03	21991
852.165	22067
852.299	22116
852.434	22314
852.569	22078
852.703	22051
852.838	22188
852.973	22124
853.107	22276
853.242	22135
853.376	22002
853.511	21797
853.645	21854
853.78	22059
853.914	21941
854.048	21732
854.183	21918
854.317	21831
854.451	21972
854.585	21934
854.72	21915
854.854	22070
854.988	21899
855.122	21797
855.256	21831
855.39	21835
855.524	22082
855.658	21956
855.792	21964
855.926	21968
856.06	21873
856.194	22021
856.327	21934
856.461	21869
856.595	21831
856.729	21717
856.862	21998
856.996	22025
857.13	21998
857.263	22082
857.397	22067
857.53	21895
857.664	21979
857.797	21899
857.931	21926
858.064	22017
858.197	22013
858.331	21838
858.464	21934
858.597	21873
858.731	21857
858.864	21785
858.997	21926
859.13	21983
859.263	21873
859.396	21975
859.529	21838
859.662	21854
859.795	21854
859.928	21975
860.061	22154
860.194	22116
860.327	21994
860.46	21899
860.592	22070
860.725	22013
860.858	22025
860.99	21831
861.123	21907
861.256	21835
861.388	21926
861.521	22660
861.653	21835
861.786	21660
861.918	21542
862.05	21755
862.183	21884
862.315	21793
862.447	21854
862.58	21804
862.712	21622
862.844	21618
862.976	21709
863.108	21724
863.24	22059
863.372	21572
863.504	21519
863.636	21663
863.768	21656
863.9	21583
864.032	21545
864.164	21553
864.296	21675
864.428	21698
864.559	21606
864.691	21583
864.823	21564
864.954	21644
865.086	21595
865.217	21492
865.349	21454
865.48	21462
865.612	21481
865.743	21739
865.875	21553
866.006	21439
866.137	21454
866.269	21466
866.4	21485
866.531	21306
866.662	21329
866.793	21374
866.924	21397
867.055	21534
867.186	21530
867.317	21370
867.448	21332
867.579	21256
867.71	21279
867.841	21355
867.972	21321
868.103	21233
868.233	21416
868.364	21408
868.495	21557
868.625	21728
868.756	21705
868.886	21671
869.017	21720
869.147	21770
869.278	21884
869.408	21762
869.539	21698
869.669	21641
869.799	21705
869.929	21831
870.06	21789
870.19	22021
870.32	21899
870.45	21998
870.58	22032
870.71	22105
870.84	22116
870.97	22032
871.1	22070
871.23	22226
871.36	22147
871.489	22188
871.619	22223
871.749	22196
871.879	22188
872.008	22318
872.138	22253
872.267	22382
872.397	22067
872.526	22116
872.656	22040
872.785	22059
872.915	22188
873.044	22337
873.173	22352
873.303	22306
873.432	22413
873.561	22352
873.69	22360
873.819	22390
873.948	22352
874.077	22188
874.206	22249
874.335	22150
874.464	22417
874.593	22542
874.722	22409
874.851	22653
874.979	22497
875.108	22478
875.237	22489
875.365	22440
875.494	22550
875.623	22523
875.751	22356
875.88	22470
876.008	22459
876.136	22687
876.265	22828
876.393	23006
876.521	22869
876.65	22927
876.778	22923
876.906	22915
877.034	22736
877.162	22809
877.29	22774
877.418	22774
877.546	22831
877.674	22919
877.802	22858
877.93	22752
878.058	22736
878.185	22687
878.313	22763
878.441	22816
878.568	22618
878.696	22763
878.824	22854
878.951	22991
879.079	22923
879.206	23109
879.333	22999
879.461	22816
879.588	22820
879.715	22968
879.842	23140
879.97	22858
880.097	22660
880.224	22656
880.351	22618
880.478	22577
880.605	22656
880.732	22763
880.859	22828
880.986	22675
881.112	22660
881.239	22432
881.366	22310
881.493	22333
881.619	22124
881.746	22268
881.872	22242
881.999	22090
882.125	22128
882.252	22154
882.378	22040
882.505	22314
882.631	22093
882.757	21941
882.883	21991
883.01	21934
883.136	21884
883.262	21736
883.388	21679
883.514	21907
883.64	21915
883.766	21903
883.892	21713
884.018	21633
884.143	21766
884.269	21831
884.395	21641
884.52	21564
884.646	21610
884.772	21488
884.897	21321
885.023	21538
885.148	21523
885.274	21865
885.399	21549
885.524	21473
885.65	21637
885.775	21568
885.9	21549
886.025	21663
886.15	21682
886.275	21564
886.4	21401
886.525	21549
886.65	21530
886.775	21507
886.9	21469
887.025	21762
887.149	21496
887.274	21279
887.399	21226
887.523	21374
887.648	21214
887.773	21169
887.897	21370
888.021	21393
888.146	21313
888.27	21302
888.395	21275
888.519	21252
888.643	21386
888.767	21412
888.891	21131
889.015	21146
889.139	21161
889.263	21043
889.387	21142
889.511	21195
889.635	21245
889.759	21047
889.883	21104
890.006	21127
890.13	21203
890.254	20975
890.377	21047
890.501	20826
890.624	20853
890.748	20876
890.871	20830
890.995	20667
891.118	20583
891.241	20746
891.364	20667
891.488	20883
891.611	20663
891.734	20705
891.857	20727
891.98	20651
892.103	20781
892.226	20720
892.349	20598
892.471	20465
892.594	20522
892.717	20549
892.839	20556
892.962	20575
893.085	20667
893.207	20625
893.33	20594
893.452	20549
893.575	20648
893.697	20484
893.819	20625
893.941	20724
894.064	20686
894.186	20522
894.308	20431
894.43	20579
894.552	20758
894.674	20663
894.796	20393
894.918	20617
895.04	20514
895.161	20636
895.283	20575
895.405	20545
895.526	20556
895.648	20545
895.769	20545
895.891	20678
896.012	20720
896.134	20606
896.255	20526
896.376	20499
896.498	20522
896.619	20617
896.74	20484
896.861	20606
896.982	20754
897.103	20994
897.224	20853
897.345	20743
897.466	20625
897.587	20754
897.708	20834
897.828	20792
897.949	20644
898.07	20545
898.19	20606
898.311	20777
898.431	20609
898.552	20686
898.672	20796
898.792	20842
898.913	20701
899.033	20609
899.153	20556
899.273	20434
899.393	20537
899.513	20499
899.633	20533
899.753	20465
899.873	20366
899.993	20503
900.113	20469
900.232	20514
900.352	20457
900.472	20351
900.591	20180
900.711	20355
900.83	20180
900.95	20385
901.069	20366
901.189	20088
901.308	19925
901.427	19826
901.546	19974
901.665	19803
901.784	19868
901.904	19769
902.023	19590
902.141	19365
902.26	19388
902.379	19335
902.498	19343
902.617	19335
902.735	19335
902.854	19316
902.973	19350
903.091	18943
903.21	19053
903.328	18996
903.446	18977
903.565	18753
903.683	18829
903.801	18726
903.919	18783
904.038	18760
904.156	18620
904.274	18673
904.392	18563
904.51	18471
904.627	18536
904.745	18547
904.863	18661
904.981	18418
905.098	18243
905.216	18209
905.334	18372
905.451	18315
905.569	18144
905.686	18178
905.803	18228
905.921	18076
906.038	18300
906.155	18083
906.272	17935
906.389	18022
906.506	17885
906.623	17790
906.74	17817
906.857	17653
906.974	17813
907.091	17836
907.208	17954
907.324	17889
907.441	17695
907.557	17452
907.674	17402
907.79	17471
907.907	17429
908.023	17474
908.139	17440
908.256	17497
908.372	17402
908.488	17322
908.604	17204
908.72	17178
908.836	17277
908.952	17178
909.068	17220
909.184	17307
909.3	17174
909.415	17307
909.531	17155
909.647	17037
909.762	16957
909.878	16984
909.993	16923
910.108	16949
910.224	16904
910.339	16896
910.454	16740
910.57	16649
910.685	16668
910.8	16923
910.915	16885
911.03	16691
911.145	16592
911.259	16580
911.374	16546
911.489	16352
911.604	16375
911.718	16215
911.833	16341
911.947	16143
912.062	16112
912.176	16238
912.291	16322
912.405	16188
912.519	16424
912.633	16428
912.748	16272
912.862	16162
912.976	16086
913.09	15895
913.204	16017
913.318	16093
913.431	16150
913.545	16173
913.659	16154
913.772	16158
913.886	15873
914	15812
914.113	15972
914.226	16010
914.34	15979
914.453	15808
914.566	16010
914.68	15717
914.793	15717
914.906	15477
915.019	15530
915.132	15405
915.245	15469
915.358	15500
915.47	15393
915.583	15412
915.696	15431
915.809	15564
915.921	15633
916.034	15443
916.146	15405
916.259	15302
916.371	15462
916.483	15450
916.595	15313
916.708	15142
916.82	15325
916.932	15207
917.044	15237
917.156	15165
917.268	15116
917.38	15157
917.491	14994
917.603	15043
917.715	15154
917.826	15131
917.938	14914
918.049	14941
918.161	15077
918.272	15077
918.384	15146
918.495	14941
918.606	14914
918.717	14743
918.828	14918
918.939	14868
919.05	14678
919.161	14834
919.272	14552
919.383	14686
919.494	14838
919.604	15039
919.715	14804
919.826	14796
919.936	14819
920.047	14773
920.157	14883
920.267	14990
920.378	14708
920.488	14727
920.598	14887
920.708	15085
920.818	14975
920.928	14933
921.038	15020
921.148	14967
921.258	14705
921.368	14678
921.477	14537
921.587	14552
921.697	14347
921.806	14522
921.916	14408
922.025	14252
922.134	14225
922.244	14161
922.353	14206
922.462	14088
922.571	14005
922.68	13852
922.789	13822
922.898	13902
923.007	13875
923.116	13795
923.224	13772
923.333	13791
923.442	13719
923.55	13537
923.659	13693
923.767	13780
923.876	13666
923.984	13616
924.092	13575
924.201	13628
924.309	13491
924.417	13544
924.525	13445
924.633	13502
924.741	14438
924.849	13255
924.956	13381
925.064	13266
925.172	13187
925.279	13244
925.387	13285
925.494	13183
925.602	13464
925.709	13247
925.816	13160
925.924	13069
926.031	13187
926.138	13149
926.245	13213
926.352	13008
926.459	13099
926.566	13228
926.673	13099
926.779	12977
926.886	12772
926.993	12859
927.099	12681
927.206	12745
927.312	12768
927.419	12662
927.525	12757
927.631	12821
927.737	12662
927.843	12635
927.95	12555
928.056	12597
928.162	12635
928.267	12623
928.373	13247
928.479	12677
928.585	12403
928.69	12509
928.796	12559
928.901	12456
929.007	12285
929.112	12330
929.218	12338
929.323	12311
929.428	12262
929.533	12365
929.638	12224
929.743	12209
929.848	12277
929.953	12194
930.058	12148
930.163	11870
930.267	12007
930.372	12133
930.477	11897
930.581	12182
930.685	12041
930.79	11897
930.894	11988
930.998	11950
931.103	11859
931.207	11672
931.311	11505
931.415	11429
931.519	11284
931.623	11216
