Data from test_V78500241_3416.txt Node
Date: Fri Mar 25 15:33:38 CST 2022
User: usil
Spectrometer: V785-0024
Trigger mode: 0
Integration Time (sec): 4.000000E-1
Scans to average: 1
Nonlinearity correction enabled: false
Boxcar width: 0
Storing dark spectrum: false
XAxis mode: Wavelengths
Number of Pixels in Spectrum: 1024
>>>>>Begin Spectral Data<<<<<
801.071	27135
801.214	27154
801.356	26929
801.499	26910
801.641	26743
801.783	26758
801.926	26804
802.068	26754
802.211	26625
802.353	26545
802.496	26507
802.638	26332
802.78	26252
802.923	26244
803.065	26081
803.208	26084
803.35	26415
803.492	26503
803.635	26503
803.777	26362
803.919	26625
804.061	26777
804.204	26663
804.346	26442
804.488	26453
804.63	26533
804.773	26377
804.915	26613
805.057	26609
805.199	26484
805.341	26625
805.483	26632
805.626	26655
805.768	26530
805.91	26629
806.052	26712
806.194	26583
806.336	26899
806.478	26708
806.62	26514
806.762	26785
806.904	26830
807.046	27009
807.188	27108
807.33	27036
807.472	27169
807.614	26975
807.756	26998
807.898	26880
808.04	26785
808.182	26750
808.324	26899
808.465	26921
808.607	27036
808.749	27180
808.891	27275
809.033	27275
809.174	27264
809.316	27298
809.458	27355
809.6	27207
809.741	27260
809.883	27340
810.025	27557
810.166	27504
810.308	27397
810.45	27492
810.591	27412
810.733	27237
810.875	27211
811.016	27104
811.158	27199
811.299	27199
811.441	27397
811.582	27393
811.724	27176
811.865	27180
812.007	27188
812.148	27195
812.29	27222
812.431	27329
812.573	27576
812.714	27606
812.855	27823
812.997	27876
813.138	27804
813.279	27762
813.421	27751
813.562	27675
813.703	27538
813.845	27378
813.986	27195
814.127	26940
814.268	26853
814.41	26895
814.551	26868
814.692	26929
814.833	26895
814.974	26777
815.115	26918
815.256	26720
815.397	26640
815.539	26880
815.68	26735
815.821	26651
815.962	26705
816.103	26708
816.244	26453
816.385	26377
816.526	26374
816.666	26278
816.807	26039
816.948	26206
817.089	26214
817.23	26206
817.371	26134
817.512	26195
817.653	26145
817.793	26005
817.934	25951
818.075	26256
818.216	26122
818.356	26043
818.497	26043
818.638	25947
818.778	25887
818.919	25871
819.06	25864
819.2	26035
819.341	26199
819.481	26031
819.622	26339
819.762	26263
819.903	26347
820.043	26298
820.184	26282
820.324	26206
820.465	26362
820.605	26157
820.746	26218
820.886	26096
821.026	26320
821.167	26103
821.307	26195
821.447	26043
821.588	26134
821.728	25841
821.868	25696
822.008	25575
822.149	25651
822.289	25544
822.429	25308
822.569	25236
822.709	25331
822.849	25137
822.99	25175
823.13	25148
823.27	25053
823.41	24970
823.55	24935
823.69	24897
823.83	24806
823.97	24920
824.11	24711
824.25	24673
824.389	24760
824.529	24783
824.669	24760
824.809	24730
824.949	24764
825.089	24798
825.228	24817
825.368	24635
825.508	24692
825.648	24517
825.787	24696
825.927	24642
826.067	24460
826.206	24700
826.346	24741
826.485	24589
826.625	24631
826.765	24810
826.904	24726
827.044	24376
827.183	24334
827.323	24300
827.462	24490
827.601	24445
827.741	24281
827.88	24300
828.02	24273
828.159	24220
828.298	24399
828.437	24441
828.577	24270
828.716	24361
828.855	24194
828.994	24106
829.134	24102
829.273	24057
829.412	24041
829.551	23973
829.69	24117
829.829	24117
829.968	24232
830.107	24129
830.246	24083
830.385	23958
830.524	24003
830.663	23908
830.802	23882
830.941	23619
831.08	23802
831.219	23885
831.357	23752
831.496	23771
831.635	23596
831.774	23551
831.913	23615
832.051	23398
832.19	23452
832.329	23493
832.467	23372
832.606	23353
832.744	23292
832.883	23356
833.022	23200
833.16	23280
833.299	23528
833.437	23391
833.576	23368
833.714	23402
833.852	23421
833.991	23596
834.129	23524
834.267	23463
834.406	23296
834.544	23539
834.682	23486
834.821	23436
834.959	23653
835.097	23318
835.235	23516
835.373	23501
835.511	23364
835.65	23273
835.788	23334
835.926	23174
836.064	23014
836.202	23143
836.34	23250
836.478	23353
836.615	23185
836.753	23307
836.891	23216
837.029	23490
837.167	23185
837.305	23303
837.443	23200
837.58	23079
837.718	23193
837.856	23155
837.993	23052
838.131	23071
838.269	23044
838.406	22934
838.544	22984
838.681	22805
838.819	22698
838.956	22634
839.094	22729
839.231	22717
839.369	22824
839.506	22961
839.643	22793
839.781	22512
839.918	22485
840.055	22607
840.193	22577
840.33	22641
840.467	22569
840.604	22519
840.742	22828
840.879	22352
841.016	22455
841.153	22497
841.29	22641
841.427	22523
841.564	22577
841.701	22474
841.838	22470
841.975	22554
842.112	22531
842.249	22325
842.385	22318
842.522	22493
842.659	22318
842.796	22333
842.933	22268
843.069	22223
843.206	22310
843.343	22303
843.479	22421
843.616	22306
843.752	22154
843.889	22017
844.025	22196
844.162	22067
844.298	22124
844.435	21975
844.571	22044
844.708	22181
844.844	22169
844.98	22101
845.117	22242
845.253	21998
845.389	21861
845.525	21915
845.661	21953
845.798	21698
845.934	21857
846.07	21778
846.206	21854
846.342	22002
846.478	21812
846.614	21629
846.75	21431
846.886	21587
847.022	21663
847.158	21572
847.294	21656
847.429	21618
847.565	21515
847.701	21762
847.837	21268
847.972	21348
848.108	21359
848.244	21340
848.379	21135
848.515	21127
848.65	21119
848.786	21176
848.921	21081
849.057	21310
849.192	21211
849.328	21214
849.463	21077
849.598	21104
849.734	21028
849.869	21024
850.004	20929
850.14	20937
850.275	21024
850.41	20880
850.545	20929
850.68	20864
850.815	20944
850.95	20986
851.085	21001
851.22	21009
851.355	21039
851.49	20853
851.625	20788
851.76	20899
851.895	20880
852.03	20735
852.165	21028
852.299	20929
852.434	20994
852.569	20895
852.703	20952
852.838	21047
852.973	21001
853.107	21039
853.242	20807
853.376	20712
853.511	20640
853.645	20602
853.78	20815
853.914	20815
854.048	20731
854.183	20743
854.317	20815
854.451	20963
854.585	20743
854.72	20667
854.854	20777
854.988	20667
855.122	20758
855.256	20655
855.39	20785
855.524	20819
855.658	20804
855.792	20788
855.926	20758
856.06	20758
856.194	20811
856.327	20716
856.461	20697
856.595	20575
856.729	20693
856.862	20838
856.996	20796
857.13	20769
857.263	20804
857.397	20830
857.53	20750
857.664	20807
857.797	20750
857.931	20754
858.064	20735
858.197	20918
858.331	20667
858.464	20720
858.597	20644
858.731	20712
858.864	20762
858.997	20682
859.13	20731
859.263	20746
859.396	20853
859.529	20705
859.662	20678
859.795	20621
859.928	20701
860.061	20845
860.194	20838
860.327	20754
860.46	20606
860.592	20811
860.725	20880
860.858	20956
860.99	20708
861.123	20583
861.256	20636
861.388	20773
861.521	21439
861.653	20590
861.786	20549
861.918	20629
862.05	20716
862.183	20655
862.315	20743
862.447	20746
862.58	20602
862.712	20404
862.844	20374
862.976	20587
863.108	20533
863.24	20899
863.372	20427
863.504	20412
863.636	20450
863.768	20473
863.9	20446
864.032	20355
864.164	20560
864.296	20473
864.428	20594
864.559	20488
864.691	20533
864.823	20400
864.954	20336
865.086	20377
865.217	20313
865.349	20351
865.48	20396
865.612	20305
865.743	20393
865.875	20370
866.006	20366
866.137	20488
866.269	20248
866.4	20339
866.531	20252
866.662	20214
866.793	20256
866.924	20343
867.055	20339
867.186	20221
867.317	20237
867.448	20142
867.579	20275
867.71	20286
867.841	20172
867.972	20434
868.103	20309
868.233	20244
868.364	20370
868.495	20343
868.625	20701
868.756	20735
868.886	20427
869.017	20560
869.147	20629
869.278	20533
869.408	20579
869.539	20579
869.669	20659
869.799	20446
869.929	20556
870.06	20697
870.19	20864
870.32	20807
870.45	21055
870.58	20849
870.71	21024
870.84	21195
870.97	21047
871.1	20876
871.23	21142
871.36	21108
871.489	21024
871.619	21036
871.749	21123
871.879	21241
872.008	21340
872.138	21138
872.267	21135
872.397	21058
872.526	20998
872.656	20998
872.785	20921
872.915	21222
873.044	21279
873.173	21154
873.303	21199
873.432	21207
873.561	21233
873.69	21192
873.819	21195
873.948	21165
874.077	21165
874.206	21176
874.335	21138
874.464	21302
874.593	21336
874.722	21397
874.851	21488
874.979	21507
875.108	21473
875.237	21382
875.365	21340
875.494	21321
875.623	21481
875.751	21317
875.88	21374
876.008	21492
876.136	21698
876.265	21926
876.393	21804
876.521	21884
876.65	21819
876.778	21823
876.906	21816
877.034	21724
877.162	21736
877.29	21618
877.418	21831
877.546	21800
877.674	21690
877.802	21816
877.93	21709
878.058	21690
878.185	21637
878.313	21778
878.441	21857
878.568	21717
878.696	21644
878.824	21861
878.951	21880
879.079	22002
879.206	21994
879.333	21945
879.461	21880
879.588	21663
879.715	21930
879.842	22032
879.97	21808
880.097	21496
880.224	21591
880.351	21644
880.478	21606
880.605	21500
880.732	21568
880.859	21930
880.986	21568
881.112	21679
881.239	21378
881.366	21420
881.493	21226
881.619	21096
881.746	21226
881.872	21207
881.999	21119
882.125	21165
882.252	21283
882.378	21066
882.505	21310
882.631	21009
882.757	20921
882.883	20941
883.01	20861
883.136	20826
883.262	20769
883.388	20579
883.514	20963
883.64	20990
883.766	20765
883.892	20564
884.018	20632
884.143	20914
884.269	20902
884.395	20560
884.52	20442
884.646	20518
884.772	20495
884.897	20385
885.023	20640
885.148	20663
885.274	20720
885.399	20629
885.524	20568
885.65	20530
885.775	20594
885.9	20522
886.025	20655
886.15	20549
886.275	20465
886.4	20339
886.525	20431
886.65	20336
886.775	20450
886.9	20663
887.025	20712
887.149	20514
887.274	20343
887.399	20305
887.523	20180
887.648	20237
887.773	20229
887.897	20404
888.021	20339
888.146	20252
888.27	20343
888.395	20393
888.519	20336
888.643	20309
888.767	20313
888.891	20210
889.015	19959
889.139	20282
889.263	20073
889.387	20221
889.511	20313
889.635	20202
889.759	20073
889.883	19940
890.006	19986
890.13	20259
890.254	20027
890.377	19898
890.501	19780
890.624	19860
890.748	19875
890.871	19830
890.995	19590
891.118	19552
891.241	19533
891.364	19704
891.488	19833
891.611	19677
891.734	19677
891.857	19765
891.98	19750
892.103	19719
892.226	19700
892.349	19639
892.471	19487
892.594	19601
892.717	19731
892.839	19613
892.962	19658
893.085	19647
893.207	19624
893.33	19548
893.452	19529
893.575	19632
893.697	19594
893.819	19734
893.941	19712
894.064	19677
894.186	19460
894.308	19575
894.43	19681
894.552	19742
894.674	19597
894.796	19594
894.918	19635
895.04	19510
895.161	19780
895.283	19586
895.405	19567
895.526	19674
895.648	19685
895.769	19525
895.891	19708
896.012	19723
896.134	19635
896.255	19552
896.376	19605
896.498	19590
896.619	19521
896.74	19544
896.861	19780
896.982	19932
897.103	20153
897.224	19909
897.345	19887
897.466	19708
897.587	19712
897.708	19818
897.828	19879
897.949	19738
898.07	19719
898.19	19742
898.311	19894
898.431	19757
898.552	19761
898.672	19856
898.792	19776
898.913	19772
899.033	19632
899.153	19639
899.273	19514
899.393	19575
899.513	19643
899.633	19620
899.753	19757
899.873	19499
899.993	19594
900.113	19613
900.232	19616
900.352	19510
900.472	19518
900.591	19400
900.711	19392
900.83	19259
900.95	19407
901.069	19415
901.189	19232
901.308	18951
901.427	18871
901.546	18913
901.665	18989
901.784	19076
901.904	18776
902.023	18726
902.141	18540
902.26	18494
902.379	18589
902.498	18490
902.617	18433
902.735	18426
902.854	18445
902.973	18418
903.091	18171
903.21	18045
903.328	18079
903.446	18007
903.565	18011
903.683	17965
903.801	17828
903.919	18038
904.038	17893
904.156	17592
904.274	17737
904.392	17775
904.51	17646
904.627	17714
904.745	17798
904.863	17726
904.981	17455
905.098	17402
905.216	17402
905.334	17474
905.451	17395
905.569	17368
905.686	17402
905.803	17433
905.921	17117
906.038	17261
906.155	17162
906.272	17117
906.389	17083
906.506	16942
906.623	17010
906.74	16911
906.857	16790
906.974	16790
907.091	16919
907.208	17029
907.324	16911
907.441	16858
907.557	16755
907.674	16710
907.79	16573
907.907	16569
908.023	16569
908.139	16706
908.256	16668
908.372	16546
908.488	16512
908.604	16451
908.72	16375
908.836	16314
908.952	16428
909.068	16398
909.184	16421
909.3	16455
909.415	16409
909.531	16337
909.647	16112
909.762	16147
909.878	16086
909.993	16071
910.108	16040
910.224	15968
910.339	16112
910.454	15975
910.57	15998
910.685	15831
910.8	16078
910.915	16067
911.03	15876
911.145	15701
911.259	15652
911.374	15660
911.489	15633
911.604	15564
911.718	15450
911.833	15393
911.947	15329
912.062	15279
912.176	15408
912.291	15538
912.405	15424
912.519	15644
912.633	15625
912.748	15370
912.862	15519
912.976	15294
913.09	15226
913.204	15249
913.318	15416
913.431	15367
913.545	15351
913.659	15386
913.772	15154
913.886	15108
914	15051
914.113	15146
914.226	15241
914.34	15188
914.453	14963
914.566	15142
914.68	14998
914.793	14994
914.906	14838
915.019	14651
915.132	14587
915.245	14785
915.358	14701
915.47	14708
915.583	14724
915.696	14762
915.809	14807
915.921	14739
916.034	14632
916.146	14590
916.259	14606
916.371	14811
916.483	14629
916.595	14621
916.708	14590
916.82	14488
916.932	14526
917.044	14564
917.156	14511
917.268	14294
917.38	14332
917.491	14423
917.603	14377
917.715	14339
917.826	14408
917.938	14324
918.049	14225
918.161	14259
918.272	14370
918.384	14518
918.495	14286
918.606	14145
918.717	14126
918.828	14164
918.939	14161
919.05	13989
919.161	14153
919.272	13845
919.383	14024
919.494	14237
919.604	14290
919.715	14149
919.826	14043
919.936	14001
920.047	14172
920.157	14058
920.267	14374
920.378	14111
920.488	14092
920.598	14248
920.708	14263
920.818	14328
920.928	14233
921.038	14358
921.148	14370
921.258	14069
921.368	13864
921.477	13845
921.587	13856
921.697	13696
921.806	13811
921.916	13655
922.025	13616
922.134	13460
922.244	13449
922.353	13533
922.462	13384
922.571	13343
922.68	13164
922.789	13179
922.898	13110
923.007	13103
923.116	13183
923.224	13145
923.333	13152
923.442	12966
923.55	13008
923.659	13012
923.767	12951
923.876	12856
923.984	13065
924.092	12856
924.201	12897
924.309	12848
924.417	12993
924.525	12810
924.633	12779
924.741	13712
924.849	12582
924.956	12722
925.064	12555
925.172	12479
925.279	12589
925.387	12570
925.494	12574
925.602	12707
925.709	12669
925.816	12502
925.924	12410
926.031	12692
926.138	12517
926.245	12540
926.352	12479
926.459	12597
926.566	12711
926.673	12441
926.779	12426
926.886	12338
926.993	12213
927.099	12087
927.206	12068
927.312	12175
927.419	12232
927.525	12140
927.631	12201
927.737	12034
927.843	12087
927.95	11859
928.056	12003
928.162	11980
928.267	12060
928.373	12544
928.479	11988
928.585	11851
928.69	11996
928.796	12022
928.901	11939
929.007	11771
929.112	11783
929.218	11790
929.323	11699
929.428	11726
929.533	11855
929.638	11615
929.743	11672
929.848	11771
929.953	11649
930.058	11581
930.163	11360
930.267	11436
930.372	11623
930.477	11414
930.581	11604
930.685	11406
930.79	11242
930.894	11299
930.998	11307
931.103	11512
931.207	11025
931.311	10915
931.415	10873
931.519	10725
931.623	10675
