Data from test_V78500241_574.txt Node
Date: Fri Mar 25 15:13:51 CST 2022
User: usil
Spectrometer: V785-0024
Trigger mode: 0
Integration Time (sec): 4.000000E-1
Scans to average: 1
Nonlinearity correction enabled: false
Boxcar width: 0
Storing dark spectrum: false
XAxis mode: Wavelengths
Number of Pixels in Spectrum: 1024
>>>>>Begin Spectral Data<<<<<
801.071	27279
801.214	27294
801.356	27062
801.499	27093
801.641	26902
801.783	26994
801.926	26937
802.068	26785
802.211	26785
802.353	26609
802.496	26617
802.638	26533
802.78	26571
802.923	26473
803.065	26488
803.208	26465
803.35	26499
803.492	26678
803.635	26754
803.777	26594
803.919	26678
804.061	26910
804.204	26765
804.346	26522
804.488	26632
804.63	26716
804.773	26560
804.915	26705
805.057	26701
805.199	26556
805.341	26785
805.483	26845
805.626	26750
805.768	26678
805.91	26689
806.052	26746
806.194	26712
806.336	27013
806.478	26830
806.62	26823
806.762	27009
806.904	27058
807.046	27408
807.188	27313
807.33	27233
807.472	27325
807.614	27093
807.756	27260
807.898	27055
808.04	27001
808.182	26956
808.324	27119
808.465	26986
808.607	27081
808.749	27488
808.891	27462
809.033	27625
809.174	27401
809.316	27443
809.458	27511
809.6	27454
809.741	27644
809.883	27545
810.025	27705
810.166	27724
810.308	27686
810.45	27736
810.591	27660
810.733	27545
810.875	27340
811.016	27348
811.158	27370
811.299	27496
811.441	27549
811.582	27458
811.724	27443
811.865	27363
812.007	27199
812.148	27370
812.29	27576
812.431	27496
812.573	27880
812.714	27717
812.855	28021
812.997	28105
813.138	28219
813.279	28059
813.421	27975
813.562	27953
813.703	27816
813.845	27629
813.986	27302
814.127	27336
814.268	27203
814.41	27051
814.551	26994
814.692	27066
814.833	27039
814.974	27116
815.115	27154
815.256	27062
815.397	26975
815.539	27039
815.68	26838
815.821	26716
815.962	26891
816.103	26781
816.244	26727
816.385	26678
816.526	26609
816.666	26541
816.807	26301
816.948	26583
817.089	26427
817.23	26552
817.371	26343
817.512	26518
817.653	26377
817.793	26355
817.934	26442
818.075	26362
818.216	26389
818.356	26514
818.497	26202
818.638	26138
818.778	26142
818.919	26183
819.06	26195
819.2	26347
819.341	26514
819.481	26412
819.622	26587
819.762	26651
819.903	26541
820.043	26522
820.184	26298
820.324	26484
820.465	26632
820.605	26419
820.746	26370
820.886	26377
821.026	26549
821.167	26423
821.307	26579
821.447	26431
821.588	26358
821.728	26145
821.868	25986
822.008	25871
822.149	25780
822.289	25791
822.429	25628
822.569	25472
822.709	25384
822.849	25324
822.99	25327
823.13	25301
823.27	25240
823.41	25194
823.55	25015
823.69	25095
823.83	25148
823.97	25122
824.11	25012
824.25	24977
824.389	24939
824.529	25107
824.669	24947
824.809	25034
824.949	25091
825.089	25050
825.228	24989
825.368	24791
825.508	24913
825.648	24741
825.787	24924
825.927	24924
826.067	24810
826.206	24821
826.346	24852
826.485	24928
826.625	24844
826.765	24920
826.904	24882
827.044	24730
827.183	24585
827.323	24505
827.462	24665
827.601	24585
827.741	24563
827.88	24612
828.02	24395
828.159	24665
828.298	24597
828.437	24559
828.577	24403
828.716	24669
828.855	24311
828.994	24296
829.134	24232
829.273	24209
829.412	24102
829.551	24213
829.69	24292
829.829	24277
829.968	24422
830.107	24319
830.246	24140
830.385	24254
830.524	24072
830.663	24243
830.802	24076
830.941	23847
831.08	23874
831.219	23920
831.357	23923
831.496	24057
831.635	23790
831.774	23779
831.913	23802
832.051	23665
832.19	23562
832.329	23592
832.467	23729
832.606	23528
832.744	23417
832.883	23562
833.022	23535
833.16	23596
833.299	23642
833.437	23657
833.576	23665
833.714	23646
833.852	23726
833.991	23729
834.129	23627
834.267	23718
834.406	23691
834.544	23539
834.682	23570
834.821	23687
834.959	23748
835.097	23585
835.235	23649
835.373	23566
835.511	23691
835.65	23676
835.788	23459
835.926	23360
836.064	23356
836.202	23330
836.34	23463
836.478	23524
836.615	23326
836.753	23429
836.891	23490
837.029	23417
837.167	23402
837.305	23307
837.443	23364
837.58	23151
837.718	23231
837.856	23280
837.993	23299
838.131	23277
838.269	23349
838.406	23143
838.544	23132
838.681	23067
838.819	22896
838.956	22729
839.094	22786
839.231	22835
839.369	22953
839.506	23185
839.643	23048
839.781	22809
839.918	22733
840.055	22812
840.193	22782
840.33	22725
840.467	22603
840.604	22713
840.742	22889
840.879	22641
841.016	22523
841.153	22611
841.29	22607
841.427	22763
841.564	22744
841.701	22615
841.838	22706
841.975	22554
842.112	22615
842.249	22451
842.385	22421
842.522	22622
842.659	22512
842.796	22409
842.933	22512
843.069	22432
843.206	22478
843.343	22538
843.479	22455
843.616	22497
843.752	22280
843.889	22299
844.025	22462
844.162	22402
844.298	22451
844.435	22207
844.571	22360
844.708	22204
844.844	22519
844.98	22390
845.117	22379
845.253	22185
845.389	22093
845.525	22082
845.661	22051
845.798	22116
845.934	22021
846.07	21907
846.206	21937
846.342	22124
846.478	22036
846.614	21751
846.75	21686
846.886	21785
847.022	21808
847.158	21766
847.294	21705
847.429	21770
847.565	21705
847.701	21922
847.837	21439
847.972	21408
848.108	21431
848.244	21348
848.379	21317
848.515	21317
848.65	21370
848.786	21321
848.921	21458
849.057	21504
849.192	21329
849.328	21302
849.463	21272
849.598	21325
849.734	21203
849.869	21154
850.004	21017
850.14	21119
850.275	21096
850.41	20998
850.545	21104
850.68	20990
850.815	21135
850.95	21066
851.085	21222
851.22	21176
851.355	21199
851.49	21058
851.625	21032
851.76	21043
851.895	20910
852.03	21009
852.165	21051
852.299	21150
852.434	21123
852.569	21062
852.703	21062
852.838	21154
852.973	21222
853.107	21203
853.242	21089
853.376	20921
853.511	20956
853.645	20811
853.78	21036
853.914	21005
854.048	20918
854.183	20883
854.317	20899
854.451	21096
854.585	20857
854.72	20819
854.854	21009
854.988	20731
855.122	20937
855.256	20750
855.39	20864
855.524	20990
855.658	20899
855.792	20918
855.926	20883
856.06	20990
856.194	21077
856.327	20849
856.461	20952
856.595	20876
856.729	20796
856.862	20929
856.996	20868
857.13	20952
857.263	21077
857.397	20971
857.53	20899
857.664	20975
857.797	20937
857.931	20979
858.064	20910
858.197	21032
858.331	20872
858.464	20834
858.597	20872
858.731	20883
858.864	20861
858.997	20872
859.13	20963
859.263	20929
859.396	20845
859.529	20944
859.662	20807
859.795	20899
859.928	20849
860.061	21005
860.194	21062
860.327	21017
860.46	20872
860.592	21032
860.725	21047
860.858	20925
860.99	20937
861.123	20921
861.256	20941
861.388	20857
861.521	21667
861.653	20773
861.786	20708
861.918	20689
862.05	20739
862.183	20944
862.315	20880
862.447	20933
862.58	20697
862.712	20621
862.844	20560
862.976	20754
863.108	20651
863.24	21142
863.372	20625
863.504	20697
863.636	20686
863.768	20712
863.9	20731
864.032	20686
864.164	20606
864.296	20659
864.428	20587
864.559	20644
864.691	20651
864.823	20492
864.954	20549
865.086	20568
865.217	20606
865.349	20476
865.48	20537
865.612	20522
865.743	20609
865.875	20533
866.006	20522
866.137	20492
866.269	20571
866.4	20606
866.531	20495
866.662	20339
866.793	20526
866.924	20503
867.055	20469
867.186	20514
867.317	20499
867.448	20461
867.579	20518
867.71	20419
867.841	20457
867.972	20545
868.103	20396
868.233	20450
868.364	20446
868.495	20518
868.625	20667
868.756	20807
868.886	20663
869.017	20682
869.147	20807
869.278	20788
869.408	20785
869.539	20697
869.669	20830
869.799	20712
869.929	20781
870.06	20811
870.19	20990
870.32	20914
870.45	21013
870.58	21051
870.71	21058
870.84	21294
870.97	21108
871.1	21047
871.23	21378
871.36	21237
871.489	21317
871.619	21275
871.749	21192
871.879	21367
872.008	21424
872.138	21329
872.267	21428
872.397	21154
872.526	21108
872.656	21169
872.785	21146
872.915	21351
873.044	21416
873.173	21294
873.303	21279
873.432	21397
873.561	21359
873.69	21268
873.819	21298
873.948	21507
874.077	21378
874.206	21291
874.335	21313
874.464	21435
874.593	21523
874.722	21504
874.851	21629
874.979	21603
875.108	21549
875.237	21595
875.365	21435
875.494	21538
875.623	21576
875.751	21454
875.88	21614
876.008	21656
876.136	21831
876.265	21854
876.393	22032
876.521	22017
876.65	21994
876.778	21998
876.906	21880
877.034	21937
877.162	21983
877.29	21838
877.418	21903
877.546	21819
877.674	21918
877.802	21869
877.93	21903
878.058	21831
878.185	21857
878.313	21770
878.441	21915
878.568	21751
878.696	21823
878.824	21941
878.951	22010
879.079	22059
879.206	22154
879.333	22063
879.461	21823
879.588	22078
879.715	22032
879.842	22173
879.97	21987
880.097	21690
880.224	21622
880.351	21728
880.478	21728
880.605	21557
880.732	21861
880.859	21876
880.986	21804
881.112	21751
881.239	21557
881.366	21439
881.493	21340
881.619	21313
881.746	21412
881.872	21272
881.999	21386
882.125	21329
882.252	21283
882.378	21317
882.505	21382
882.631	21218
882.757	21013
882.883	21100
883.01	21039
883.136	20963
883.262	20963
883.388	20800
883.514	20982
883.64	21116
883.766	20925
883.892	20868
884.018	20861
884.143	21085
884.269	21055
884.395	20853
884.52	20518
884.646	20739
884.772	20602
884.897	20541
885.023	20769
885.148	20785
885.274	20811
885.399	20788
885.524	20640
885.65	20674
885.775	20670
885.9	20655
886.025	20758
886.15	20830
886.275	20606
886.4	20522
886.525	20537
886.65	20670
886.775	20526
886.9	20636
887.025	20861
887.149	20621
887.274	20503
887.399	20503
887.523	20427
887.648	20389
887.773	20374
887.897	20530
888.021	20499
888.146	20438
888.27	20537
888.395	20533
888.519	20442
888.643	20518
888.767	20438
888.891	20244
889.015	20294
889.139	20233
889.263	20233
889.387	20259
889.511	20396
889.635	20396
889.759	20111
889.883	20218
890.006	20278
890.13	20317
890.254	20164
890.377	20176
890.501	20027
890.624	19978
890.748	19951
890.871	19788
890.995	19818
891.118	19780
891.241	19803
891.364	19769
891.488	19967
891.611	19864
891.734	19807
891.857	19887
891.98	19845
892.103	19826
892.226	19826
892.349	19708
892.471	19651
892.594	19700
892.717	19742
892.839	19738
892.962	19750
893.085	19894
893.207	19658
893.33	19677
893.452	19468
893.575	19845
893.697	19685
893.819	19906
893.941	19902
894.064	19898
894.186	19689
894.308	19586
894.43	19830
894.552	19807
894.674	19738
894.796	19651
894.918	19693
895.04	19696
895.161	19921
895.283	19761
895.405	19677
895.526	19776
895.648	19586
895.769	19780
895.891	19830
896.012	19837
896.134	19807
896.255	19784
896.376	19578
896.498	19723
896.619	19723
896.74	19681
896.861	19818
896.982	20062
897.103	20145
897.224	19932
897.345	19890
897.466	19913
897.587	19879
897.708	20092
897.828	19974
897.949	20012
898.07	19727
898.19	19814
898.311	20081
898.431	19860
898.552	20012
898.672	19974
898.792	19982
898.913	19955
899.033	19959
899.153	19830
899.273	19556
899.393	19750
899.513	19761
899.633	19734
899.753	19731
899.873	19753
899.993	19719
900.113	19696
900.232	19677
900.352	19525
900.472	19529
900.591	19377
900.711	19552
900.83	19430
900.95	19632
901.069	19601
901.189	19422
901.308	19266
901.427	19065
901.546	19156
901.665	19088
901.784	19057
901.904	18863
902.023	18951
902.141	18658
902.26	18612
902.379	18715
902.498	18525
902.617	18593
902.735	18509
902.854	18681
902.973	18494
903.091	18372
903.21	18251
903.328	18292
903.446	18186
903.565	18102
903.683	18152
903.801	18007
903.919	17999
904.038	18011
904.156	17889
904.274	17965
904.392	17859
904.51	17790
904.627	17718
904.745	17893
904.863	17885
904.981	17638
905.098	17539
905.216	17493
905.334	17471
905.451	17589
905.569	17543
905.686	17558
905.803	17493
905.921	17341
906.038	17436
906.155	17307
906.272	17193
906.389	17341
906.506	17174
906.623	17067
906.74	17029
906.857	16991
906.974	16972
907.091	17136
907.208	17231
907.324	17105
907.441	16919
907.557	16805
907.674	16793
907.79	16805
907.907	16717
908.023	16858
908.139	16729
908.256	16706
908.372	16599
908.488	16630
908.604	16584
908.72	16500
908.836	16531
908.952	16535
909.068	16481
909.184	16637
909.3	16493
909.415	16470
909.531	16508
909.647	16261
909.762	16230
909.878	16242
909.993	16200
910.108	16105
910.224	16120
910.339	16257
910.454	16029
910.57	16158
910.685	15960
910.8	16185
910.915	16196
911.03	16059
911.145	15941
911.259	15770
911.374	15812
911.489	15751
911.604	15610
911.718	15595
911.833	15625
911.947	15481
912.062	15393
912.176	15530
912.291	15519
912.405	15488
912.519	15732
912.633	15804
912.748	15595
912.862	15553
912.976	15462
913.09	15264
913.204	15378
913.318	15439
913.431	15462
913.545	15450
913.659	15431
913.772	15393
913.886	15291
914	15214
914.113	15355
914.226	15291
914.34	15230
914.453	14990
914.566	15138
914.68	15123
914.793	15055
914.906	14781
915.019	14849
915.132	14815
915.245	14845
915.358	14853
915.47	14857
915.583	14838
915.696	14815
915.809	14906
915.921	14948
916.034	14769
916.146	14655
916.259	14686
916.371	14773
916.483	14735
916.595	14583
916.708	14606
916.82	14667
916.932	14632
917.044	14533
917.156	14556
917.268	14404
917.38	14484
917.491	14438
917.603	14556
917.715	14533
917.826	14522
917.938	14385
918.049	14351
918.161	14294
918.272	14560
918.384	14537
918.495	14389
918.606	14263
918.717	14138
918.828	14248
918.939	14343
919.05	14096
919.161	14267
919.272	14039
919.383	14153
919.494	14309
919.604	14396
919.715	14267
919.826	14081
919.936	14271
920.047	14233
920.157	14263
920.267	14374
920.378	14115
920.488	14187
920.598	14301
920.708	14492
920.818	14377
920.928	14286
921.038	14473
921.148	14454
921.258	14149
921.368	14062
921.477	14054
921.587	13868
921.697	13833
921.806	13993
921.916	13852
922.025	13738
922.134	13540
922.244	13468
922.353	13559
922.462	13422
922.571	13403
922.68	13297
922.789	13206
922.898	13316
923.007	13228
923.116	13255
923.224	13285
923.333	13118
923.442	13061
923.55	13042
923.659	13137
923.767	13107
923.876	12985
923.984	13129
924.092	12954
924.201	12993
924.309	13004
924.417	13000
924.525	12958
924.633	12913
924.741	13845
924.849	12806
924.956	12894
925.064	12646
925.172	12665
925.279	12631
925.387	12779
925.494	12623
925.602	12802
925.709	12684
925.816	12627
925.924	12639
926.031	12764
926.138	12555
926.245	12757
926.352	12570
926.459	12722
926.566	12700
926.673	12627
926.779	12486
926.886	12464
926.993	12262
927.099	12121
927.206	12311
927.312	12159
927.419	12300
927.525	12197
927.631	12296
927.737	12129
927.843	12129
927.95	11977
928.056	12045
928.162	12049
928.267	12129
928.373	12673
928.479	12110
928.585	11965
928.69	12053
928.796	12068
928.901	11999
929.007	11798
929.112	11988
929.218	11893
929.323	11836
929.428	11813
929.533	11916
929.638	11695
929.743	11828
929.848	11802
929.953	11707
930.058	11718
930.163	11554
930.267	11463
930.372	11668
930.477	11417
930.581	11737
930.685	11638
930.79	11337
930.894	11387
930.998	11376
931.103	11532
931.207	11098
931.311	11094
931.415	11022
931.519	10778
931.623	10812
