Data from test_V78500241_597.txt Node
Date: Fri Mar 25 15:14:00 CST 2022
User: usil
Spectrometer: V785-0024
Trigger mode: 0
Integration Time (sec): 4.000000E-1
Scans to average: 1
Nonlinearity correction enabled: false
Boxcar width: 0
Storing dark spectrum: false
XAxis mode: Wavelengths
Number of Pixels in Spectrum: 1024
>>>>>Begin Spectral Data<<<<<
801.071	27294
801.214	27416
801.356	27036
801.499	27127
801.641	26975
801.783	26975
801.926	26883
802.068	26743
802.211	26746
802.353	26712
802.496	26625
802.638	26625
802.78	26583
802.923	26476
803.065	26450
803.208	26438
803.35	26594
803.492	26564
803.635	26606
803.777	26507
803.919	26682
804.061	26925
804.204	26731
804.346	26556
804.488	26594
804.63	26720
804.773	26693
804.915	26697
805.057	26857
805.199	26533
805.341	26765
805.483	26731
805.626	26853
805.768	26727
805.91	26743
806.052	26754
806.194	26678
806.336	26982
806.478	26899
806.62	26914
806.762	26933
806.904	27039
807.046	27370
807.188	27180
807.33	27260
807.472	27176
807.614	27241
807.756	27203
807.898	27062
808.04	26960
808.182	27104
808.324	27070
808.465	27001
808.607	27317
808.749	27363
808.891	27424
809.033	27564
809.174	27450
809.316	27469
809.458	27275
809.6	27397
809.741	27427
809.883	27443
810.025	27648
810.166	27709
810.308	27724
810.45	27675
810.591	27679
810.733	27564
810.875	27332
811.016	27351
811.158	27211
811.299	27530
811.441	27538
811.582	27568
811.724	27363
811.865	27416
812.007	27443
812.148	27264
812.29	27469
812.431	27515
812.573	27648
812.714	27819
812.855	28070
812.997	27972
813.138	28143
813.279	28154
813.421	27873
813.562	27987
813.703	27713
813.845	27549
813.986	27427
814.127	27249
814.268	27017
814.41	27161
814.551	27150
814.692	27089
814.833	27024
814.974	27058
815.115	27062
815.256	26994
815.397	26975
815.539	26990
815.68	26895
815.821	26876
815.962	26906
816.103	26887
816.244	26712
816.385	26648
816.526	26606
816.666	26438
816.807	26351
816.948	26545
817.089	26503
817.23	26469
817.371	26518
817.512	26377
817.653	26336
817.793	26408
817.934	26343
818.075	26366
818.216	26290
818.356	26309
818.497	26233
818.638	26069
818.778	26111
818.919	26138
819.06	26183
819.2	26267
819.341	26282
819.481	26381
819.622	26476
819.762	26849
819.903	26541
820.043	26419
820.184	26393
820.324	26552
820.465	26457
820.605	26488
820.746	26465
820.886	26294
821.026	26518
821.167	26446
821.307	26560
821.447	26423
821.588	26214
821.728	26218
821.868	25913
822.008	25833
822.149	25833
822.289	25814
822.429	25655
822.569	25487
822.709	25556
822.849	25426
822.99	25278
823.13	25263
823.27	25247
823.41	25175
823.55	25198
823.69	25171
823.83	25110
823.97	25027
824.11	24840
824.25	24783
824.389	24951
824.529	24996
824.669	24928
824.809	25129
824.949	25088
825.089	25034
825.228	24981
825.368	24829
825.508	24882
825.648	24787
825.787	24875
825.927	25027
826.067	24882
826.206	24886
826.346	24966
826.485	24859
826.625	24840
826.765	24928
826.904	24924
827.044	24722
827.183	24559
827.323	24646
827.462	24779
827.601	24566
827.741	24582
827.88	24589
828.02	24399
828.159	24612
828.298	24525
828.437	24608
828.577	24536
828.716	24711
828.855	24578
828.994	24220
829.134	24197
829.273	24277
829.412	24163
829.551	24171
829.69	24239
829.829	24327
829.968	24357
830.107	24281
830.246	24254
830.385	24072
830.524	24152
830.663	24091
830.802	23992
830.941	23859
831.08	23832
831.219	24015
831.357	23923
831.496	24041
831.635	23904
831.774	23722
831.913	23771
832.051	23589
832.19	23657
832.329	23722
832.467	23611
832.606	23509
832.744	23570
832.883	23512
833.022	23509
833.16	23604
833.299	23596
833.437	23573
833.576	23505
833.714	23608
833.852	23554
833.991	23596
834.129	23729
834.267	23570
834.406	23703
834.544	23748
834.682	23657
834.821	23558
834.959	23786
835.097	23516
835.235	23783
835.373	23672
835.511	23528
835.65	23459
835.788	23486
835.926	23330
836.064	23166
836.202	23368
836.34	23615
836.478	23493
836.615	23524
836.753	23436
836.891	23486
837.029	23414
837.167	23524
837.305	23303
837.443	23444
837.58	23360
837.718	23379
837.856	23337
837.993	23337
838.131	23265
838.269	23200
838.406	23162
838.544	23155
838.681	22961
838.819	22923
838.956	22771
839.094	22687
839.231	22767
839.369	22999
839.506	23136
839.643	23075
839.781	22786
839.918	22691
840.055	22733
840.193	22729
840.33	22694
840.467	22687
840.604	22694
840.742	22938
840.879	22691
841.016	22615
841.153	22603
841.29	22831
841.427	22683
841.564	22752
841.701	22729
841.838	22592
841.975	22569
842.112	22622
842.249	22497
842.385	22466
842.522	22721
842.659	22603
842.796	22459
842.933	22367
843.069	22432
843.206	22310
843.343	22508
843.479	22466
843.616	22489
843.752	22204
843.889	22219
844.025	22413
844.162	22211
844.298	22363
844.435	22219
844.571	22192
844.708	22284
844.844	22367
844.98	22253
845.117	22276
845.253	22150
845.389	22147
845.525	22131
845.661	22059
845.798	21968
845.934	22109
846.07	21907
846.206	22029
846.342	22051
846.478	21911
846.614	21633
846.75	21739
846.886	21671
847.022	21724
847.158	21644
847.294	21759
847.429	21701
847.565	21606
847.701	21911
847.837	21481
847.972	21359
848.108	21500
848.244	21405
848.379	21447
848.515	21283
848.65	21317
848.786	21317
848.921	21260
849.057	21348
849.192	21431
849.328	21344
849.463	21386
849.598	21237
849.734	21306
849.869	21161
850.004	21123
850.14	21024
850.275	21142
850.41	21074
850.545	21032
850.68	21009
850.815	21150
850.95	21047
851.085	21268
851.22	21142
851.355	21112
851.49	20975
851.625	21058
851.76	21017
851.895	21081
852.03	21055
852.165	21047
852.299	21116
852.434	21104
852.569	21100
852.703	21081
852.838	21135
852.973	21161
853.107	21150
853.242	20975
853.376	20925
853.511	20838
853.645	20887
853.78	20994
853.914	20849
854.048	20762
854.183	20853
854.317	20925
854.451	21036
854.585	20838
854.72	20891
854.854	20891
854.988	20857
855.122	20929
855.256	20648
855.39	20963
855.524	20944
855.658	21013
855.792	20826
855.926	20876
856.06	20830
856.194	20979
856.327	20902
856.461	20861
856.595	20868
856.729	20785
856.862	20883
856.996	20918
857.13	20914
857.263	21055
857.397	21020
857.53	20853
857.664	20891
857.797	20853
857.931	21161
858.064	21013
858.197	21017
858.331	20788
858.464	20823
858.597	20849
858.731	20826
858.864	20830
858.997	20849
859.13	20918
859.263	20925
859.396	21024
859.529	20853
859.662	20872
859.795	20857
859.928	20967
860.061	21036
860.194	21066
860.327	20944
860.46	20853
860.592	20994
860.725	21013
860.858	20971
860.99	20864
861.123	20796
861.256	20781
861.388	20720
861.521	21720
861.653	20746
861.786	20632
861.918	20731
862.05	20724
862.183	20754
862.315	20861
862.447	20872
862.58	20750
862.712	20575
862.844	20461
862.976	20632
863.108	20655
863.24	21074
863.372	20503
863.504	20533
863.636	20568
863.768	20743
863.9	20636
864.032	20499
864.164	20640
864.296	20594
864.428	20682
864.559	20731
864.691	20716
864.823	20609
864.954	20590
865.086	20480
865.217	20503
865.349	20396
865.48	20541
865.612	20545
865.743	20609
865.875	20507
866.006	20446
866.137	20347
866.269	20446
866.4	20499
866.531	20461
866.662	20423
866.793	20438
866.924	20415
867.055	20347
867.186	20457
867.317	20442
867.448	20328
867.579	20404
867.71	20480
867.841	20423
867.972	20488
868.103	20396
868.233	20450
868.364	20442
868.495	20495
868.625	20625
868.756	20674
868.886	20625
869.017	20655
869.147	20773
869.278	20781
869.408	20689
869.539	20731
869.669	20769
869.799	20777
869.929	20914
870.06	20792
870.19	21009
870.32	21017
870.45	21047
870.58	21169
870.71	21214
870.84	21302
870.97	21157
871.1	21074
871.23	21214
871.36	21363
871.489	21211
871.619	21287
871.749	21370
871.879	21462
872.008	21420
872.138	21340
872.267	21268
872.397	21241
872.526	21146
872.656	21173
872.785	21184
872.915	21378
873.044	21447
873.173	21378
873.303	21378
873.432	21435
873.561	21511
873.69	21367
873.819	21279
873.948	21397
874.077	21348
874.206	21325
874.335	21386
874.464	21492
874.593	21625
874.722	21534
874.851	21648
874.979	21603
875.108	21625
875.237	21561
875.365	21386
875.494	21542
875.623	21603
875.751	21420
875.88	21492
876.008	21717
876.136	21720
876.265	22051
876.393	21998
876.521	21998
876.65	22021
876.778	21941
876.906	21991
877.034	21819
877.162	21732
877.29	21975
877.418	21991
877.546	21941
877.674	21937
877.802	21857
877.93	21823
878.058	21964
878.185	21911
878.313	21838
878.441	21835
878.568	21774
878.696	21937
878.824	21800
878.951	21960
879.079	22116
879.206	22139
879.333	22120
879.461	21949
879.588	22002
879.715	22051
879.842	22139
879.97	21960
880.097	21709
880.224	21698
880.351	21789
880.478	21671
880.605	21675
880.732	21713
880.859	21991
880.986	21732
881.112	21755
881.239	21572
881.366	21530
881.493	21306
881.619	21348
881.746	21363
881.872	21325
881.999	21336
882.125	21188
882.252	21370
882.378	21359
882.505	21348
882.631	21176
882.757	21085
882.883	21039
883.01	21039
883.136	20986
883.262	20944
883.388	20807
883.514	21157
883.64	21055
883.766	20990
883.892	20727
884.018	20811
884.143	20998
884.269	20979
884.395	20830
884.52	20606
884.646	20667
884.772	20575
884.897	20663
885.023	20773
885.148	20769
885.274	20906
885.399	20792
885.524	20674
885.65	20697
885.775	20686
885.9	20629
886.025	20762
886.15	20834
886.275	20609
886.4	20575
886.525	20727
886.65	20583
886.775	20583
886.9	20788
887.025	20864
887.149	20644
887.274	20473
887.399	20385
887.523	20495
887.648	20473
887.773	20267
887.897	20480
888.021	20427
888.146	20358
888.27	20454
888.395	20594
888.519	20431
888.643	20434
888.767	20552
888.891	20286
889.015	20286
889.139	20278
889.263	20256
889.387	20492
889.511	20530
889.635	20358
889.759	20252
889.883	20221
890.006	20176
890.13	20301
890.254	20191
890.377	20259
890.501	20020
890.624	19959
890.748	20081
890.871	19830
890.995	19799
891.118	19761
891.241	19830
891.364	19818
891.488	19917
891.611	19769
891.734	19795
891.857	19913
891.98	19864
892.103	19906
892.226	19765
892.349	19822
892.471	19613
892.594	19666
892.717	19795
892.839	19677
892.962	19742
893.085	19750
893.207	19753
893.33	19731
893.452	19750
893.575	19788
893.697	19712
893.819	19936
893.941	19932
894.064	19814
894.186	19753
894.308	19540
894.43	19731
894.552	19860
894.674	19868
894.796	19540
894.918	19700
895.04	19655
895.161	19761
895.283	19734
895.405	19582
895.526	19734
895.648	19742
895.769	19731
895.891	19734
896.012	19696
896.134	19803
896.255	19807
896.376	19635
896.498	19681
896.619	19746
896.74	19761
896.861	19731
896.982	20149
897.103	20164
897.224	20005
897.345	19993
897.466	19849
897.587	19997
897.708	20077
897.828	19852
897.949	19860
898.07	19799
898.19	19909
898.311	20065
898.431	20012
898.552	19982
898.672	20024
898.792	20046
898.913	20024
899.033	19890
899.153	19780
899.273	19620
899.393	19712
899.513	19772
899.633	19700
899.753	19765
899.873	19578
899.993	19761
900.113	19677
900.232	19719
900.352	19620
900.472	19643
900.591	19426
900.711	19559
900.83	19540
900.95	19590
901.069	19487
901.189	19472
901.308	19046
901.427	19110
901.546	19141
901.665	19110
901.784	19042
901.904	19160
902.023	18890
902.141	18684
902.26	18639
902.379	18700
902.498	18570
902.617	18646
902.735	18563
902.854	18661
902.973	18506
903.091	18372
903.21	18330
903.328	18258
903.446	18201
903.565	18125
903.683	18034
903.801	17946
903.919	18003
904.038	18060
904.156	17939
904.274	17935
904.392	17824
904.51	17847
904.627	17745
904.745	17882
904.863	17984
904.981	17661
905.098	17581
905.216	17573
905.334	17649
905.451	17562
905.569	17520
905.686	17630
905.803	17512
905.921	17360
906.038	17463
906.155	17387
906.272	17387
906.389	17216
906.506	17185
906.623	17143
906.74	17216
906.857	16949
906.974	17003
907.091	17094
907.208	17223
907.324	17086
907.441	17041
907.557	16752
907.674	16881
907.79	16706
907.907	16748
908.023	16862
908.139	16774
908.256	16733
908.372	16748
908.488	16710
908.604	16672
908.72	16417
908.836	16523
908.952	16546
909.068	16558
909.184	16679
909.3	16367
909.415	16626
909.531	16512
909.647	16173
909.762	16261
909.878	16207
909.993	16310
910.108	16143
910.224	16219
910.339	16261
910.454	16173
910.57	16029
910.685	16013
910.8	16337
910.915	16181
911.03	15987
911.145	15941
911.259	15861
911.374	15884
911.489	15709
911.604	15648
911.718	15595
911.833	15534
911.947	15500
912.062	15370
912.176	15553
912.291	15473
912.405	15641
912.519	15698
912.633	15637
912.748	15618
912.862	15648
912.976	15378
913.09	15355
913.204	15397
913.318	15332
913.431	15466
913.545	15443
913.659	15454
913.772	15252
913.886	15123
914	15188
914.113	15386
914.226	15302
914.34	15218
914.453	15157
914.566	15192
914.68	15017
914.793	15055
914.906	14929
915.019	14731
915.132	14804
915.245	14792
915.358	14788
915.47	14872
915.583	14838
915.696	14800
915.809	14925
915.921	15001
916.034	14716
916.146	14701
916.259	14651
916.371	14781
916.483	14697
916.595	14674
916.708	14693
916.82	14667
916.932	14674
917.044	14594
917.156	14621
917.268	14488
917.38	14533
917.491	14518
917.603	14507
917.715	14541
917.826	14556
917.938	14442
918.049	14320
918.161	14427
918.272	14640
918.384	14484
918.495	14495
918.606	14237
918.717	14248
918.828	14210
918.939	14275
919.05	14210
919.161	14187
919.272	14088
919.383	14031
919.494	14339
919.604	14393
919.715	14161
919.826	14119
919.936	14180
920.047	14298
920.157	14214
920.267	14393
920.378	14248
920.488	14183
920.598	14347
920.708	14564
920.818	14355
920.928	14332
921.038	14469
921.148	14518
921.258	14126
921.368	14164
921.477	13944
921.587	13906
921.697	13902
921.806	13978
921.916	13780
922.025	13525
922.134	13582
922.244	13582
922.353	13624
922.462	13438
922.571	13426
922.68	13263
922.789	13221
922.898	13274
923.007	13156
923.116	13270
923.224	13217
923.333	13183
923.442	13042
923.55	13015
923.659	13053
923.767	13126
923.876	13027
923.984	13053
924.092	12962
924.201	13118
924.309	13034
924.417	13015
924.525	12897
924.633	12954
924.741	13685
924.849	12726
924.956	12837
925.064	12764
925.172	12700
925.279	12654
925.387	12738
925.494	12719
925.602	12852
925.709	12669
925.816	12525
925.924	12585
926.031	12707
926.138	12627
926.245	12696
926.352	12445
926.459	12631
926.566	12646
926.673	12509
926.779	12498
926.886	12353
926.993	12372
927.099	12342
927.206	12182
927.312	12232
927.419	12277
927.525	12247
927.631	12304
927.737	12087
927.843	12072
927.95	11969
928.056	12038
928.162	12121
928.267	12148
928.373	12757
928.479	12228
928.585	11954
928.69	12083
928.796	12117
928.901	11904
929.007	11863
929.112	11942
929.218	11859
929.323	11870
929.428	11882
929.533	12011
929.638	11794
929.743	11722
929.848	11836
929.953	11805
930.058	11672
930.163	11543
930.267	11562
930.372	11672
930.477	11467
930.581	11695
930.685	11600
930.79	11455
930.894	11474
930.998	11368
931.103	11417
931.207	11189
931.311	11155
931.415	10995
931.519	10869
931.623	10744
