Data from test_V78500241_1529.txt Node
Date: Fri Mar 25 15:20:30 CST 2022
User: usil
Spectrometer: V785-0024
Trigger mode: 0
Integration Time (sec): 4.000000E-1
Scans to average: 1
Nonlinearity correction enabled: false
Boxcar width: 0
Storing dark spectrum: false
XAxis mode: Wavelengths
Number of Pixels in Spectrum: 1024
>>>>>Begin Spectral Data<<<<<
801.071	27899
801.214	27873
801.356	27530
801.499	27660
801.641	27587
801.783	27618
801.926	27641
802.068	27572
802.211	27583
802.353	27431
802.496	27256
802.638	27085
802.78	27138
802.923	27146
803.065	27032
803.208	27096
803.35	27188
803.492	27279
803.635	27386
803.777	27226
803.919	27382
804.061	27622
804.204	27523
804.346	27275
804.488	27374
804.63	27348
804.773	27241
804.915	27275
805.057	27595
805.199	27291
805.341	27500
805.483	27580
805.626	27538
805.768	27351
805.91	27447
806.052	27485
806.194	27477
806.336	27766
806.478	27671
806.62	27469
806.762	27660
806.904	27694
807.046	27991
807.188	27991
807.33	27869
807.472	27880
807.614	27899
807.756	27934
807.898	27854
808.04	27625
808.182	27751
808.324	27819
808.465	27819
808.607	27914
808.749	28090
808.891	28200
809.033	28276
809.174	28204
809.316	28234
809.458	28078
809.6	28086
809.741	28287
809.883	28200
810.025	28375
810.166	28573
810.308	28512
810.45	28478
810.591	28386
810.733	28112
810.875	28192
811.016	28074
811.158	27987
811.299	28329
811.441	28329
811.582	28318
811.724	28204
811.865	28200
812.007	28078
812.148	28086
812.29	28204
812.431	28375
812.573	28432
812.714	28504
812.855	28649
812.997	28774
813.138	28782
813.279	28809
813.421	28793
813.562	28660
813.703	28462
813.845	28246
813.986	28063
814.127	27854
814.268	27838
814.41	27842
814.551	27819
814.692	27926
814.833	27743
814.974	27675
815.115	27895
815.256	27755
815.397	27694
815.539	27816
815.68	27667
815.821	27549
815.962	27652
816.103	27580
816.244	27466
816.385	27469
816.526	27363
816.666	27245
816.807	27055
816.948	27226
817.089	27325
817.23	27154
817.371	27112
817.512	27230
817.653	27081
817.793	27157
817.934	27135
818.075	27085
818.216	27214
818.356	27036
818.497	27013
818.638	26834
818.778	26872
818.919	26902
819.06	26880
819.2	27005
819.341	27123
819.481	27188
819.622	27154
819.762	27408
819.903	27344
820.043	27207
820.184	27180
820.324	27279
820.465	27264
820.605	27214
820.746	27127
820.886	26960
821.026	27230
821.167	27150
821.307	27222
821.447	26998
821.588	27028
821.728	26990
821.868	26758
822.008	26777
822.149	26705
822.289	26499
822.429	26461
822.569	26191
822.709	26199
822.849	26065
822.99	26073
823.13	26103
823.27	25974
823.41	25959
823.55	25818
823.69	25970
823.83	25928
823.97	25883
824.11	25635
824.25	25704
824.389	25624
824.529	25677
824.669	25689
824.809	25784
824.949	25864
825.089	25723
825.228	25727
825.368	25643
825.508	25582
825.648	25575
825.787	25742
825.927	25742
826.067	25643
826.206	25670
826.346	25674
826.485	25594
826.625	25613
826.765	25731
826.904	25540
827.044	25388
827.183	25411
827.323	25324
827.462	25521
827.601	25327
827.741	25403
827.88	25411
828.02	25304
828.159	25232
828.298	25289
828.437	25457
828.577	25339
828.716	25388
828.855	25187
828.994	24966
829.134	25012
829.273	24939
829.412	25053
829.551	24932
829.69	24973
829.829	25076
829.968	25099
830.107	25046
830.246	25050
830.385	25053
830.524	24989
830.663	24954
830.802	24738
830.941	24593
831.08	24570
831.219	24707
831.357	24745
831.496	25019
831.635	24745
831.774	24464
831.913	24467
832.051	24460
832.19	24407
832.329	24391
832.467	24346
832.606	24342
832.744	24125
832.883	24247
833.022	24258
833.16	24220
833.299	24163
833.437	24254
833.576	24380
833.714	24369
833.852	24277
833.991	24353
834.129	24403
834.267	24483
834.406	24315
834.544	24426
834.682	24403
834.821	24270
834.959	24585
835.097	24258
835.235	24426
835.373	24243
835.511	24350
835.65	24213
835.788	24174
835.926	24091
836.064	23916
836.202	24026
836.34	24087
836.478	24171
836.615	24167
836.753	24144
836.891	24129
837.029	24148
837.167	24133
837.305	24087
837.443	24072
837.58	23958
837.718	24091
837.856	23958
837.993	24011
838.131	24072
838.269	23893
838.406	23836
838.544	23847
838.681	23619
838.819	23642
838.956	23520
839.094	23448
839.231	23726
839.369	23509
839.506	23790
839.643	23863
839.781	23581
839.918	23360
840.055	23528
840.193	23471
840.33	23417
840.467	23303
840.604	23535
840.742	23573
840.879	23143
841.016	23376
841.153	23170
841.29	23577
841.427	23330
841.564	23433
841.701	23364
841.838	23250
841.975	23360
842.112	23341
842.249	23318
842.385	23155
842.522	23280
842.659	23250
842.796	23143
842.933	23197
843.069	23056
843.206	23124
843.343	23178
843.479	23181
843.616	23147
843.752	22980
843.889	22919
844.025	23155
844.162	22927
844.298	23041
844.435	23014
844.571	22862
844.708	22858
844.844	23067
844.98	23128
845.117	23075
845.253	22820
845.389	22786
845.525	22679
845.661	22801
845.798	22531
845.934	22706
846.07	22626
846.206	22744
846.342	22698
846.478	22519
846.614	22367
846.75	22238
846.886	22341
847.022	22436
847.158	22329
847.294	22462
847.429	22386
847.565	22329
847.701	22519
847.837	22101
847.972	21972
848.108	22265
848.244	22158
848.379	21918
848.515	21895
848.65	22051
848.786	21888
848.921	21945
849.057	21979
849.192	21949
849.328	22074
849.463	21979
849.598	21907
849.734	21747
849.869	21835
850.004	21743
850.14	21808
850.275	21800
850.41	21644
850.545	21709
850.68	21743
850.815	21717
850.95	21728
851.085	21884
851.22	21892
851.355	21778
851.49	21595
851.625	21785
851.76	21888
851.895	21679
852.03	21698
852.165	21736
852.299	21736
852.434	21880
852.569	21785
852.703	21599
852.838	21827
852.973	21861
853.107	21895
853.242	21583
853.376	21648
853.511	21534
853.645	21538
853.78	21690
853.914	21462
854.048	21603
854.183	21580
854.317	21511
854.451	21679
854.585	21405
854.72	21644
854.854	21629
854.988	21454
855.122	21549
855.256	21359
855.39	21428
855.524	21583
855.658	21606
855.792	21606
855.926	21713
856.06	21675
856.194	21644
856.327	21534
856.461	21389
856.595	21515
856.729	21614
856.862	21827
856.996	21572
857.13	21583
857.263	21633
857.397	21644
857.53	21443
857.664	21553
857.797	21701
857.931	21622
858.064	21614
858.197	21591
858.331	21648
858.464	21523
858.597	21466
858.731	21488
858.864	21477
858.997	21538
859.13	21564
859.263	21583
859.396	21618
859.529	21435
859.662	21397
859.795	21519
859.928	21614
860.061	21644
860.194	21831
860.327	21629
860.46	21549
860.592	21644
860.725	21644
860.858	21572
860.99	21610
861.123	21481
861.256	21481
861.388	21557
861.521	22166
861.653	21374
861.786	21283
861.918	21302
862.05	21397
862.183	21523
862.315	21526
862.447	21549
862.58	21405
862.712	21226
862.844	21142
862.976	21348
863.108	21241
863.24	21580
863.372	21256
863.504	21252
863.636	21245
863.768	21306
863.9	21180
864.032	21287
864.164	21161
864.296	21306
864.428	21332
864.559	21370
864.691	21336
864.823	21218
864.954	21237
865.086	21294
865.217	21188
865.349	21218
865.48	21165
865.612	21142
865.743	21275
865.875	21028
866.006	21116
866.137	21192
866.269	21157
866.4	21043
866.531	21032
866.662	21005
866.793	21066
866.924	21138
867.055	21119
867.186	21062
867.317	21081
867.448	20979
867.579	21085
867.71	20853
867.841	21081
867.972	21089
868.103	21017
868.233	21119
868.364	21005
868.495	21154
868.625	21203
868.756	21382
868.886	21188
869.017	21272
869.147	21397
869.278	21393
869.408	21268
869.539	21313
869.669	21370
869.799	21424
869.929	21507
870.06	21397
870.19	21648
870.32	21709
870.45	21660
870.58	21705
870.71	21876
870.84	21873
870.97	21629
871.1	21812
871.23	21972
871.36	21979
871.489	21774
871.619	21766
871.749	21911
871.879	21968
872.008	22055
872.138	21945
872.267	21880
872.397	21892
872.526	21701
872.656	21736
872.785	21781
872.915	22051
873.044	21994
873.173	21949
873.303	22013
873.432	21934
873.561	22010
873.69	21842
873.819	22048
873.948	22051
874.077	21945
874.206	21873
874.335	21998
874.464	22013
874.593	22040
874.722	22025
874.851	22166
874.979	22310
875.108	22272
875.237	22230
875.365	21968
875.494	22131
875.623	22097
875.751	22177
875.88	22055
876.008	22287
876.136	22325
876.265	22497
876.393	22504
876.521	22653
876.65	22596
876.778	22592
876.906	22440
877.034	22459
877.162	22428
877.29	22489
877.418	22382
877.546	22474
877.674	22462
877.802	22535
877.93	22478
878.058	22459
878.185	22356
878.313	22462
878.441	22371
878.568	22344
878.696	22527
878.824	22440
878.951	22390
879.079	22694
879.206	22782
879.333	22702
879.461	22489
879.588	22565
879.715	22615
879.842	22759
879.97	22561
880.097	22341
880.224	22242
880.351	22432
880.478	22337
880.605	22291
880.732	22413
880.859	22607
880.986	22367
881.112	22386
881.239	22120
881.366	22166
881.493	21972
881.619	21930
881.746	21918
881.872	21797
881.999	21911
882.125	21724
882.252	22032
882.378	21816
882.505	21953
882.631	21762
882.757	21599
882.883	21641
883.01	21595
883.136	21504
883.262	21530
883.388	21408
883.514	21698
883.64	21580
883.766	21454
883.892	21367
884.018	21355
884.143	21519
884.269	21568
884.395	21264
884.52	21249
884.646	21195
884.772	21089
884.897	21161
885.023	21165
885.148	21272
885.274	21355
885.399	21363
885.524	21176
885.65	21211
885.775	21287
885.9	21233
886.025	21298
886.15	21245
886.275	21199
886.4	21226
886.525	21283
886.65	21142
886.775	21085
886.9	21207
887.025	21431
887.149	21077
887.274	21074
887.399	20998
887.523	21005
887.648	20982
887.773	20914
887.897	21051
888.021	20933
888.146	20918
888.27	20994
888.395	21047
888.519	20929
888.643	20800
888.767	21085
888.891	20823
889.015	20819
889.139	20895
889.263	20716
889.387	20963
889.511	20838
889.635	20868
889.759	20743
889.883	20758
890.006	20800
890.13	21017
890.254	20712
890.377	20705
890.501	20473
890.624	20583
890.748	20602
890.871	20370
890.995	20370
891.118	20366
891.241	20370
891.364	20377
891.488	20438
891.611	20332
891.734	20374
891.857	20419
891.98	20256
892.103	20317
892.226	20427
892.349	20362
892.471	20233
892.594	20248
892.717	20240
892.839	20267
892.962	20282
893.085	20347
893.207	20248
893.33	20183
893.452	20115
893.575	20328
893.697	20202
893.819	20336
893.941	20446
894.064	20374
894.186	20149
894.308	20187
894.43	20256
894.552	20351
894.674	20298
894.796	20134
894.918	20221
895.04	20119
895.161	20309
895.283	20218
895.405	20221
895.526	20305
895.648	20267
895.769	20206
895.891	20214
896.012	20362
896.134	20084
896.255	20229
896.376	20233
896.498	20278
896.619	20206
896.74	20214
896.861	20317
896.982	20526
897.103	20590
897.224	20412
897.345	20511
897.466	20419
897.587	20434
897.708	20640
897.828	20594
897.949	20347
898.07	20301
898.19	20267
898.311	20518
898.431	20381
898.552	20530
898.672	20533
898.792	20549
898.913	20533
899.033	20408
899.153	20214
899.273	20210
899.393	20142
899.513	20374
899.633	20225
899.753	20168
899.873	20176
899.993	20237
900.113	20134
900.232	20164
900.352	20119
900.472	20142
900.591	20001
900.711	19959
900.83	19906
900.95	20062
901.069	20005
901.189	19868
901.308	19601
901.427	19514
901.546	19559
901.665	19563
901.784	19624
901.904	19453
902.023	19362
902.141	19190
902.26	19103
902.379	19122
902.498	18989
902.617	18996
902.735	19225
902.854	18954
902.973	19023
903.091	18749
903.21	18661
903.328	18753
903.446	18711
903.565	18608
903.683	18654
903.801	18464
903.919	18357
904.038	18452
904.156	18308
904.274	18422
904.392	18311
904.51	18296
904.627	18197
904.745	18319
904.863	18399
904.981	18152
905.098	17992
905.216	17866
905.334	17939
905.451	18041
905.569	18015
905.686	18110
905.803	17912
905.921	17745
906.038	17813
906.155	17859
906.272	17687
906.389	17649
906.506	17573
906.623	17501
906.74	17497
906.857	17341
906.974	17512
907.091	17532
907.208	17630
907.324	17589
907.441	17395
907.557	17235
907.674	17174
907.79	17109
907.907	17174
908.023	17200
908.139	17227
908.256	17174
908.372	17117
908.488	17124
908.604	16949
908.72	16949
908.836	16854
908.952	17006
909.068	16934
909.184	17022
909.3	16923
909.415	17060
909.531	16904
909.647	16713
909.762	16668
909.878	16649
909.993	16577
910.108	16675
910.224	16607
910.339	16683
910.454	16577
910.57	16394
910.685	16371
910.8	16660
910.915	16660
911.03	16493
911.145	16314
911.259	16322
911.374	16196
911.489	16139
911.604	16006
911.718	16013
911.833	16040
911.947	15941
912.062	15869
912.176	15892
912.291	15968
912.405	15956
912.519	16158
912.633	16143
912.748	16044
912.862	15899
912.976	15720
913.09	15698
913.204	15720
913.318	15755
913.431	15918
913.545	15838
913.659	15934
913.772	15762
913.886	15671
914	15660
914.113	15652
914.226	15781
914.34	15618
914.453	15485
914.566	15698
914.68	15447
914.793	15466
914.906	15321
915.019	15230
915.132	15127
915.245	15233
915.358	15245
915.47	15222
915.583	15154
915.696	15237
915.809	15340
915.921	15313
916.034	15161
916.146	15123
916.259	15138
916.371	15207
916.483	15142
916.595	15138
916.708	15009
916.82	15032
916.932	15074
917.044	15043
917.156	14883
917.268	14811
917.38	14838
917.491	14834
917.603	14891
917.715	14868
917.826	15039
917.938	14788
918.049	14750
918.161	14773
918.272	14830
918.384	14933
918.495	14800
918.606	14621
918.717	14450
918.828	14594
918.939	14667
919.05	14545
919.161	14659
919.272	14317
919.383	14404
919.494	14781
919.604	14811
919.715	14560
919.826	14568
919.936	14556
920.047	14648
920.157	14575
920.267	14686
920.378	14587
920.488	14560
920.598	14693
920.708	14826
920.818	14727
920.928	14651
921.038	14800
921.148	14902
921.258	14393
921.368	14431
921.477	14317
921.587	14275
921.697	14267
921.806	14408
921.916	14134
922.025	13921
922.134	14031
922.244	13871
922.353	13959
922.462	13879
922.571	13674
922.68	13613
922.789	13552
922.898	13620
923.007	13510
923.116	13552
923.224	13624
923.333	13514
923.442	13495
923.55	13381
923.659	13495
923.767	13483
923.876	13350
923.984	13480
924.092	13301
924.201	13331
924.309	13297
924.417	13335
924.525	13285
924.633	13251
924.741	14111
924.849	13061
924.956	13122
925.064	13046
925.172	12909
925.279	12970
925.387	12981
925.494	13046
925.602	13107
925.709	13057
925.816	12871
925.924	13000
926.031	13031
926.138	12954
926.245	13046
926.352	12890
926.459	13019
926.566	13000
926.673	12882
926.779	12764
926.886	12745
926.993	12585
927.099	12528
927.206	12479
927.312	12414
927.419	12479
927.525	12620
927.631	12555
927.737	12380
927.843	12414
927.95	12213
928.056	12357
928.162	12471
928.267	12483
928.373	13129
928.479	12452
928.585	12186
928.69	12273
928.796	12330
928.901	12178
929.007	12163
929.112	12213
929.218	12213
929.323	12186
929.428	12095
929.533	12216
929.638	12102
929.743	12057
929.848	12201
929.953	12022
930.058	11973
930.163	11866
930.267	11786
930.372	11954
930.477	11745
930.581	11950
930.685	11847
930.79	11699
930.894	11745
930.998	11649
931.103	11798
931.207	11455
931.311	11356
931.415	11227
931.519	11052
931.623	11018
