Data from test_V78500241_2850.txt Node
Date: Fri Mar 25 15:29:42 CST 2022
User: usil
Spectrometer: V785-0024
Trigger mode: 0
Integration Time (sec): 4.000000E-1
Scans to average: 1
Nonlinearity correction enabled: false
Boxcar width: 0
Storing dark spectrum: false
XAxis mode: Wavelengths
Number of Pixels in Spectrum: 1024
>>>>>Begin Spectral Data<<<<<
801.071	27199
801.214	27226
801.356	26952
801.499	27020
801.641	26754
801.783	26807
801.926	26845
802.068	26708
802.211	26861
802.353	26613
802.496	26575
802.638	26537
802.78	26347
802.923	26328
803.065	26404
803.208	26320
803.35	26453
803.492	26507
803.635	26746
803.777	26480
803.919	26602
804.061	26940
804.204	26629
804.346	26625
804.488	26503
804.63	26488
804.773	26530
804.915	26393
805.057	26686
805.199	26594
805.341	26571
805.483	26815
805.626	26708
805.768	26625
805.91	26724
806.052	26769
806.194	26594
806.336	26868
806.478	26686
806.62	26754
806.762	26857
806.904	26994
807.046	27340
807.188	27093
807.33	27127
807.472	27298
807.614	26967
807.756	27017
807.898	26979
808.04	26975
808.182	26754
808.324	27058
808.465	27123
808.607	27192
808.749	27466
808.891	27469
809.033	27412
809.174	27416
809.316	27378
809.458	27401
809.6	27298
809.741	27370
809.883	27401
810.025	27542
810.166	27583
810.308	27519
810.45	27599
810.591	27420
810.733	27340
810.875	27313
811.016	27287
811.158	27131
811.299	27450
811.441	27420
811.582	27603
811.724	27313
811.865	27233
812.007	27329
812.148	27302
812.29	27279
812.431	27462
812.573	27481
812.714	27641
812.855	27789
812.997	27941
813.138	27983
813.279	27850
813.421	27797
813.562	27743
813.703	27583
813.845	27496
813.986	27192
814.127	27077
814.268	27058
814.41	26979
814.551	26971
814.692	27051
814.833	26918
814.974	26830
815.115	26990
815.256	26864
815.397	26902
815.539	26929
815.68	26693
815.821	26556
815.962	26777
816.103	26754
816.244	26549
816.385	26362
816.526	26625
816.666	26415
816.807	26221
816.948	26290
817.089	26324
817.23	26240
817.371	26259
817.512	26290
817.653	26271
817.793	26176
817.934	26195
818.075	26191
818.216	26240
818.356	26195
818.497	26073
818.638	25837
818.778	25986
818.919	25932
819.06	26244
819.2	26164
819.341	26362
819.481	26130
819.622	26381
819.762	26511
819.903	26423
820.043	26374
820.184	26396
820.324	26301
820.465	26290
820.605	26355
820.746	26336
820.886	26267
821.026	26343
821.167	26282
821.307	26343
821.447	26218
821.588	26191
821.728	26020
821.868	25887
822.008	25677
822.149	25681
822.289	25712
822.429	25457
822.569	25411
822.709	25419
822.849	25209
822.99	25228
823.13	25012
823.27	25042
823.41	25038
823.55	24840
823.69	24928
823.83	24878
823.97	24928
824.11	24856
824.25	24665
824.389	24779
824.529	24802
824.669	24692
824.809	25053
824.949	24943
825.089	24951
825.228	24894
825.368	24741
825.508	24768
825.648	24825
825.787	24665
825.927	24806
826.067	24540
826.206	24703
826.346	24661
826.485	24753
826.625	24642
826.765	24738
826.904	24726
827.044	24399
827.183	24555
827.323	24277
827.462	24273
827.601	24380
827.741	24403
827.88	24437
828.02	24350
828.159	24323
828.298	24426
828.437	24517
828.577	24388
828.716	24521
828.855	24319
828.994	23980
829.134	24087
829.273	24087
829.412	23984
829.551	24026
829.69	24148
829.829	24125
829.968	24114
830.107	24030
830.246	24117
830.385	23931
830.524	23992
830.663	23958
830.802	23927
830.941	23615
831.08	23703
831.219	23707
831.357	23733
831.496	23889
831.635	23680
831.774	23649
831.913	23570
832.051	23558
832.19	23478
832.329	23444
832.467	23341
832.606	23277
832.744	23326
832.883	23345
833.022	23227
833.16	23315
833.299	23387
833.437	23459
833.576	23372
833.714	23436
833.852	23326
833.991	23345
834.129	23566
834.267	23463
834.406	23474
834.544	23501
834.682	23337
834.821	23345
834.959	23543
835.097	23395
835.235	23448
835.373	23372
835.511	23429
835.65	23303
835.788	23402
835.926	23071
836.064	23071
836.202	23052
836.34	23246
836.478	23246
836.615	23341
836.753	23220
836.891	23410
837.029	23326
837.167	23033
837.305	23178
837.443	23174
837.58	23037
837.718	23246
837.856	23155
837.993	23044
838.131	23136
838.269	23025
838.406	22995
838.544	22942
838.681	22675
838.819	22725
838.956	22485
839.094	22554
839.231	22656
839.369	22812
839.506	22847
839.643	22778
839.781	22641
839.918	22508
840.055	22565
840.193	22569
840.33	22348
840.467	22546
840.604	22588
840.742	22873
840.879	22428
841.016	22489
841.153	22402
841.29	22592
841.427	22512
841.564	22527
841.701	22390
841.838	22382
841.975	22390
842.112	22443
842.249	22276
842.385	22314
842.522	22447
842.659	22280
842.796	22272
842.933	22181
843.069	22246
843.206	22276
843.343	22215
843.479	22257
843.616	22276
843.752	22082
843.889	22109
844.025	22105
844.162	21930
844.298	22147
844.435	21991
844.571	21994
844.708	22048
844.844	22200
844.98	22067
845.117	22105
845.253	21907
845.389	21960
845.525	21934
845.661	22013
845.798	21759
845.934	21686
846.07	21686
846.206	21808
846.342	21911
846.478	21736
846.614	21606
846.75	21496
846.886	21549
847.022	21610
847.158	21599
847.294	21545
847.429	21587
847.565	21507
847.701	21778
847.837	21237
847.972	21252
848.108	21348
848.244	21291
848.379	21074
848.515	21146
848.65	21119
848.786	21131
848.921	21100
849.057	21199
849.192	21195
849.328	21184
849.463	21070
849.598	21074
849.734	21047
849.869	20876
850.004	20914
850.14	20800
850.275	20765
850.41	20853
850.545	20838
850.68	20743
850.815	20902
850.95	20785
851.085	21005
851.22	20994
851.355	20788
851.49	20746
851.625	20941
851.76	20800
851.895	20731
852.03	20796
852.165	20906
852.299	20910
852.434	20876
852.569	20941
852.703	20853
852.838	20842
852.973	20986
853.107	20823
853.242	20765
853.376	20777
853.511	20583
853.645	20659
853.78	20906
853.914	20701
854.048	20644
854.183	20629
854.317	20758
854.451	21009
854.585	20785
854.72	20727
854.854	20792
854.988	20629
855.122	20716
855.256	20465
855.39	20712
855.524	20651
855.658	20689
855.792	20705
855.926	20617
856.06	20629
856.194	20777
856.327	20640
856.461	20678
856.595	20735
856.729	20674
856.862	20750
856.996	20705
857.13	20598
857.263	20785
857.397	20861
857.53	20609
857.664	20636
857.797	20720
857.931	20724
858.064	20727
858.197	20731
858.331	20674
858.464	20583
858.597	20522
858.731	20705
858.864	20590
858.997	20644
859.13	20765
859.263	20769
859.396	20876
859.529	20655
859.662	20552
859.795	20617
859.928	20663
860.061	20880
860.194	21028
860.327	20743
860.46	20670
860.592	20754
860.725	20788
860.858	20842
860.99	20796
861.123	20556
861.256	20727
861.388	20674
861.521	21367
861.653	20511
861.786	20473
861.918	20484
862.05	20457
862.183	20579
862.315	20644
862.447	20804
862.58	20636
862.712	20343
862.844	20381
862.976	20564
863.108	20476
863.24	20785
863.372	20385
863.504	20370
863.636	20465
863.768	20370
863.9	20336
864.032	20400
864.164	20396
864.296	20412
864.428	20469
864.559	20381
864.691	20499
864.823	20343
864.954	20282
865.086	20358
865.217	20362
865.349	20157
865.48	20305
865.612	20142
865.743	20415
865.875	20366
866.006	20339
866.137	20317
866.269	20362
866.4	20248
866.531	20240
866.662	20149
866.793	20263
866.924	20138
867.055	20366
867.186	20301
867.317	20237
867.448	20199
867.579	20229
867.71	20062
867.841	20084
867.972	20183
868.103	20225
868.233	20210
868.364	20195
868.495	20381
868.625	20461
868.756	20594
868.886	20423
869.017	20488
869.147	20598
869.278	20564
869.408	20541
869.539	20450
869.669	20545
869.799	20457
869.929	20579
870.06	20606
870.19	20708
870.32	20765
870.45	20777
870.58	21020
870.71	20960
870.84	21001
870.97	20777
871.1	20842
871.23	21077
871.36	21047
871.489	21005
871.619	20990
871.749	21032
871.879	21157
872.008	21230
872.138	20994
872.267	21108
872.397	20910
872.526	20914
872.656	20906
872.785	20876
872.915	21146
873.044	21123
873.173	21047
873.303	21150
873.432	21146
873.561	21173
873.69	21169
873.819	21154
873.948	21138
874.077	21207
874.206	21089
874.335	21074
874.464	21184
874.593	21408
874.722	21207
874.851	21348
874.979	21287
875.108	21294
875.237	21294
875.365	21340
875.494	21310
875.623	21386
875.751	21214
875.88	21370
876.008	21538
876.136	21515
876.265	21713
876.393	21789
876.521	21804
876.65	21880
876.778	21690
876.906	21610
877.034	21698
877.162	21660
877.29	21671
877.418	21739
877.546	21629
877.674	21835
877.802	21705
877.93	21797
878.058	21739
878.185	21549
878.313	21622
878.441	21660
878.568	21568
878.696	21583
878.824	21747
878.951	21755
879.079	21903
879.206	21998
879.333	21819
879.461	21701
879.588	21804
879.715	21895
879.842	21880
879.97	21705
880.097	21485
880.224	21679
880.351	21622
880.478	21648
880.605	21492
880.732	21439
880.859	21842
880.986	21523
881.112	21538
881.239	21458
881.366	21207
881.493	21192
881.619	21176
881.746	21081
881.872	21222
881.999	21036
882.125	20941
882.252	21157
882.378	21085
882.505	21096
882.631	20857
882.757	20971
882.883	20842
883.01	20686
883.136	20792
883.262	20708
883.388	20648
883.514	20876
883.64	20735
883.766	20834
883.892	20621
884.018	20651
884.143	20712
884.269	20823
884.395	20537
884.52	20507
884.646	20423
884.772	20377
884.897	20336
885.023	20412
885.148	20488
885.274	20762
885.399	20488
885.524	20434
885.65	20461
885.775	20511
885.9	20450
886.025	20552
886.15	20454
886.275	20396
886.4	20389
886.525	20590
886.65	20438
886.775	20298
886.9	20583
887.025	20625
887.149	20552
887.274	20328
887.399	20161
887.523	20244
887.648	20149
887.773	20206
887.897	20351
888.021	20320
888.146	20111
888.27	20381
888.395	20355
888.519	20195
888.643	20377
888.767	20244
888.891	20149
889.015	20016
889.139	20046
889.263	20039
889.387	20126
889.511	20278
889.635	20210
889.759	20062
889.883	20145
890.006	19932
890.13	20153
890.254	20043
890.377	19947
890.501	19833
890.624	19727
890.748	19947
890.871	19712
890.995	19552
891.118	19597
891.241	19715
891.364	19624
891.488	19719
891.611	19628
891.734	19502
891.857	19712
891.98	19647
892.103	19769
892.226	19704
892.349	19540
892.471	19396
892.594	19529
892.717	19441
892.839	19578
892.962	19586
893.085	19651
893.207	19506
893.33	19346
893.452	19381
893.575	19533
893.697	19502
893.819	19616
893.941	19723
894.064	19715
894.186	19476
894.308	19411
894.43	19521
894.552	19666
894.674	19738
894.796	19537
894.918	19491
895.04	19449
895.161	19571
895.283	19540
895.405	19491
895.526	19525
895.648	19548
895.769	19537
895.891	19575
896.012	19552
896.134	19590
896.255	19575
896.376	19464
896.498	19681
896.619	19670
896.74	19552
896.861	19628
896.982	19803
897.103	19967
897.224	19837
897.345	19677
897.466	19765
897.587	19818
897.708	19871
897.828	19700
897.949	19753
898.07	19651
898.19	19761
898.311	19841
898.431	19719
898.552	19818
898.672	19906
898.792	19883
898.913	19913
899.033	19799
899.153	19567
899.273	19537
899.393	19491
899.513	19605
899.633	19575
899.753	19613
899.873	19540
899.993	19510
900.113	19556
900.232	19613
900.352	19365
900.472	19411
900.591	19289
900.711	19358
900.83	19209
900.95	19392
901.069	19468
901.189	19266
901.308	19046
901.427	18916
901.546	18939
901.665	18916
901.784	18973
901.904	18916
902.023	18631
902.141	18475
902.26	18365
902.379	18525
902.498	18422
902.617	18407
902.735	18414
902.854	18369
902.973	18369
903.091	18068
903.21	18095
903.328	18095
903.446	18030
903.565	17912
903.683	18034
903.801	17802
903.919	17817
904.038	17817
904.156	17707
904.274	17783
904.392	17703
904.51	17695
904.627	17611
904.745	17741
904.863	17805
904.981	17471
905.098	17501
905.216	17376
905.334	17315
905.451	17345
905.569	17322
905.686	17376
905.803	17353
905.921	17155
906.038	17170
906.155	17098
906.272	16991
906.389	17094
906.506	16896
906.623	16949
906.74	16854
906.857	16801
906.974	16847
907.091	16949
907.208	16927
907.324	16946
907.441	16809
907.557	16717
907.674	16630
907.79	16607
907.907	16577
908.023	16603
908.139	16596
908.256	16481
908.372	16493
908.488	16417
908.604	16405
908.72	16344
908.836	16360
908.952	16249
909.068	16409
909.184	16436
909.3	16360
909.415	16318
909.531	16284
909.647	16093
909.762	16112
909.878	15968
909.993	16067
910.108	16013
910.224	15991
910.339	16021
910.454	15892
910.57	15876
910.685	15751
910.8	16059
910.915	15922
911.03	15880
911.145	15793
911.259	15648
911.374	15656
911.489	15549
911.604	15500
911.718	15420
911.833	15428
911.947	15298
912.062	15264
912.176	15511
912.291	15458
912.405	15450
912.519	15709
912.633	15553
912.748	15424
912.862	15420
912.976	15367
913.09	15055
913.204	15119
913.318	15211
913.431	15275
913.545	15306
913.659	15279
913.772	15157
913.886	15039
914	15055
914.113	15138
914.226	15180
914.34	15104
914.453	14963
914.566	15055
914.68	14952
914.793	14861
914.906	14758
915.019	14689
915.132	14693
915.245	14651
915.358	14712
915.47	14667
915.583	14663
915.696	14686
915.809	14689
915.921	14895
916.034	14632
916.146	14564
916.259	14541
916.371	14640
916.483	14686
916.595	14526
916.708	14514
916.82	14514
916.932	14541
917.044	14526
917.156	14465
917.268	14415
917.38	14366
917.491	14328
917.603	14358
917.715	14339
917.826	14431
917.938	14370
918.049	14142
918.161	14309
918.272	14457
918.384	14400
918.495	14259
918.606	14134
918.717	14069
918.828	14195
918.939	14088
919.05	14012
919.161	14123
919.272	13974
919.383	13955
919.494	14111
919.604	14240
919.715	14172
919.826	14020
919.936	14043
920.047	14206
920.157	14088
920.267	14263
920.378	14157
920.488	14130
920.598	14347
920.708	14419
920.818	14294
920.928	14229
921.038	14381
921.148	14370
921.258	14081
921.368	13986
921.477	13875
921.587	13909
921.697	13734
921.806	13925
921.916	13719
922.025	13578
922.134	13567
922.244	13563
922.353	13525
922.462	13438
922.571	13251
922.68	13240
922.789	13099
922.898	13171
923.007	13050
923.116	13080
923.224	13103
923.333	13065
923.442	12928
923.55	12935
923.659	12981
923.767	13046
923.876	12932
923.984	13038
924.092	12772
924.201	12970
924.309	12867
924.417	12962
924.525	12810
924.633	12688
924.741	13776
924.849	12627
924.956	12882
925.064	12673
925.172	12445
925.279	12601
925.387	12635
925.494	12646
925.602	12757
925.709	12654
925.816	12456
925.924	12582
926.031	12620
926.138	12528
926.245	12665
926.352	12426
926.459	12517
926.566	12620
926.673	12441
926.779	12407
926.886	12334
926.993	12216
927.099	12121
927.206	12125
927.312	12083
927.419	12220
927.525	12133
927.631	12197
927.737	12003
927.843	11996
927.95	11980
928.056	12038
928.162	11965
928.267	12030
928.373	12646
928.479	12030
928.585	11855
928.69	11942
928.796	12007
928.901	11798
929.007	11824
929.112	11885
929.218	11790
929.323	11786
929.428	11741
929.533	11874
929.638	11680
929.743	11726
929.848	11657
929.953	11722
930.058	11657
930.163	11417
930.267	11433
930.372	11600
930.477	11406
930.581	11722
930.685	11524
930.79	11345
930.894	11337
930.998	11258
931.103	11440
931.207	11067
931.311	10934
931.415	10847
931.519	10835
931.623	10759
