Data from test_V78500241_2091.txt Node
Date: Fri Mar 25 15:24:25 CST 2022
User: usil
Spectrometer: V785-0024
Trigger mode: 0
Integration Time (sec): 4.000000E-1
Scans to average: 1
Nonlinearity correction enabled: false
Boxcar width: 0
Storing dark spectrum: false
XAxis mode: Wavelengths
Number of Pixels in Spectrum: 1024
>>>>>Begin Spectral Data<<<<<
801.071	27838
801.214	27705
801.356	27557
801.499	27557
801.641	27408
801.783	27214
801.926	27462
802.068	27374
802.211	27348
802.353	27157
802.496	27077
802.638	27001
802.78	26940
802.923	26990
803.065	26918
803.208	26990
803.35	27001
803.492	27150
803.635	27214
803.777	27157
803.919	27336
804.061	27386
804.204	27241
804.346	27176
804.488	27123
804.63	27214
804.773	27275
804.915	27321
805.057	27325
805.199	27184
805.341	27260
805.483	27367
805.626	27473
805.768	27218
805.91	27180
806.052	27355
806.194	27192
806.336	27507
806.478	27439
806.62	27245
806.762	27458
806.904	27667
807.046	27797
807.188	27755
807.33	27831
807.472	27675
807.614	27675
807.756	27637
807.898	27709
808.04	27526
808.182	27538
808.324	27625
808.465	27675
808.607	27857
808.749	27914
808.891	28051
809.033	28173
809.174	28006
809.316	27922
809.458	28006
809.6	27960
809.741	28154
809.883	28162
810.025	28257
810.166	28196
810.308	28310
810.45	28230
810.591	28226
810.733	28143
810.875	27998
811.016	27865
811.158	27759
811.299	28124
811.441	28097
811.582	28128
811.724	27903
811.865	27892
812.007	27793
812.148	27838
812.29	28044
812.431	28116
812.573	28348
812.714	28440
812.855	28550
812.997	28504
813.138	28748
813.279	28622
813.421	28474
813.562	28550
813.703	28291
813.845	28131
813.986	27911
814.127	27747
814.268	27679
814.41	27572
814.551	27671
814.692	27743
814.833	27603
814.974	27682
815.115	27861
815.256	27450
815.397	27610
815.539	27447
815.68	27450
815.821	27427
815.962	27481
816.103	27450
816.244	27283
816.385	27249
816.526	27211
816.666	26960
816.807	26830
816.948	26906
817.089	27055
817.23	26960
817.371	26895
817.512	26998
817.653	26804
817.793	26967
817.934	26880
818.075	26971
818.216	26880
818.356	26845
818.497	26914
818.638	26651
818.778	26705
818.919	26648
819.06	26864
819.2	26842
819.341	26967
819.481	27001
819.622	27142
819.762	27325
819.903	27077
820.043	27058
820.184	27157
820.324	27036
820.465	27058
820.605	26944
820.746	26998
820.886	26986
821.026	27066
821.167	26940
821.307	26982
821.447	27039
821.588	26838
821.728	26842
821.868	26583
822.008	26434
822.149	26351
822.289	26332
822.429	26202
822.569	26039
822.709	26157
822.849	25947
822.99	25974
823.13	26005
823.27	25757
823.41	25776
823.55	25647
823.69	25795
823.83	25734
823.97	25734
824.11	25575
824.25	25571
824.389	25483
824.529	25540
824.669	25655
824.809	25647
824.949	25624
825.089	25731
825.228	25464
825.368	25381
825.508	25487
825.648	25609
825.787	25483
825.927	25449
826.067	25441
826.206	25453
826.346	25506
826.485	25384
826.625	25339
826.765	25624
826.904	25354
827.044	25278
827.183	25156
827.323	25099
827.462	25213
827.601	25023
827.741	25088
827.88	25133
828.02	24913
828.159	25209
828.298	25145
828.437	25141
828.577	25088
828.716	25240
828.855	25050
828.994	24935
829.134	24897
829.273	24985
829.412	24802
829.551	24757
829.69	24817
829.829	24844
829.968	24973
830.107	24829
830.246	24798
830.385	24760
830.524	24650
830.663	24715
830.802	24650
830.941	24528
831.08	24388
831.219	24597
831.357	24582
831.496	24707
831.635	24429
831.774	24403
831.913	24304
832.051	24323
832.19	24281
832.329	24235
832.467	24072
832.606	23965
832.744	24133
832.883	24064
833.022	24038
833.16	24076
833.299	24140
833.437	24079
833.576	24216
833.714	24197
833.852	24273
833.991	24254
834.129	24232
834.267	24319
834.406	24186
834.544	24182
834.682	24262
834.821	24304
834.959	24315
835.097	24140
835.235	24201
835.373	24114
835.511	24049
835.65	24064
835.788	24152
835.926	23893
836.064	23794
836.202	23733
836.34	24022
836.478	24083
836.615	23893
836.753	24007
836.891	24129
837.029	24076
837.167	23916
837.305	23996
837.443	23885
837.58	23889
837.718	24041
837.856	23992
837.993	23767
838.131	23912
838.269	23691
838.406	23729
838.544	23672
838.681	23467
838.819	23497
838.956	23387
839.094	23349
839.231	23478
839.369	23566
839.506	23627
839.643	23581
839.781	23349
839.918	23231
840.055	23341
840.193	23345
840.33	23197
840.467	23311
840.604	23250
840.742	23512
840.879	23140
841.016	23109
841.153	22987
841.29	23265
841.427	23269
841.564	23299
841.701	23151
841.838	23181
841.975	23064
842.112	23132
842.249	23140
842.385	23037
842.522	23094
842.659	23083
842.796	22957
842.933	23064
843.069	22965
843.206	22942
843.343	22972
843.479	22949
843.616	23018
843.752	22892
843.889	22748
844.025	22923
844.162	22649
844.298	22839
844.435	22812
844.571	22664
844.708	22752
844.844	22957
844.98	22812
845.117	22877
845.253	22592
845.389	22698
845.525	22679
845.661	22672
845.798	22550
845.934	22542
846.07	22402
846.206	22599
846.342	22641
846.478	22428
846.614	22272
846.75	22242
846.886	22128
847.022	22405
847.158	22109
847.294	22223
847.429	22291
847.565	22120
847.701	22508
847.837	21949
847.972	21876
848.108	22055
848.244	22070
848.379	21857
848.515	21865
848.65	21869
848.786	21934
848.921	21793
849.057	21842
849.192	21850
849.328	21876
849.463	21838
849.598	21648
849.734	21667
849.869	21774
850.004	21534
850.14	21587
850.275	21644
850.41	21534
850.545	21572
850.68	21500
850.815	21530
850.95	21622
851.085	21698
851.22	21641
851.355	21625
851.49	21561
851.625	21450
851.76	21462
851.895	21526
852.03	21534
852.165	21526
852.299	21660
852.434	21660
852.569	21675
852.703	21587
852.838	21667
852.973	21637
853.107	21663
853.242	21428
853.376	21386
853.511	21408
853.645	21336
853.78	21622
853.914	21439
854.048	21351
854.183	21420
854.317	21401
854.451	21591
854.585	21485
854.72	21405
854.854	21591
854.988	21291
855.122	21466
855.256	21230
855.39	21329
855.524	21504
855.658	21408
855.792	21351
855.926	21549
856.06	21439
856.194	21428
856.327	21310
856.461	21306
856.595	21283
856.729	21454
856.862	21576
856.996	21424
857.13	21534
857.263	21454
857.397	21492
857.53	21348
857.664	21408
857.797	21412
857.931	21469
858.064	21397
858.197	21580
858.331	21485
858.464	21355
858.597	21321
858.731	21416
858.864	21435
858.997	21336
859.13	21424
859.263	21450
859.396	21473
859.529	21359
859.662	21393
859.795	21344
859.928	21473
860.061	21466
860.194	21648
860.327	21492
860.46	21538
860.592	21454
860.725	21507
860.858	21572
860.99	21504
861.123	21245
861.256	21317
861.388	21332
861.521	22120
861.653	21252
861.786	21062
861.918	21241
862.05	21272
862.183	21302
862.315	21268
862.447	21310
862.58	21184
862.712	21199
862.844	21150
862.976	21249
863.108	21123
863.24	21454
863.372	20998
863.504	21074
863.636	21085
863.768	21214
863.9	21138
864.032	21024
864.164	21005
864.296	21146
864.428	21195
864.559	21116
864.691	21161
864.823	21135
864.954	21085
865.086	21013
865.217	21096
865.349	20941
865.48	20918
865.612	20876
865.743	21161
865.875	21036
866.006	20994
866.137	21036
866.269	21093
866.4	20948
866.531	20967
866.662	21036
866.793	20971
866.924	20857
867.055	20975
867.186	20914
867.317	20796
867.448	20933
867.579	20910
867.71	20804
867.841	20941
867.972	21009
868.103	20948
868.233	20960
868.364	20967
868.495	20982
868.625	21199
868.756	21359
868.886	21188
869.017	21081
869.147	21317
869.278	21351
869.408	21089
869.539	21211
869.669	21325
869.799	21351
869.929	21256
870.06	21199
870.19	21599
870.32	21538
870.45	21473
870.58	21576
870.71	21694
870.84	21561
870.97	21576
871.1	21618
871.23	21736
871.36	21660
871.489	21622
871.619	21618
871.749	21713
871.879	21778
872.008	21892
872.138	21743
872.267	21709
872.397	21633
872.526	21614
872.656	21500
872.785	21667
872.915	21709
873.044	21922
873.173	21774
873.303	21884
873.432	21865
873.561	21972
873.69	21865
873.819	21808
873.948	21987
874.077	21720
874.206	21736
874.335	21812
874.464	21903
874.593	22090
874.722	22048
874.851	21994
874.979	22032
875.108	22093
875.237	21941
875.365	21998
875.494	21953
875.623	22010
875.751	21884
875.88	22032
876.008	22109
876.136	22276
876.265	22386
876.393	22455
876.521	22428
876.65	22497
876.778	22402
876.906	22322
877.034	22249
877.162	22428
877.29	22249
877.418	22295
877.546	22291
877.674	22352
877.802	22341
877.93	22360
878.058	22352
878.185	22188
878.313	22314
878.441	22303
878.568	22196
878.696	22375
878.824	22402
878.951	22413
879.079	22546
879.206	22615
879.333	22424
879.461	22329
879.588	22478
879.715	22542
879.842	22691
879.97	22474
880.097	22147
880.224	22226
880.351	22112
880.478	22291
880.605	22181
880.732	22204
880.859	22485
880.986	22158
881.112	22158
881.239	22200
881.366	21907
881.493	21785
881.619	21720
881.746	21755
881.872	21819
881.999	21850
882.125	21629
882.252	21778
882.378	21713
882.505	21827
882.631	21545
882.757	21416
882.883	21610
883.01	21359
883.136	21317
883.262	21260
883.388	21351
883.514	21454
883.64	21443
883.766	21348
883.892	21150
884.018	21195
884.143	21469
884.269	21462
884.395	21272
884.52	21085
884.646	21100
884.772	21001
884.897	20998
885.023	21116
885.148	21176
885.274	21176
885.399	21119
885.524	21028
885.65	21135
885.775	21173
885.9	21055
886.025	21192
886.15	21108
886.275	21051
886.4	21009
886.525	21085
886.65	21119
886.775	20963
886.9	21169
887.025	21428
887.149	20994
887.274	20849
887.399	20815
887.523	20762
887.648	20842
887.773	20788
887.897	20914
888.021	20952
888.146	20697
888.27	20887
888.395	20952
888.519	20944
888.643	20815
888.767	20788
888.891	20796
889.015	20773
889.139	20670
889.263	20640
889.387	20705
889.511	20921
889.635	20762
889.759	20705
889.883	20594
890.006	20682
890.13	20838
890.254	20590
890.377	20560
890.501	20396
890.624	20495
890.748	20518
890.871	20206
890.995	20233
891.118	20077
891.241	20256
891.364	20259
891.488	20408
891.611	20278
891.734	20248
891.857	20191
891.98	20218
892.103	20286
892.226	20240
892.349	20126
892.471	20180
892.594	20092
892.717	20142
892.839	20081
892.962	20195
893.085	20278
893.207	20115
893.33	19928
893.452	20058
893.575	20161
893.697	20027
893.819	20267
893.941	20370
894.064	20385
894.186	20050
894.308	20024
894.43	20214
894.552	20362
894.674	20237
894.796	19963
894.918	20092
895.04	20077
895.161	20195
895.283	20096
895.405	19982
895.526	20077
895.648	20119
895.769	20073
895.891	20221
896.012	20233
896.134	20107
896.255	20100
896.376	20214
896.498	20111
896.619	20168
896.74	20134
896.861	20206
896.982	20393
897.103	20499
897.224	20484
897.345	20347
897.466	20343
897.587	20229
897.708	20442
897.828	20423
897.949	20278
898.07	20248
898.19	20301
898.311	20370
898.431	20278
898.552	20374
898.672	20328
898.792	20423
898.913	20244
899.033	20142
899.153	20172
899.273	20005
899.393	20172
899.513	20221
899.633	20100
899.753	20278
899.873	20001
899.993	20077
900.113	20001
900.232	19997
900.352	19928
900.472	19932
900.591	19784
900.711	19959
900.83	19795
900.95	19871
901.069	19951
901.189	19799
901.308	19487
901.427	19563
901.546	19556
901.665	19567
901.784	19381
901.904	19445
902.023	19301
902.141	19023
902.26	18947
902.379	19084
902.498	18954
902.617	18943
902.735	19042
902.854	18924
902.973	18951
903.091	18669
903.21	18650
903.328	18582
903.446	18570
903.565	18426
903.683	18418
903.801	18311
903.919	18323
904.038	18251
904.156	18266
904.274	18323
904.392	18091
904.51	18136
904.627	18338
904.745	18243
904.863	18304
904.981	18053
905.098	17999
905.216	17954
905.334	17904
905.451	17843
905.569	17790
905.686	18026
905.803	17893
905.921	17646
906.038	17836
906.155	17752
906.272	17581
906.389	17558
906.506	17490
906.623	17406
906.74	17471
906.857	17296
906.974	17379
907.091	17417
907.208	17570
907.324	17436
907.441	17265
907.557	17136
907.674	17147
907.79	17071
907.907	17094
908.023	17162
908.139	17121
908.256	17048
908.372	17041
908.488	16949
908.604	16995
908.72	16801
908.836	16987
908.952	16831
909.068	16873
909.184	16835
909.3	16919
909.415	16873
909.531	16839
909.647	16485
909.762	16561
909.878	16493
909.993	16466
910.108	16504
910.224	16573
910.339	16542
910.454	16516
910.57	16348
910.685	16344
910.8	16664
910.915	16478
911.03	16322
911.145	16124
911.259	16185
911.374	16215
911.489	16036
911.604	15903
911.718	15895
911.833	15937
911.947	15880
912.062	15732
912.176	15785
912.291	15888
912.405	15800
912.519	16051
912.633	16055
912.748	15968
912.862	15884
912.976	15739
913.09	15595
913.204	15629
913.318	15846
913.431	15838
913.545	15770
913.659	15789
913.772	15698
913.886	15557
914	15511
914.113	15515
914.226	15568
914.34	15538
914.453	15504
914.566	15580
914.68	15454
914.793	15370
914.906	15195
915.019	15256
915.132	15116
915.245	15176
915.358	15165
915.47	15230
915.583	15100
915.696	15150
915.809	15157
915.921	15203
916.034	15127
916.146	15055
916.259	14986
916.371	15032
916.483	15108
916.595	14944
916.708	14937
916.82	14849
916.932	14857
917.044	14838
917.156	14872
917.268	14804
917.38	14769
917.491	14727
917.603	14804
917.715	14861
917.826	14815
917.938	14792
918.049	14655
918.161	14754
918.272	14864
918.384	14857
918.495	14727
918.606	14621
918.717	14488
918.828	14670
918.939	14629
919.05	14469
919.161	14408
919.272	14252
919.383	14324
919.494	14533
919.604	14678
919.715	14530
919.826	14374
919.936	14484
920.047	14530
920.157	14457
920.267	14697
920.378	14552
920.488	14374
920.598	14682
920.708	14781
920.818	14549
920.928	14693
921.038	14788
921.148	14716
921.258	14423
921.368	14339
921.477	14252
921.587	14180
921.697	14092
921.806	14191
921.916	14073
922.025	13951
922.134	13868
922.244	13826
922.353	13791
922.462	13750
922.571	13575
922.68	13590
922.789	13480
922.898	13582
923.007	13468
923.116	13468
923.224	13487
923.333	13426
923.442	13388
923.55	13247
923.659	13335
923.767	13392
923.876	13362
923.984	13407
924.092	13221
924.201	13293
924.309	13240
924.417	13266
924.525	13160
924.633	13244
924.741	13951
924.849	12973
924.956	13019
925.064	12996
925.172	12909
925.279	12977
925.387	12977
925.494	12882
925.602	13008
925.709	13084
925.816	12829
925.924	12935
926.031	12920
926.138	12840
926.245	12863
926.352	12840
926.459	12924
926.566	13015
926.673	12916
926.779	12684
926.886	12601
926.993	12547
927.099	12544
927.206	12475
927.312	12502
927.419	12494
927.525	12342
927.631	12498
927.737	12414
927.843	12433
927.95	12323
928.056	12384
928.162	12350
928.267	12384
928.373	13042
928.479	12418
928.585	12144
928.69	12235
928.796	12292
928.901	12220
929.007	12102
929.112	12247
929.218	12098
929.323	12121
929.428	12095
929.533	12205
929.638	11931
929.743	12034
929.848	12064
929.953	12045
930.058	11999
930.163	11718
930.267	11779
930.372	11954
930.477	11718
930.581	11885
930.685	11855
930.79	11646
930.894	11676
930.998	11600
931.103	11794
931.207	11429
931.311	11368
931.415	11201
931.519	11056
931.623	11056
