Data from test_V78500241_258.txt Node
Date: Fri Mar 25 15:11:39 CST 2022
User: usil
Spectrometer: V785-0024
Trigger mode: 0
Integration Time (sec): 4.000000E-1
Scans to average: 1
Nonlinearity correction enabled: false
Boxcar width: 0
Storing dark spectrum: false
XAxis mode: Wavelengths
Number of Pixels in Spectrum: 1024
>>>>>Begin Spectral Data<<<<<
801.071	28375
801.214	28314
801.356	28105
801.499	27914
801.641	27766
801.783	27800
801.926	27975
802.068	27819
802.211	27831
802.353	27709
802.496	27435
802.638	27507
802.78	27507
802.923	27481
803.065	27412
803.208	27500
803.35	27469
803.492	27679
803.635	27652
803.777	27644
803.919	27709
804.061	27930
804.204	27816
804.346	27671
804.488	27580
804.63	27538
804.773	27389
804.915	27610
805.057	27709
805.199	27675
805.341	27629
805.483	27644
805.626	27660
805.768	27572
805.91	27956
806.052	27698
806.194	27759
806.336	27785
806.478	27743
806.62	27686
806.762	27911
806.904	28154
807.046	28105
807.188	28249
807.33	28139
807.472	28158
807.614	28082
807.756	28048
807.898	27998
808.04	27907
808.182	27991
808.324	28147
808.465	28063
808.607	28013
808.749	28329
808.891	28474
809.033	28424
809.174	28386
809.316	28356
809.458	28462
809.6	28360
809.741	28485
809.883	28489
810.025	28637
810.166	28702
810.308	28683
810.45	28474
810.591	28401
810.733	28207
810.875	28295
811.016	28196
811.158	28158
811.299	28405
811.441	28615
811.582	28360
811.724	28211
811.865	28337
812.007	28318
812.148	28238
812.29	28417
812.431	28512
812.573	28580
812.714	28702
812.855	28691
812.997	28968
813.138	29041
813.279	28938
813.421	28984
813.562	28896
813.703	28694
813.845	28462
813.986	28226
814.127	28051
814.268	28032
814.41	27956
814.551	27797
814.692	27968
814.833	27899
814.974	27797
815.115	28093
815.256	27724
815.397	27774
815.539	27743
815.68	27831
815.821	27610
815.962	27846
816.103	27625
816.244	27511
816.385	27492
816.526	27538
816.666	27374
816.807	27017
816.948	27279
817.089	27302
817.23	27157
817.371	27116
817.512	27279
817.653	27260
817.793	27195
817.934	27154
818.075	27161
818.216	27184
818.356	27192
818.497	27074
818.638	26712
818.778	26804
818.919	26891
819.06	27009
819.2	27081
819.341	27077
819.481	26963
819.622	27264
819.762	27496
819.903	27329
820.043	27431
820.184	27176
820.324	27252
820.465	27306
820.605	27192
820.746	27131
820.886	27089
821.026	27233
821.167	27222
821.307	27260
821.447	27104
821.588	26952
821.728	26918
821.868	26788
822.008	26575
822.149	26682
822.289	26629
822.429	26229
822.569	26278
822.709	26248
822.849	25966
822.99	26046
823.13	25917
823.27	26111
823.41	25837
823.55	25655
823.69	25902
823.83	25845
823.97	25890
824.11	25689
824.25	25689
824.389	25651
824.529	25757
824.669	25757
824.809	25791
824.949	25791
825.089	25803
825.228	25715
825.368	25518
825.508	25571
825.648	25483
825.787	25552
825.927	25635
826.067	25400
826.206	25324
826.346	25552
826.485	25556
826.625	25548
826.765	25468
826.904	25590
827.044	25453
827.183	25152
827.323	25137
827.462	25240
827.601	25247
827.741	25213
827.88	25247
828.02	25164
828.159	25110
828.298	25240
828.437	25126
828.577	25114
828.716	25179
828.855	25084
828.994	24840
829.134	24890
829.273	24947
829.412	24886
829.551	24844
829.69	24764
829.829	24856
829.968	25012
830.107	25000
830.246	24863
830.385	24890
830.524	24901
830.663	24840
830.802	24654
830.941	24429
831.08	24410
831.219	24498
831.357	24566
831.496	24863
831.635	24452
831.774	24350
831.913	24407
832.051	24247
832.19	24334
832.329	24327
832.467	24197
832.606	24060
832.744	24144
832.883	24209
833.022	24121
833.16	24178
833.299	24243
833.437	24140
833.576	24220
833.714	24159
833.852	24224
833.991	24251
834.129	24228
834.267	24205
834.406	24205
834.544	24232
834.682	24251
834.821	24045
834.959	24327
835.097	24125
835.235	24228
835.373	24125
835.511	24209
835.65	24125
835.788	24144
835.926	23961
836.064	23813
836.202	23897
836.34	24129
836.478	24117
836.615	24117
836.753	23996
836.891	24030
837.029	24068
837.167	23988
837.305	23923
837.443	23840
837.58	23897
837.718	23889
837.856	23916
837.993	23832
838.131	23931
838.269	23805
838.406	23710
838.544	23615
838.681	23531
838.819	23414
838.956	23349
839.094	23387
839.231	23414
839.369	23436
839.506	23687
839.643	23680
839.781	23261
839.918	23227
840.055	23360
840.193	23296
840.33	23292
840.467	23246
840.604	23216
840.742	23337
840.879	23185
841.016	23208
841.153	23098
841.29	23277
841.427	23075
841.564	23231
841.701	23064
841.838	23193
841.975	23044
842.112	23056
842.249	23010
842.385	22831
842.522	22991
842.659	22911
842.796	22908
842.933	22843
843.069	22850
843.206	22850
843.343	22995
843.479	22885
843.616	22953
843.752	22706
843.889	22653
844.025	22885
844.162	22797
844.298	22869
844.435	22691
844.571	22546
844.708	22641
844.844	22847
844.98	22869
845.117	22752
845.253	22508
845.389	22523
845.525	22584
845.661	22550
845.798	22459
845.934	22451
846.07	22398
846.206	22436
846.342	22428
846.478	22348
846.614	22158
846.75	22154
846.886	22006
847.022	22272
847.158	22238
847.294	22143
847.429	22048
847.565	22139
847.701	22375
847.837	21816
847.972	21823
848.108	22078
848.244	21842
848.379	21819
848.515	21827
848.65	21709
848.786	21751
848.921	21762
849.057	21956
849.192	21800
849.328	21599
849.463	21705
849.598	21652
849.734	21572
849.869	21545
850.004	21507
850.14	21462
850.275	21595
850.41	21492
850.545	21469
850.68	21363
850.815	21473
850.95	21523
851.085	21652
851.22	21542
851.355	21515
851.49	21587
851.625	21443
851.76	21344
851.895	21348
852.03	21397
852.165	21408
852.299	21469
852.434	21492
852.569	21477
852.703	21477
852.838	21488
852.973	21538
853.107	21435
853.242	21439
853.376	21241
853.511	21074
853.645	21298
853.78	21431
853.914	21336
854.048	21226
854.183	21393
854.317	21393
854.451	21420
854.585	21214
854.72	21279
854.854	21340
854.988	21237
855.122	21249
855.256	21249
855.39	21218
855.524	21256
855.658	21313
855.792	21199
855.926	21279
856.06	21397
856.194	21370
856.327	21211
856.461	21313
856.595	21173
856.729	21237
856.862	21260
856.996	21287
857.13	21340
857.263	21389
857.397	21302
857.53	21230
857.664	21291
857.797	21363
857.931	21367
858.064	21275
858.197	21287
858.331	21245
858.464	21275
858.597	21173
858.731	21230
858.864	21173
858.997	21184
859.13	21291
859.263	21195
859.396	21336
859.529	21199
859.662	21237
859.795	21207
859.928	21382
860.061	21374
860.194	21477
860.327	21329
860.46	21302
860.592	21279
860.725	21344
860.858	21355
860.99	21252
861.123	21066
861.256	21207
861.388	21203
861.521	21953
861.653	21055
861.786	20880
861.918	21165
862.05	21142
862.183	21237
862.315	21222
862.447	21382
862.58	21127
862.712	20952
862.844	20933
862.976	21001
863.108	20994
863.24	21469
863.372	20933
863.504	20880
863.636	20933
863.768	20952
863.9	21017
864.032	20838
864.164	20849
864.296	21020
864.428	20998
864.559	20937
864.691	20982
864.823	20937
864.954	20883
865.086	20861
865.217	20937
865.349	20807
865.48	20857
865.612	20823
865.743	20857
865.875	20762
866.006	20659
866.137	20868
866.269	20811
866.4	20807
866.531	20746
866.662	20686
866.793	20826
866.924	20739
867.055	20804
867.186	20731
867.317	20785
867.448	20693
867.579	20758
867.71	20648
867.841	20636
867.972	20788
868.103	20853
868.233	20823
868.364	20769
868.495	20792
868.625	20986
868.756	21116
868.886	20952
869.017	21062
869.147	20994
869.278	21055
869.408	20937
869.539	21028
869.669	21036
869.799	21077
869.929	21165
870.06	21096
870.19	21298
870.32	21104
870.45	21256
870.58	21397
870.71	21291
870.84	21462
870.97	21370
871.1	21313
871.23	21507
871.36	21610
871.489	21530
871.619	21401
871.749	21682
871.879	21591
872.008	21705
872.138	21568
872.267	21511
872.397	21378
872.526	21435
872.656	21374
872.785	21336
872.915	21717
873.044	21739
873.173	21629
873.303	21625
873.432	21751
873.561	21724
873.69	21743
873.819	21500
873.948	21713
874.077	21576
874.206	21561
874.335	21606
874.464	21781
874.593	21800
874.722	21717
874.851	21979
874.979	21846
875.108	21819
875.237	21838
875.365	21656
875.494	21884
875.623	21926
875.751	21728
875.88	21911
876.008	22002
876.136	22025
876.265	22272
876.393	22337
876.521	22360
876.65	22287
876.778	22306
876.906	22082
877.034	22261
877.162	22284
877.29	22135
877.418	22238
877.546	22299
877.674	22177
877.802	22265
877.93	22268
878.058	22101
878.185	22002
878.313	22150
878.441	22207
878.568	21979
878.696	22070
878.824	22265
878.951	22265
879.079	22550
879.206	22428
879.333	22268
879.461	22234
879.588	22261
879.715	22303
879.842	22599
879.97	22303
880.097	21930
880.224	22006
880.351	22128
880.478	22063
880.605	22059
880.732	21953
880.859	22257
880.986	22059
881.112	22112
881.239	21804
881.366	21797
881.493	21850
881.619	21591
881.746	21572
881.872	21667
881.999	21606
882.125	21568
882.252	21679
882.378	21523
882.505	21690
882.631	21443
882.757	21332
882.883	21416
883.01	21294
883.136	21310
883.262	21176
883.388	21058
883.514	21268
883.64	21351
883.766	21260
883.892	21070
884.018	21096
884.143	21233
884.269	21294
884.395	20952
884.52	20982
884.646	20979
884.772	20842
884.897	20906
885.023	20830
885.148	20948
885.274	21089
885.399	21093
885.524	20952
885.65	20994
885.775	20979
885.9	20906
886.025	21081
886.15	21074
886.275	20925
886.4	20902
886.525	20906
886.65	20811
886.775	20937
886.9	21116
887.025	21272
887.149	20929
887.274	20712
887.399	20769
887.523	20625
887.648	20682
887.773	20609
887.897	20735
888.021	20796
888.146	20689
888.27	20819
888.395	20823
888.519	20693
888.643	20705
888.767	20712
888.891	20602
889.015	20579
889.139	20503
889.263	20488
889.387	20579
889.511	20609
889.635	20678
889.759	20594
889.883	20526
890.006	20457
890.13	20602
890.254	20400
890.377	20366
890.501	20275
890.624	20221
890.748	20259
890.871	20142
890.995	20149
891.118	20008
891.241	20043
891.364	20046
891.488	20164
891.611	20084
891.734	20081
891.857	20058
891.98	19967
892.103	20092
892.226	20031
892.349	19986
892.471	19761
892.594	20065
892.717	20027
892.839	20005
892.962	19986
893.085	20001
893.207	19940
893.33	19849
893.452	19955
893.575	19894
893.697	19986
893.819	20161
893.941	20149
894.064	20233
894.186	19753
894.308	19917
894.43	19967
894.552	20187
894.674	19959
894.796	19890
894.918	19955
895.04	19989
895.161	19982
895.283	20069
895.405	19833
895.526	20054
895.648	20046
895.769	20043
895.891	19944
896.012	19963
896.134	19982
896.255	19955
896.376	19989
896.498	19989
896.619	20031
896.74	19909
896.861	20115
896.982	20305
897.103	20408
897.224	20415
897.345	20320
897.466	20050
897.587	20164
897.708	20294
897.828	20313
897.949	20142
898.07	20145
898.19	20122
898.311	20199
898.431	20111
898.552	20183
898.672	20191
898.792	20221
898.913	20100
899.033	20054
899.153	19955
899.273	19837
899.393	19913
899.513	19921
899.633	19955
899.753	19845
899.873	19791
899.993	19845
900.113	19803
900.232	19906
900.352	19788
900.472	19670
900.591	19643
900.711	19639
900.83	19575
900.95	19666
901.069	19803
901.189	19613
901.308	19384
901.427	19259
901.546	19278
901.665	19358
901.784	19282
901.904	19053
902.023	19168
902.141	18776
902.26	18791
902.379	18973
902.498	18795
902.617	18821
902.735	18787
902.854	18757
902.973	18661
903.091	18483
903.21	18494
903.328	18422
903.446	18338
903.565	18311
903.683	18232
903.801	18125
903.919	18205
904.038	18254
904.156	18041
904.274	18197
904.392	18011
904.51	17950
904.627	17946
904.745	18087
904.863	18019
904.981	17771
905.098	17672
905.216	17722
905.334	17687
905.451	17794
905.569	17562
905.686	17733
905.803	17775
905.921	17532
906.038	17600
906.155	17436
906.272	17455
906.389	17436
906.506	17318
906.623	17265
906.74	17292
906.857	17098
906.974	17151
907.091	17337
907.208	17250
907.324	17223
907.441	17094
907.557	16934
907.674	16908
907.79	16843
907.907	16946
908.023	16968
908.139	16949
908.256	16904
908.372	16930
908.488	16767
908.604	16664
908.72	16500
908.836	16615
908.952	16645
909.068	16615
909.184	16752
909.3	16721
909.415	16687
909.531	16634
909.647	16341
909.762	16341
909.878	16280
909.993	16325
910.108	16367
910.224	16455
910.339	16375
910.454	16223
910.57	16105
910.685	16086
910.8	16436
910.915	16310
911.03	16185
911.145	15934
911.259	15949
911.374	15926
911.489	15915
911.604	15846
911.718	15686
911.833	15679
911.947	15561
912.062	15492
912.176	15587
912.291	15713
912.405	15603
912.519	15880
912.633	15831
912.748	15679
912.862	15587
912.976	15545
913.09	15424
913.204	15447
913.318	15500
913.431	15595
913.545	15595
913.659	15599
913.772	15367
913.886	15302
914	15283
914.113	15443
914.226	15389
914.34	15355
914.453	15173
914.566	15287
914.68	15119
914.793	15131
914.906	14952
915.019	14842
915.132	14952
915.245	14868
915.358	14891
915.47	14906
915.583	14990
915.696	14982
915.809	15036
915.921	15001
916.034	14842
916.146	14906
916.259	14819
916.371	14937
916.483	14857
916.595	14750
916.708	14739
916.82	14682
916.932	14670
917.044	14739
917.156	14727
917.268	14590
917.38	14503
917.491	14587
917.603	14571
917.715	14629
917.826	14663
917.938	14469
918.049	14408
918.161	14518
918.272	14640
918.384	14526
918.495	14526
918.606	14336
918.717	14317
918.828	14336
918.939	14339
919.05	14290
919.161	14240
919.272	14069
919.383	14100
919.494	14362
919.604	14480
919.715	14358
919.826	14161
919.936	14275
920.047	14328
920.157	14237
920.267	14457
920.378	14336
920.488	14256
920.598	14446
920.708	14545
920.818	14446
920.928	14377
921.038	14522
921.148	14492
921.258	14225
921.368	14126
921.477	14077
921.587	14073
921.697	13887
921.806	14050
921.916	13845
922.025	13616
922.134	13662
922.244	13658
922.353	13662
922.462	13529
922.571	13441
922.68	13316
922.789	13285
922.898	13270
923.007	13274
923.116	13365
923.224	13225
923.333	13194
923.442	13091
923.55	13114
923.659	13156
923.767	13232
923.876	13072
923.984	13126
924.092	13061
924.201	13126
924.309	13042
924.417	13057
924.525	13019
924.633	12954
924.741	13681
924.849	12795
924.956	12909
925.064	12814
925.172	12665
925.279	12726
925.387	12776
925.494	12688
925.602	12909
925.709	12791
925.816	12563
925.924	12684
926.031	12757
926.138	12646
926.245	12776
926.352	12642
926.459	12692
926.566	12688
926.673	12566
926.779	12563
926.886	12475
926.993	12262
927.099	12273
927.206	12273
927.312	12232
927.419	12357
927.525	12232
927.631	12266
927.737	12140
927.843	12114
927.95	11999
928.056	12133
928.162	12213
928.267	12197
928.373	12646
928.479	12270
928.585	11961
928.69	12152
928.796	12076
928.901	11973
929.007	11836
929.112	12038
929.218	11927
929.323	11885
929.428	11859
929.533	11950
929.638	11840
929.743	11771
929.848	11809
929.953	11824
930.058	11630
930.163	11573
930.267	11505
930.372	11661
930.477	11493
930.581	11714
930.685	11672
930.79	11402
930.894	11551
930.998	11532
931.103	11493
931.207	11159
931.311	11086
931.415	10961
931.519	10824
931.623	10740
