Data from test_V78500241_1882.txt Node
Date: Fri Mar 25 15:22:57 CST 2022
User: usil
Spectrometer: V785-0024
Trigger mode: 0
Integration Time (sec): 4.000000E-1
Scans to average: 1
Nonlinearity correction enabled: false
Boxcar width: 0
Storing dark spectrum: false
XAxis mode: Wavelengths
Number of Pixels in Spectrum: 1024
>>>>>Begin Spectral Data<<<<<
801.071	27876
801.214	27732
801.356	27568
801.499	27412
801.641	27332
801.783	27492
801.926	27249
802.068	27420
802.211	27283
802.353	27313
802.496	27028
802.638	26960
802.78	26925
802.923	26887
803.065	26807
803.208	26929
803.35	27009
803.492	27176
803.635	27283
803.777	27058
803.919	27100
804.061	27458
804.204	27218
804.346	27100
804.488	27070
804.63	27230
804.773	27032
804.915	27184
805.057	27298
805.199	27260
805.341	27325
805.483	27389
805.626	27336
805.768	27154
805.91	27313
806.052	27321
806.194	27359
806.336	27412
806.478	27378
806.62	27412
806.762	27302
806.904	27568
807.046	27861
807.188	27701
807.33	27778
807.472	27724
807.614	27717
807.756	27576
807.898	27637
808.04	27545
808.182	27496
808.324	27557
808.465	27595
808.607	27835
808.749	28097
808.891	28093
809.033	27987
809.174	27907
809.316	27838
809.458	27956
809.6	27949
809.741	28029
809.883	28051
810.025	28173
810.166	28139
810.308	28067
810.45	28112
810.591	28101
810.733	27751
810.875	27770
811.016	27789
811.158	27762
811.299	27994
811.441	27972
811.582	28101
811.724	27930
811.865	27831
812.007	27846
812.148	27972
812.29	28055
812.431	28074
812.573	28322
812.714	28299
812.855	28607
812.997	28656
813.138	28603
813.279	28542
813.421	28325
813.562	28409
813.703	28261
813.845	28131
813.986	27979
814.127	27797
814.268	27534
814.41	27713
814.551	27500
814.692	27686
814.833	27614
814.974	27557
815.115	27477
815.256	27401
815.397	27485
815.539	27492
815.68	27492
815.821	27325
815.962	27306
816.103	27306
816.244	27294
816.385	27310
816.526	27226
816.666	26940
816.807	26944
816.948	27024
817.089	26857
817.23	26842
817.371	26902
817.512	26921
817.653	26823
817.793	26777
817.934	26975
818.075	26857
818.216	26971
818.356	26830
818.497	26800
818.638	26587
818.778	26625
818.919	26613
819.06	26682
819.2	26674
819.341	26819
819.481	26853
819.622	26971
819.762	27218
819.903	27199
820.043	27028
820.184	27066
820.324	26963
820.465	27093
820.605	26982
820.746	27051
820.886	26891
821.026	27009
821.167	26967
821.307	27176
821.447	26876
821.588	26819
821.728	26705
821.868	26495
822.008	26484
822.149	26355
822.289	26355
822.429	26130
822.569	26043
822.709	26069
822.849	25864
822.99	26126
823.13	25883
823.27	25913
823.41	25731
823.55	25597
823.69	25719
823.83	25738
823.97	25655
824.11	25468
824.25	25495
824.389	25544
824.529	25613
824.669	25639
824.809	25643
824.949	25658
825.089	25567
825.228	25533
825.368	25373
825.508	25388
825.648	25495
825.787	25472
825.927	25377
826.067	25282
826.206	25362
826.346	25377
826.485	25403
826.625	25453
826.765	25540
826.904	25407
827.044	25145
827.183	25187
827.323	25080
827.462	25171
827.601	25419
827.741	25118
827.88	25110
828.02	24977
828.159	25042
828.298	25118
828.437	25175
828.577	25012
828.716	25266
828.855	25095
828.994	24772
829.134	24810
829.273	24928
829.412	24817
829.551	24825
829.69	24817
829.829	24894
829.968	24958
830.107	24859
830.246	24719
830.385	24787
830.524	24764
830.663	24642
830.802	24494
830.941	24536
831.08	24403
831.219	24627
831.357	24505
831.496	24711
831.635	24452
831.774	24376
831.913	24498
832.051	24334
832.19	24361
832.329	24171
832.467	24262
832.606	24205
832.744	24144
832.883	24182
833.022	24174
833.16	24201
833.299	24209
833.437	24220
833.576	24140
833.714	24224
833.852	24235
833.991	24285
834.129	24266
834.267	24251
834.406	24194
834.544	24327
834.682	24266
834.821	24159
834.959	24429
835.097	24194
835.235	24201
835.373	24178
835.511	24201
835.65	24053
835.788	24129
835.926	23939
836.064	23878
836.202	23965
836.34	24022
836.478	24121
836.615	23999
836.753	24159
836.891	24034
837.029	23984
837.167	23961
837.305	23904
837.443	23980
837.58	23798
837.718	23843
837.856	23798
837.993	23783
838.131	23969
838.269	23832
838.406	23798
838.544	23756
838.681	23611
838.819	23547
838.956	23364
839.094	23353
839.231	23284
839.369	23573
839.506	23687
839.643	23665
839.781	23292
839.918	23273
840.055	23353
840.193	23322
840.33	23296
840.467	23303
840.604	23315
840.742	23501
840.879	23132
841.016	23273
841.153	23170
841.29	23353
841.427	23406
841.564	23242
841.701	23398
841.838	23235
841.975	23041
842.112	23155
842.249	23102
842.385	23041
842.522	23311
842.659	22949
842.796	22991
842.933	22991
843.069	23109
843.206	22942
843.343	23132
843.479	23014
843.616	23136
843.752	22854
843.889	22896
844.025	23044
844.162	22866
844.298	22885
844.435	22790
844.571	22790
844.708	22778
844.844	22896
844.98	23025
845.117	22991
845.253	22725
845.389	22618
845.525	22660
845.661	22694
845.798	22630
845.934	22519
846.07	22557
846.206	22489
846.342	22565
846.478	22519
846.614	22352
846.75	22169
846.886	22390
847.022	22268
847.158	22295
847.294	22177
847.429	22299
847.565	22352
847.701	22421
847.837	22032
847.972	22082
848.108	22143
848.244	22109
848.379	22055
848.515	21781
848.65	21755
848.786	21949
848.921	21854
849.057	21975
849.192	21941
849.328	21873
849.463	21873
849.598	21819
849.734	21873
849.869	21759
850.004	21701
850.14	21682
850.275	21599
850.41	21519
850.545	21732
850.68	21549
850.815	21633
850.95	21679
851.085	21797
851.22	21751
851.355	21622
851.49	21652
851.625	21679
851.76	21778
851.895	21553
852.03	21622
852.165	21549
852.299	21618
852.434	21561
852.569	21720
852.703	21633
852.838	21599
852.973	21739
853.107	21720
853.242	21530
853.376	21576
853.511	21485
853.645	21428
853.78	21679
853.914	21511
854.048	21439
854.183	21568
854.317	21431
854.451	21622
854.585	21481
854.72	21416
854.854	21580
854.988	21389
855.122	21561
855.256	21329
855.39	21450
855.524	21500
855.658	21553
855.792	21450
855.926	21477
856.06	21530
856.194	21496
856.327	21367
856.461	21424
856.595	21256
856.729	21431
856.862	21542
856.996	21526
857.13	21568
857.263	21580
857.397	21641
857.53	21469
857.664	21557
857.797	21496
857.931	21488
858.064	21572
858.197	21515
858.331	21469
858.464	21329
858.597	21291
858.731	21454
858.864	21466
858.997	21397
859.13	21572
859.263	21386
859.396	21420
859.529	21447
859.662	21500
859.795	21481
859.928	21466
860.061	21622
860.194	21557
860.327	21538
860.46	21561
860.592	21557
860.725	21667
860.858	21458
860.99	21447
861.123	21397
861.256	21370
861.388	21408
861.521	22078
861.653	21458
861.786	21272
861.918	21245
862.05	21245
862.183	21355
862.315	21359
862.447	21428
862.58	21439
862.712	21108
862.844	21146
862.976	21241
863.108	21203
863.24	21580
863.372	20956
863.504	21180
863.636	21176
863.768	21169
863.9	21150
864.032	21180
864.164	21173
864.296	21112
864.428	21313
864.559	21161
864.691	21119
864.823	21218
864.954	21180
865.086	21161
865.217	21226
865.349	20994
865.48	20998
865.612	21077
865.743	21150
865.875	21150
866.006	20925
866.137	21036
866.269	20994
866.4	20998
866.531	21096
866.662	20925
866.793	20967
866.924	21017
867.055	20975
867.186	20986
867.317	20967
867.448	20925
867.579	21017
867.71	20883
867.841	20952
867.972	21028
868.103	20971
868.233	20994
868.364	20990
868.495	21005
868.625	21131
868.756	21336
868.886	21100
869.017	21173
869.147	21272
869.278	21378
869.408	21131
869.539	21119
869.669	21306
869.799	21203
869.929	21412
870.06	21313
870.19	21564
870.32	21549
870.45	21481
870.58	21561
870.71	21698
870.84	21656
870.97	21625
871.1	21644
871.23	21812
871.36	21808
871.489	21728
871.619	21709
871.749	21743
871.879	21911
872.008	21911
872.138	21766
872.267	21861
872.397	21637
872.526	21648
872.656	21679
872.785	21690
872.915	21797
873.044	21903
873.173	21759
873.303	21903
873.432	21819
873.561	21972
873.69	21895
873.819	21838
873.948	21949
874.077	21869
874.206	21854
874.335	21926
874.464	21888
874.593	22109
874.722	21979
874.851	21960
874.979	22177
875.108	22226
875.237	21983
875.365	21907
875.494	21991
875.623	22044
875.751	21934
875.88	22124
876.008	22105
876.136	22375
876.265	22428
876.393	22508
876.521	22538
876.65	22573
876.778	22382
876.906	22295
877.034	22451
877.162	22337
877.29	22386
877.418	22329
877.546	22443
877.674	22405
877.802	22363
877.93	22428
878.058	22348
878.185	22348
878.313	22268
878.441	22280
878.568	22120
878.696	22348
878.824	22390
878.951	22519
879.079	22538
879.206	22554
879.333	22500
879.461	22519
879.588	22512
879.715	22580
879.842	22717
879.97	22546
880.097	22295
880.224	22185
880.351	22238
880.478	22341
880.605	22188
880.732	22238
880.859	22557
880.986	22249
881.112	22192
881.239	22090
881.366	22044
881.493	21899
881.619	21869
881.746	21797
881.872	21751
881.999	21770
882.125	21762
882.252	21865
882.378	21793
882.505	22025
882.631	21743
882.757	21641
882.883	21538
883.01	21511
883.136	21507
883.262	21382
883.388	21268
883.514	21564
883.64	21622
883.766	21500
883.892	21348
884.018	21355
884.143	21370
884.269	21660
884.395	21233
884.52	21127
884.646	21199
884.772	21089
884.897	21009
885.023	21154
885.148	21237
885.274	21275
885.399	21298
885.524	21116
885.65	21176
885.775	21218
885.9	21089
886.025	21230
886.15	21230
886.275	21112
886.4	21017
886.525	21108
886.65	21009
886.775	20971
886.9	21123
887.025	21291
887.149	21142
887.274	20895
887.399	20918
887.523	20906
887.648	20857
887.773	20792
887.897	20990
888.021	20853
888.146	20849
888.27	21112
888.395	20967
888.519	20933
888.643	20918
888.767	20910
888.891	20815
889.015	20834
889.139	20758
889.263	20644
889.387	20826
889.511	20910
889.635	20819
889.759	20785
889.883	20727
890.006	20735
890.13	20845
890.254	20686
890.377	20632
890.501	20522
890.624	20499
890.748	20434
890.871	20419
890.995	20218
891.118	20210
891.241	20301
891.364	20328
891.488	20476
891.611	20286
891.734	20278
891.857	20370
891.98	20275
892.103	20309
892.226	20301
892.349	20214
892.471	20119
892.594	20267
892.717	20256
892.839	20183
892.962	20111
893.085	20244
893.207	20088
893.33	20043
893.452	20107
893.575	20164
893.697	20199
893.819	20294
893.941	20317
894.064	20290
894.186	20172
894.308	20062
894.43	20195
894.552	20396
894.674	20286
894.796	20043
894.918	20039
895.04	20100
895.161	20267
895.283	20161
895.405	19967
895.526	20221
895.648	20172
895.769	20221
895.891	20286
896.012	20339
896.134	20168
896.255	20225
896.376	20031
896.498	20065
896.619	20248
896.74	20145
896.861	20324
896.982	20446
897.103	20518
897.224	20518
897.345	20343
897.466	20309
897.587	20419
897.708	20564
897.828	20446
897.949	20317
898.07	20343
898.19	20290
898.311	20347
898.431	20275
898.552	20336
898.672	20552
898.792	20423
898.913	20476
899.033	20191
899.153	20214
899.273	20065
899.393	20130
899.513	20172
899.633	20084
899.753	20206
899.873	20100
899.993	20138
900.113	20069
900.232	20088
900.352	20149
900.472	19860
900.591	19868
900.711	19932
900.83	19807
900.95	19913
901.069	19970
901.189	19822
901.308	19590
901.427	19411
901.546	19480
901.665	19506
901.784	19544
901.904	19388
902.023	19263
902.141	19175
902.26	18977
902.379	19126
902.498	18951
902.617	19000
902.735	18943
902.854	18970
902.973	18935
903.091	18635
903.21	18639
903.328	18696
903.446	18540
903.565	18601
903.683	18559
903.801	18429
903.919	18426
904.038	18445
904.156	18304
904.274	18391
904.392	18228
904.51	18121
904.627	18163
904.745	18357
904.863	18270
904.981	17939
905.098	17832
905.216	17958
905.334	17984
905.451	17866
905.569	17870
905.686	17912
905.803	17916
905.921	17722
906.038	17760
906.155	17783
906.272	17592
906.389	17600
906.506	17452
906.623	17524
906.74	17440
906.857	17292
906.974	17414
907.091	17516
907.208	17532
907.324	17554
907.441	17353
907.557	17166
907.674	17170
907.79	17143
907.907	17132
908.023	17090
908.139	17090
908.256	17029
908.372	17105
908.488	17075
908.604	16904
908.72	16930
908.836	16831
908.952	16938
909.068	17033
909.184	17003
909.3	16904
909.415	16900
909.531	16881
909.647	16645
909.762	16687
909.878	16618
909.993	16702
910.108	16512
910.224	16611
910.339	16531
910.454	16481
910.57	16466
910.685	16390
910.8	16538
910.915	16542
911.03	16402
911.145	16181
911.259	16192
911.374	16147
911.489	16143
911.604	16158
911.718	15945
911.833	15987
911.947	15812
912.062	15781
912.176	15915
912.291	15884
912.405	15884
912.519	16128
912.633	16010
912.748	16067
912.862	15785
912.976	15751
913.09	15610
913.204	15732
913.318	15675
913.431	15808
913.545	15854
913.659	15789
913.772	15770
913.886	15584
914	15568
914.113	15603
914.226	15660
914.34	15595
914.453	15431
914.566	15675
914.68	15401
914.793	15424
914.906	15298
915.019	15138
915.132	15062
915.245	15131
915.358	15100
915.47	15211
915.583	15093
915.696	15161
915.809	15245
915.921	15321
916.034	15157
916.146	15047
916.259	14998
916.371	15119
916.483	15043
916.595	14918
916.708	15017
916.82	14975
916.932	14918
917.044	14929
917.156	14971
917.268	14765
917.38	14781
917.491	14792
917.603	14727
917.715	14895
917.826	14906
917.938	14743
918.049	14689
918.161	14788
918.272	14769
918.384	14971
918.495	14758
918.606	14533
918.717	14427
918.828	14594
918.939	14632
919.05	14507
919.161	14606
919.272	14404
919.383	14370
919.494	14663
919.604	14712
919.715	14571
919.826	14568
919.936	14511
920.047	14659
920.157	14507
920.267	14610
920.378	14560
920.488	14495
920.598	14537
920.708	14800
920.818	14610
920.928	14651
921.038	14819
921.148	14762
921.258	14450
921.368	14419
921.477	14320
921.587	14199
921.697	14088
921.806	14240
921.916	14084
922.025	13902
922.134	13902
922.244	13818
922.353	13928
922.462	13822
922.571	13731
922.68	13540
922.789	13563
922.898	13586
923.007	13426
923.116	13613
923.224	13483
923.333	13480
923.442	13415
923.55	13468
923.659	13419
923.767	13381
923.876	13266
923.984	13327
924.092	13304
924.201	13381
924.309	13312
924.417	13247
924.525	13202
924.633	13244
924.741	14134
924.849	13015
924.956	13160
925.064	12939
925.172	12875
925.279	12924
925.387	12954
925.494	12951
925.602	13076
925.709	13031
925.816	12947
925.924	12913
926.031	13015
926.138	12935
926.245	12871
926.352	12821
926.459	12897
926.566	13008
926.673	12814
926.779	12688
926.886	12719
926.993	12544
927.099	12540
927.206	12540
927.312	12369
927.419	12570
927.525	12517
927.631	12578
927.737	12388
927.843	12296
927.95	12289
928.056	12342
928.162	12338
928.267	12342
928.373	12973
928.479	12384
928.585	12186
928.69	12304
928.796	12323
928.901	12167
929.007	12003
929.112	12163
929.218	12182
929.323	12015
929.428	12121
929.533	12175
929.638	11965
929.743	12019
929.848	12091
929.953	12068
930.058	11866
930.163	11790
930.267	11790
930.372	11885
930.477	11794
930.581	11916
930.685	11760
930.79	11604
930.894	11688
930.998	11589
931.103	11733
931.207	11398
931.311	11311
931.415	11261
931.519	11098
931.623	11041
