Data from test_V78500241_373.txt Node
Date: Fri Mar 25 15:12:27 CST 2022
User: usil
Spectrometer: V785-0024
Trigger mode: 0
Integration Time (sec): 4.000000E-1
Scans to average: 1
Nonlinearity correction enabled: false
Boxcar width: 0
Storing dark spectrum: false
XAxis mode: Wavelengths
Number of Pixels in Spectrum: 1024
>>>>>Begin Spectral Data<<<<<
801.071	26994
801.214	26952
801.356	26632
801.499	26724
801.641	26682
801.783	26446
801.926	26667
802.068	26636
802.211	26328
802.353	26244
802.496	26370
802.638	26244
802.78	26294
802.923	26138
803.065	26214
803.208	26103
803.35	26088
803.492	26210
803.635	26408
803.777	26130
803.919	26355
804.061	26533
804.204	26476
804.346	26210
804.488	26084
804.63	26408
804.773	26088
804.915	26309
805.057	26450
805.199	26202
805.341	26324
805.483	26469
805.626	26415
805.768	26453
805.91	26400
806.052	26488
806.194	26343
806.336	26484
806.478	26370
806.62	26393
806.762	26564
806.904	26674
807.046	26918
807.188	26845
807.33	26804
807.472	26792
807.614	26819
807.756	26708
807.898	26716
808.04	26727
808.182	26648
808.324	26651
808.465	26609
808.607	26906
808.749	26990
808.891	27062
809.033	27272
809.174	27043
809.316	27066
809.458	27032
809.6	27032
809.741	27119
809.883	27104
810.025	27336
810.166	27241
810.308	27294
810.45	27283
810.591	27264
810.733	26998
810.875	26956
811.016	26876
811.158	26868
811.299	27066
811.441	27188
811.582	27020
811.724	27020
811.865	26937
812.007	26902
812.148	27013
812.29	26933
812.431	27264
812.573	27332
812.714	27332
812.855	27553
812.997	27622
813.138	27797
813.279	27663
813.421	27717
813.562	27587
813.703	27389
813.845	27100
813.986	26933
814.127	26735
814.268	26609
814.41	26887
814.551	26712
814.692	26720
814.833	26518
814.974	26549
815.115	26583
815.256	26453
815.397	26590
815.539	26579
815.68	26461
815.821	26336
815.962	26503
816.103	26381
816.244	26305
816.385	26298
816.526	26244
816.666	26119
816.807	25978
816.948	26077
817.089	26092
817.23	26008
817.371	25963
817.512	26027
817.653	25868
817.793	25906
817.934	25970
818.075	25966
818.216	25944
818.356	26058
818.497	25753
818.638	25624
818.778	25662
818.919	25746
819.06	25761
819.2	25750
819.341	25959
819.481	25833
819.622	26069
819.762	26294
819.903	26282
820.043	26050
820.184	25951
820.324	26077
820.465	26058
820.605	26092
820.746	25940
820.886	26031
821.026	25928
821.167	26058
821.307	25978
821.447	25932
821.588	25681
821.728	25700
821.868	25495
822.008	25381
822.149	25384
822.289	25438
822.429	25187
822.569	25088
822.709	25042
822.849	24878
822.99	24935
823.13	24852
823.27	24894
823.41	24817
823.55	24585
823.69	24829
823.83	24650
823.97	24661
824.11	24574
824.25	24483
824.389	24544
824.529	24677
824.669	24574
824.809	24593
824.949	24608
825.089	24483
825.228	24536
825.368	24289
825.508	24445
825.648	24422
825.787	24460
825.927	24391
826.067	24311
826.206	24289
826.346	24380
826.485	24445
826.625	24395
826.765	24540
826.904	24365
827.044	24125
827.183	24190
827.323	24053
827.462	24296
827.601	23992
827.741	24057
827.88	23969
828.02	24011
828.159	24106
828.298	24018
828.437	24155
828.577	23889
828.716	24197
828.855	24038
828.994	23901
829.134	23927
829.273	23961
829.412	23638
829.551	23695
829.69	23821
829.829	23809
829.968	23821
830.107	23737
830.246	23805
830.385	23741
830.524	23687
830.663	23665
830.802	23634
830.941	23360
831.08	23356
831.219	23520
831.357	23509
831.496	23592
831.635	23455
831.774	23433
831.913	23277
832.051	23265
832.19	23094
832.329	23235
832.467	23185
832.606	23018
832.744	23162
832.883	23159
833.022	23208
833.16	23155
833.299	23193
833.437	23124
833.576	23235
833.714	23258
833.852	23254
833.991	23280
834.129	23326
834.267	23189
834.406	23246
834.544	23170
834.682	23189
834.821	23181
834.959	23345
835.097	23200
835.235	23269
835.373	23105
835.511	23128
835.65	22999
835.788	23060
835.926	22953
836.064	22927
836.202	22862
836.34	23025
836.478	23223
836.615	23044
836.753	23124
836.891	23155
837.029	23098
837.167	23067
837.305	22915
837.443	22999
837.58	22881
837.718	22843
837.856	22984
837.993	22793
838.131	22938
838.269	22763
838.406	22862
838.544	22622
838.681	22584
838.819	22550
838.956	22386
839.094	22238
839.231	22531
839.369	22478
839.506	22763
839.643	22691
839.781	22310
839.918	22299
840.055	22413
840.193	22405
840.33	22367
840.467	22325
840.604	22409
840.742	22611
840.879	22200
841.016	22226
841.153	22109
841.29	22455
841.427	22238
841.564	22398
841.701	22333
841.838	22287
841.975	22192
842.112	22360
842.249	22101
842.385	22048
842.522	22181
842.659	22188
842.796	22036
842.933	22105
843.069	22055
843.206	22029
843.343	22162
843.479	22051
843.616	22109
843.752	21953
843.889	21835
844.025	22055
844.162	21842
844.298	21998
844.435	21850
844.571	21804
844.708	21850
844.844	22029
844.98	21983
845.117	21991
845.253	21739
845.389	21671
845.525	21785
845.661	21671
845.798	21618
845.934	21523
846.07	21481
846.206	21648
846.342	21690
846.478	21622
846.614	21519
846.75	21317
846.886	21351
847.022	21443
847.158	21294
847.294	21431
847.429	21329
847.565	21195
847.701	21622
847.837	21116
847.972	21116
848.108	21233
848.244	21104
848.379	20979
848.515	21066
848.65	20975
848.786	20963
848.921	20887
849.057	20998
849.192	21036
849.328	20986
849.463	20880
849.598	20849
849.734	20830
849.869	20773
850.004	20769
850.14	20724
850.275	20735
850.41	20655
850.545	20674
850.68	20594
850.815	20838
850.95	20765
851.085	20796
851.22	20944
851.355	20598
851.49	20579
851.625	20667
851.76	20758
851.895	20629
852.03	20609
852.165	20701
852.299	20807
852.434	20830
852.569	20609
852.703	20644
852.838	20670
852.973	20815
853.107	20834
853.242	20682
853.376	20499
853.511	20434
853.645	20400
853.78	20571
853.914	20511
854.048	20526
854.183	20473
854.317	20476
854.451	20686
854.585	20518
854.72	20427
854.854	20613
854.988	20454
855.122	20621
855.256	20362
855.39	20454
855.524	20488
855.658	20621
855.792	20579
855.926	20587
856.06	20644
856.194	20617
856.327	20454
856.461	20419
856.595	20492
856.729	20492
856.862	20514
856.996	20598
857.13	20648
857.263	20537
857.397	20625
857.53	20484
857.664	20560
857.797	20606
857.931	20575
858.064	20526
858.197	20560
858.331	20522
858.464	20393
858.597	20362
858.731	20488
858.864	20461
858.997	20404
859.13	20492
859.263	20552
859.396	20560
859.529	20530
859.662	20461
859.795	20396
859.928	20571
860.061	20617
860.194	20743
860.327	20511
860.46	20575
860.592	20579
860.725	20659
860.858	20571
860.99	20575
861.123	20385
861.256	20362
861.388	20568
861.521	21093
861.653	20385
861.786	20267
861.918	20324
862.05	20317
862.183	20408
862.315	20317
862.447	20549
862.58	20438
862.712	20202
862.844	20164
862.976	20324
863.108	20263
863.24	20800
863.372	20256
863.504	20267
863.636	20267
863.768	20263
863.9	20256
864.032	20240
864.164	20161
864.296	20237
864.428	20290
864.559	20301
864.691	20355
864.823	20271
864.954	20286
865.086	20168
865.217	20168
865.349	19993
865.48	20240
865.612	20161
865.743	20206
865.875	20130
866.006	20054
866.137	20259
866.269	20119
866.4	20221
866.531	20111
866.662	20054
866.793	20005
866.924	20024
867.055	20027
867.186	20081
867.317	20005
867.448	20077
867.579	20092
867.71	19898
867.841	19986
867.972	20286
868.103	20069
868.233	20043
868.364	20126
868.495	20271
868.625	20336
868.756	20469
868.886	20229
869.017	20328
869.147	20374
869.278	20423
869.408	20381
869.539	20317
869.669	20492
869.799	20400
869.929	20552
870.06	20393
870.19	20655
870.32	20606
870.45	20655
870.58	20651
870.71	20842
870.84	20853
870.97	20644
871.1	20902
871.23	20826
871.36	20941
871.489	20792
871.619	20967
871.749	21055
871.879	20944
872.008	21192
872.138	20929
872.267	20963
872.397	20724
872.526	20800
872.656	20777
872.785	20754
872.915	20906
873.044	20925
873.173	20910
873.303	20914
873.432	20986
873.561	20937
873.69	20952
873.819	20952
873.948	21009
874.077	21074
874.206	20830
874.335	20944
874.464	21100
874.593	21260
874.722	21211
874.851	21199
874.979	21249
875.108	21294
875.237	21192
875.365	21135
875.494	21325
875.623	21188
875.751	21195
875.88	21142
876.008	21291
876.136	21447
876.265	21675
876.393	21713
876.521	21568
876.65	21705
876.778	21515
876.906	21595
877.034	21568
877.162	21603
877.29	21561
877.418	21534
877.546	21568
877.674	21625
877.802	21488
877.93	21530
878.058	21553
878.185	21408
878.313	21549
878.441	21504
878.568	21374
878.696	21382
878.824	21568
878.951	21644
879.079	21736
879.206	21812
879.333	21701
879.461	21557
879.588	21652
879.715	21671
879.842	21701
879.97	21500
880.097	21439
880.224	21397
880.351	21412
880.478	21447
880.605	21355
880.732	21462
880.859	21576
880.986	21378
881.112	21317
881.239	21264
881.366	21017
881.493	21001
881.619	21074
881.746	21047
881.872	20967
881.999	20944
882.125	20785
882.252	20982
882.378	20944
882.505	21074
882.631	20868
882.757	20731
882.883	20712
883.01	20625
883.136	20537
883.262	20632
883.388	20484
883.514	20853
883.64	20701
883.766	20674
883.892	20457
884.018	20358
884.143	20625
884.269	20739
884.395	20400
884.52	20301
884.646	20309
884.772	20275
884.897	20214
885.023	20332
885.148	20450
885.274	20499
885.399	20404
885.524	20347
885.65	20320
885.775	20454
885.9	20256
886.025	20305
886.15	20366
886.275	20282
886.4	20202
886.525	20282
886.65	20313
886.775	20199
886.9	20408
887.025	20606
887.149	20328
887.274	20145
887.399	20134
887.523	20016
887.648	20024
887.773	20050
887.897	20263
888.021	20062
888.146	20073
888.27	20244
888.395	20233
888.519	20050
888.643	20180
888.767	20145
888.891	20020
889.015	20020
889.139	19997
889.263	19986
889.387	20088
889.511	20142
889.635	20024
889.759	19860
889.883	19913
890.006	19898
890.13	20081
890.254	19811
890.377	19803
890.501	19689
890.624	19674
890.748	19852
890.871	19590
890.995	19460
891.118	19571
891.241	19483
891.364	19460
891.488	19624
891.611	19499
891.734	19559
891.857	19548
891.98	19419
892.103	19597
892.226	19537
892.349	19419
892.471	19445
892.594	19506
892.717	19510
892.839	19441
892.962	19434
893.085	19537
893.207	19403
893.33	19304
893.452	19460
893.575	19373
893.697	19487
893.819	19556
893.941	19582
894.064	19491
894.186	19343
894.308	19327
894.43	19346
894.552	19537
894.674	19441
894.796	19316
894.918	19472
895.04	19381
895.161	19453
895.283	19419
895.405	19384
895.526	19358
895.648	19285
895.769	19407
895.891	19537
896.012	19552
896.134	19521
896.255	19388
896.376	19384
896.498	19358
896.619	19362
896.74	19411
896.861	19552
896.982	19746
897.103	19837
897.224	19681
897.345	19693
897.466	19533
897.587	19632
897.708	19776
897.828	19643
897.949	19620
898.07	19468
898.19	19556
898.311	19704
898.431	19613
898.552	19742
898.672	19674
898.792	19651
898.913	19552
899.033	19525
899.153	19449
899.273	19388
899.393	19228
899.513	19392
899.633	19483
899.753	19483
899.873	19365
899.993	19407
900.113	19293
900.232	19476
900.352	19194
900.472	19209
900.591	19217
900.711	19118
900.83	19122
900.95	19228
901.069	19289
901.189	19137
901.308	18848
901.427	18875
901.546	18859
901.665	18715
901.784	18833
901.904	18684
902.023	18490
902.141	18521
902.26	18258
902.379	18429
902.498	18483
902.617	18201
902.735	18372
902.854	18327
902.973	18201
903.091	18034
903.21	18007
903.328	18019
903.446	17821
903.565	17882
903.683	17859
903.801	17733
903.919	17786
904.038	17714
904.156	17566
904.274	17653
904.392	17543
904.51	17512
904.627	17532
904.745	17592
904.863	17680
904.981	17406
905.098	17379
905.216	17231
905.334	17273
905.451	17292
905.569	17193
905.686	17315
905.803	17239
905.921	17071
906.038	17113
906.155	17086
906.272	16987
906.389	16919
906.506	16885
906.623	16797
906.74	16843
906.857	16653
906.974	16843
907.091	16896
907.208	16965
907.324	16793
907.441	16687
907.557	16656
907.674	16626
907.79	16428
907.907	16455
908.023	16565
908.139	16645
908.256	16447
908.372	16447
908.488	16352
908.604	16291
908.72	16257
908.836	16200
908.952	16249
909.068	16200
909.184	16310
909.3	16295
909.415	16265
909.531	16162
909.647	15953
909.762	16010
909.878	16029
909.993	15930
910.108	15816
910.224	15945
910.339	15960
910.454	15793
910.57	15766
910.685	15679
910.8	15945
910.915	15831
911.03	15785
911.145	15557
911.259	15488
911.374	15564
911.489	15511
911.604	15405
911.718	15283
911.833	15291
911.947	15230
912.062	15093
912.176	15264
912.291	15222
912.405	15298
912.519	15428
912.633	15431
912.748	15382
912.862	15264
912.976	15089
913.09	14944
913.204	15195
913.318	15169
913.431	15116
913.545	15195
913.659	15233
913.772	15093
913.886	14948
914	14948
914.113	15074
914.226	15039
914.34	15047
914.453	14785
914.566	15013
914.68	14838
914.793	14891
914.906	14651
915.019	14495
915.132	14549
915.245	14503
915.358	14655
915.47	14465
915.583	14541
915.696	14571
915.809	14762
915.921	14678
916.034	14476
916.146	14404
916.259	14393
916.371	14583
916.483	14602
916.595	14358
916.708	14248
916.82	14412
916.932	14286
917.044	14328
917.156	14339
917.268	14134
917.38	14225
917.491	14244
917.603	14282
917.715	14290
917.826	14298
917.938	14225
918.049	14107
918.161	14161
918.272	14225
918.384	14355
918.495	14183
918.606	14050
918.717	13955
918.828	14103
918.939	14012
919.05	13986
919.161	14024
919.272	13856
919.383	13818
919.494	14126
919.604	14237
919.715	14126
919.826	13936
919.936	13917
920.047	14077
920.157	13982
920.267	14172
920.378	14016
920.488	14031
920.598	14084
920.708	14298
920.818	14092
920.928	14157
921.038	14259
921.148	14180
921.258	14027
921.368	13875
921.477	13765
921.587	13742
921.697	13632
921.806	13791
921.916	13643
922.025	13441
922.134	13396
922.244	13270
922.353	13422
922.462	13278
922.571	13190
922.68	13050
922.789	13012
922.898	13057
923.007	13065
923.116	12993
923.224	13038
923.333	12924
923.442	12924
923.55	12916
923.659	12947
923.767	12973
923.876	12821
923.984	12894
924.092	12700
924.201	12859
924.309	12783
924.417	12760
924.525	12642
924.633	12764
924.741	13434
924.849	12464
924.956	12639
925.064	12403
925.172	12464
925.279	12426
925.387	12456
925.494	12532
925.602	12635
925.709	12585
925.816	12342
925.924	12422
926.031	12528
926.138	12452
926.245	12464
926.352	12350
926.459	12448
926.566	12490
926.673	12361
926.779	12209
926.886	12273
926.993	12121
927.099	12053
927.206	12076
927.312	12015
927.419	12079
927.525	11988
927.631	12121
927.737	11958
927.843	11878
927.95	11733
928.056	11927
928.162	11840
928.267	11996
928.373	12566
928.479	11931
928.585	11767
928.69	11863
928.796	11923
928.901	11824
929.007	11623
929.112	11790
929.218	11676
929.323	11710
929.428	11589
929.533	11832
929.638	11520
929.743	11512
929.848	11619
929.953	11608
930.058	11421
930.163	11273
930.267	11349
930.372	11532
930.477	11250
930.581	11459
930.685	11307
930.79	11159
930.894	11303
930.998	11178
931.103	11356
931.207	11071
931.311	10866
931.415	10782
931.519	10599
931.623	10641
