Data from test_V78500241_747.txt Node
Date: Fri Mar 25 15:15:03 CST 2022
User: usil
Spectrometer: V785-0024
Trigger mode: 0
Integration Time (sec): 4.000000E-1
Scans to average: 1
Nonlinearity correction enabled: false
Boxcar width: 0
Storing dark spectrum: false
XAxis mode: Wavelengths
Number of Pixels in Spectrum: 1024
>>>>>Begin Spectral Data<<<<<
801.071	27667
801.214	27519
801.356	27325
801.499	27279
801.641	27233
801.783	27226
801.926	27180
802.068	27074
802.211	27070
802.353	26872
802.496	26792
802.638	26651
802.78	26727
802.923	26727
803.065	26762
803.208	26857
803.35	26750
803.492	26910
803.635	26963
803.777	26872
803.919	27028
804.061	27188
804.204	26933
804.346	26883
804.488	26921
804.63	26967
804.773	26845
804.915	27043
805.057	27032
805.199	26960
805.341	26937
805.483	27028
805.626	27096
805.768	26940
805.91	27020
806.052	26979
806.194	26887
806.336	27302
806.478	27104
806.62	27116
806.762	27108
806.904	27393
807.046	27660
807.188	27477
807.33	27310
807.472	27576
807.614	27393
807.756	27355
807.898	27325
808.04	27233
808.182	27321
808.324	27287
808.465	27363
808.607	27641
808.749	27724
808.891	27759
809.033	27907
809.174	27888
809.316	27701
809.458	27865
809.6	27690
809.741	27884
809.883	27827
810.025	28021
810.166	27956
810.308	27975
810.45	27945
810.591	27934
810.733	27690
810.875	27709
811.016	27622
811.158	27667
811.299	27762
811.441	27922
811.582	27869
811.724	27648
811.865	27557
812.007	27599
812.148	27705
812.29	27728
812.431	27892
812.573	28051
812.714	28246
812.855	28276
812.997	28367
813.138	28634
813.279	28466
813.421	28112
813.562	28238
813.703	28048
813.845	27956
813.986	27698
814.127	27488
814.268	27363
814.41	27473
814.551	27424
814.692	27523
814.833	27408
814.974	27283
815.115	27454
815.256	27233
815.397	27249
815.539	27214
815.68	27264
815.821	27096
815.962	27211
816.103	27123
816.244	27096
816.385	27013
816.526	26887
816.666	26648
816.807	26621
816.948	26811
817.089	26800
817.23	26754
817.371	26659
817.512	26762
817.653	26663
817.793	26693
817.934	26640
818.075	26849
818.216	26785
818.356	26537
818.497	26514
818.638	26320
818.778	26370
818.919	26492
819.06	26495
819.2	26465
819.341	26670
819.481	26640
819.622	26769
819.762	27013
819.903	26960
820.043	26975
820.184	26811
820.324	26788
820.465	26906
820.605	26857
820.746	26743
820.886	26625
821.026	26807
821.167	26731
821.307	26777
821.447	26686
821.588	26552
821.728	26488
821.868	26343
822.008	26153
822.149	26195
822.289	26256
822.429	25917
822.569	25932
822.709	25780
822.849	25597
822.99	25544
823.13	25609
823.27	25502
823.41	25586
823.55	25251
823.69	25464
823.83	25605
823.97	25373
824.11	25244
824.25	25263
824.389	25403
824.529	25377
824.669	25445
824.809	25430
824.949	25388
825.089	25301
825.228	25331
825.368	25099
825.508	25114
825.648	25012
825.787	25221
825.927	25183
826.067	25099
826.206	25099
826.346	25240
826.485	25190
826.625	25247
826.765	25255
826.904	25255
827.044	24852
827.183	24947
827.323	24954
827.462	24989
827.601	24867
827.741	24894
827.88	24924
828.02	24829
828.159	24825
828.298	24890
828.437	24882
828.577	24715
828.716	24935
828.855	24760
828.994	24650
829.134	24616
829.273	24612
829.412	24547
829.551	24574
829.69	24452
829.829	24642
829.968	24612
830.107	24627
830.246	24601
830.385	24513
830.524	24395
830.663	24369
830.802	24281
830.941	24262
831.08	24311
831.219	24270
831.357	24201
831.496	24346
831.635	24228
831.774	24045
831.913	24068
832.051	23904
832.19	24083
832.329	23999
832.467	23897
832.606	23920
832.744	23771
832.883	23832
833.022	23923
833.16	23840
833.299	23980
833.437	23847
833.576	23912
833.714	23851
833.852	24018
833.991	24003
834.129	24076
834.267	24087
834.406	23965
834.544	24015
834.682	23855
834.821	23920
834.959	23999
835.097	23798
835.235	23901
835.373	23916
835.511	23923
835.65	23802
835.788	23802
835.926	23619
836.064	23520
836.202	23653
836.34	23828
836.478	23802
836.615	23676
836.753	23661
836.891	23764
837.029	23843
837.167	23676
837.305	23668
837.443	23608
837.58	23608
837.718	23608
837.856	23562
837.993	23535
838.131	23615
838.269	23433
838.406	23474
838.544	23459
838.681	23197
838.819	23277
838.956	23022
839.094	22995
839.231	23094
839.369	23246
839.506	23505
839.643	23341
839.781	23025
839.918	22984
840.055	23075
840.193	23018
840.33	22949
840.467	22984
840.604	22987
840.742	23269
840.879	22831
841.016	22946
841.153	22816
841.29	23121
841.427	23048
841.564	22999
841.701	23048
841.838	22934
841.975	22782
842.112	22790
842.249	22995
842.385	22721
842.522	22923
842.659	22713
842.796	22557
842.933	22767
843.069	22793
843.206	22687
843.343	22881
843.479	22828
843.616	22694
843.752	22618
843.889	22611
844.025	22679
844.162	22443
844.298	22687
844.435	22523
844.571	22565
844.708	22382
844.844	22630
844.98	22538
845.117	22607
845.253	22462
845.389	22318
845.525	22459
845.661	22386
845.798	22226
845.934	22196
846.07	22177
846.206	22139
846.342	22337
846.478	22204
846.614	22021
846.75	21964
846.886	22002
847.022	21994
847.158	22040
847.294	22002
847.429	22021
847.565	22093
847.701	22226
847.837	21774
847.972	21682
848.108	21831
848.244	21816
848.379	21587
848.515	21526
848.65	21564
848.786	21739
848.921	21557
849.057	21701
849.192	21675
849.328	21542
849.463	21583
849.598	21496
849.734	21523
849.869	21435
850.004	21348
850.14	21272
850.275	21439
850.41	21313
850.545	21408
850.68	21207
850.815	21268
850.95	21329
851.085	21507
851.22	21450
851.355	21378
851.49	21306
851.625	21317
851.76	21268
851.895	21313
852.03	21306
852.165	21298
852.299	21397
852.434	21580
852.569	21374
852.703	21431
852.838	21428
852.973	21477
853.107	21386
853.242	21302
853.376	21173
853.511	21058
853.645	21199
853.78	21268
853.914	21077
854.048	21093
854.183	21192
854.317	21230
854.451	21447
854.585	21222
854.72	21123
854.854	21325
854.988	21154
855.122	21260
855.256	20952
855.39	21093
855.524	21329
855.658	21252
855.792	21336
855.926	21192
856.06	21272
856.194	21268
856.327	21306
856.461	21245
856.595	21089
856.729	21264
856.862	21348
856.996	21211
857.13	21222
857.263	21344
857.397	21230
857.53	21275
857.664	21222
857.797	21279
857.931	21332
858.064	21298
858.197	21367
858.331	20986
858.464	21135
858.597	21089
858.731	21089
858.864	21116
858.997	21036
859.13	21116
859.263	21195
859.396	21233
859.529	21203
859.662	21260
859.795	21150
859.928	21135
860.061	21386
860.194	21363
860.327	21222
860.46	21237
860.592	21294
860.725	21241
860.858	21298
860.99	21192
861.123	21036
861.256	21047
861.388	21188
861.521	21892
861.653	21112
861.786	20929
861.918	21024
862.05	21047
862.183	21127
862.315	21100
862.447	21291
862.58	21123
862.712	20868
862.844	20796
862.976	20956
863.108	20914
863.24	21291
863.372	20845
863.504	20963
863.636	20956
863.768	20986
863.9	20929
864.032	20864
864.164	20811
864.296	20902
864.428	21028
864.559	20994
864.691	21104
864.823	21005
864.954	20868
865.086	20899
865.217	20804
865.349	20724
865.48	20644
865.612	20727
865.743	20937
865.875	20864
866.006	20720
866.137	20792
866.269	20796
866.4	20712
866.531	20712
866.662	20792
866.793	20670
866.924	20689
867.055	20693
867.186	20686
867.317	20701
867.448	20659
867.579	20727
867.71	20632
867.841	20621
867.972	20861
868.103	20712
868.233	20689
868.364	20811
868.495	20781
868.625	20975
868.756	21036
868.886	20857
869.017	21058
869.147	21055
869.278	20937
869.408	20937
869.539	21093
869.669	21077
869.799	20971
869.929	21062
870.06	21157
870.19	21268
870.32	21226
870.45	21245
870.58	21275
870.71	21511
870.84	21492
870.97	21370
871.1	21310
871.23	21515
871.36	21511
871.489	21443
871.619	21519
871.749	21557
871.879	21530
872.008	21682
872.138	21633
872.267	21572
872.397	21344
872.526	21408
872.656	21351
872.785	21492
872.915	21564
873.044	21656
873.173	21625
873.303	21679
873.432	21610
873.561	21660
873.69	21572
873.819	21553
873.948	21580
874.077	21564
874.206	21580
874.335	21583
874.464	21701
874.593	21766
874.722	21759
874.851	21888
874.979	21789
875.108	21884
875.237	21766
875.365	21747
875.494	21762
875.623	21804
875.751	21816
875.88	21755
876.008	22025
876.136	21945
876.265	22154
876.393	22440
876.521	22318
876.65	22249
876.778	22192
876.906	22093
877.034	22147
877.162	22268
877.29	22105
877.418	22082
877.546	22223
877.674	22078
877.802	22192
877.93	22109
878.058	22223
878.185	21949
878.313	22055
878.441	22200
878.568	22006
878.696	22070
878.824	22116
878.951	22135
879.079	22318
879.206	22344
879.333	22276
879.461	22249
879.588	22204
879.715	22348
879.842	22314
879.97	22200
880.097	21941
880.224	21911
880.351	22086
880.478	22044
880.605	21930
880.732	22010
880.859	22242
880.986	22044
881.112	21994
881.239	21835
881.366	21850
881.493	21530
881.619	21507
881.746	21648
881.872	21439
881.999	21523
882.125	21485
882.252	21614
882.378	21485
882.505	21682
882.631	21420
882.757	21344
882.883	21344
883.01	21279
883.136	21116
883.262	21119
883.388	21112
883.514	21332
883.64	21207
883.766	21176
883.892	21013
884.018	21055
884.143	21207
884.269	21287
884.395	21058
884.52	20902
884.646	20902
884.772	20811
884.897	20804
885.023	20952
885.148	20899
885.274	21055
885.399	21070
885.524	20986
885.65	20929
885.775	20941
885.9	20861
886.025	20861
886.15	20902
886.275	20765
886.4	20830
886.525	20921
886.65	20868
886.775	20883
886.9	20933
887.025	20998
887.149	20773
887.274	20796
887.399	20655
887.523	20746
887.648	20575
887.773	20587
887.897	20807
888.021	20708
888.146	20594
888.27	20678
888.395	20800
888.519	20564
888.643	20765
888.767	20648
888.891	20579
889.015	20484
889.139	20606
889.263	20450
889.387	20587
889.511	20636
889.635	20476
889.759	20484
889.883	20526
890.006	20564
890.13	20503
890.254	20259
890.377	20408
890.501	20301
890.624	20183
890.748	20358
890.871	20065
890.995	20024
891.118	20027
891.241	20073
891.364	20088
891.488	20138
891.611	20001
891.734	20092
891.857	20138
891.98	20062
892.103	20077
892.226	20073
892.349	19978
892.471	19879
892.594	19947
892.717	19871
892.839	19986
892.962	19928
893.085	20100
893.207	20058
893.33	19883
893.452	19822
893.575	20005
893.697	19849
893.819	19928
893.941	20183
894.064	20069
894.186	19814
894.308	19837
894.43	20130
894.552	20077
894.674	19974
894.796	19890
894.918	19913
895.04	19913
895.161	20027
895.283	19906
895.405	19887
895.526	20031
895.648	19978
895.769	19970
895.891	19940
896.012	20005
896.134	19963
896.255	20012
896.376	19841
896.498	20008
896.619	20062
896.74	19841
896.861	20100
896.982	20286
897.103	20370
897.224	20256
897.345	20180
897.466	20107
897.587	20301
897.708	20252
897.828	20244
897.949	20134
898.07	20073
898.19	20111
898.311	20332
898.431	20008
898.552	20100
898.672	20332
898.792	20248
898.913	20191
899.033	20046
899.153	19993
899.273	19845
899.393	20012
899.513	19936
899.633	19921
899.753	19894
899.873	19868
899.993	19944
900.113	19852
900.232	19978
900.352	19826
900.472	19731
900.591	19635
900.711	19795
900.83	19563
900.95	19708
901.069	19803
901.189	19594
901.308	19430
901.427	19308
901.546	19384
901.665	19415
901.784	19308
901.904	19228
902.023	19015
902.141	18951
902.26	18867
902.379	18909
902.498	18817
902.617	18787
902.735	18852
902.854	18757
902.973	18707
903.091	18566
903.21	18494
903.328	18433
903.446	18361
903.565	18197
903.683	18418
903.801	18186
903.919	18201
904.038	18178
904.156	18076
904.274	18125
904.392	18083
904.51	17958
904.627	17980
904.745	18136
904.863	18106
904.981	17847
905.098	17718
905.216	17657
905.334	17775
905.451	17703
905.569	17745
905.686	17775
905.803	17741
905.921	17539
906.038	17524
906.155	17539
906.272	17585
906.389	17459
906.506	17322
906.623	17315
906.74	17265
906.857	17204
906.974	17033
907.091	17303
907.208	17425
907.324	17303
907.441	17086
907.557	17010
907.674	16938
907.79	16824
907.907	16976
908.023	16984
908.139	16915
908.256	16919
908.372	16995
908.488	16896
908.604	16717
908.72	16687
908.836	16691
908.952	16702
909.068	16725
909.184	16752
909.3	16664
909.415	16729
909.531	16725
909.647	16478
909.762	16394
909.878	16230
909.993	16447
910.108	16398
910.224	16341
910.339	16459
910.454	16329
910.57	16261
910.685	16150
910.8	16489
910.915	16367
911.03	16215
911.145	16025
911.259	15987
911.374	16055
911.489	15983
911.604	15880
911.718	15800
911.833	15827
911.947	15667
912.062	15584
912.176	15690
912.291	15720
912.405	15709
912.519	15884
912.633	15930
912.748	15789
912.862	15709
912.976	15553
913.09	15393
913.204	15428
913.318	15561
913.431	15667
913.545	15690
913.659	15603
913.772	15496
913.886	15416
914	15412
914.113	15393
914.226	15462
914.34	15439
914.453	15275
914.566	15370
914.68	15332
914.793	15214
914.906	15028
915.019	15013
915.132	14948
915.245	14990
915.358	15001
915.47	15138
915.583	15089
915.696	15077
915.809	15051
915.921	15013
916.034	14990
916.146	14811
916.259	14800
916.371	14967
916.483	14986
916.595	14777
916.708	14815
916.82	14834
916.932	14800
917.044	14785
917.156	14746
917.268	14689
917.38	14648
917.491	14594
917.603	14720
917.715	14674
917.826	14674
917.938	14514
918.049	14434
918.161	14625
918.272	14712
918.384	14686
918.495	14575
918.606	14423
918.717	14423
918.828	14469
918.939	14358
919.05	14298
919.161	14328
919.272	14225
919.383	14332
919.494	14427
919.604	14640
919.715	14347
919.826	14233
919.936	14332
920.047	14389
920.157	14533
920.267	14670
920.378	14473
920.488	14347
920.598	14636
920.708	14587
920.818	14549
920.928	14537
921.038	14686
921.148	14648
921.258	14290
921.368	14301
921.477	14111
921.587	14168
921.697	14039
921.806	14206
921.916	13989
922.025	13887
922.134	13791
922.244	13731
922.353	13868
922.462	13715
922.571	13639
922.68	13449
922.789	13529
922.898	13453
923.007	13327
923.116	13487
923.224	13407
923.333	13457
923.442	13266
923.55	13236
923.659	13301
923.767	13198
923.876	13259
923.984	13304
924.092	13160
924.201	13190
924.309	13164
924.417	13110
924.525	13061
924.633	13038
924.741	13799
924.849	12894
924.956	13129
925.064	12901
925.172	12848
925.279	12776
925.387	12924
925.494	12798
925.602	12973
925.709	12920
925.816	12821
925.924	12814
926.031	12916
926.138	12798
926.245	12817
926.352	12734
926.459	12783
926.566	12817
926.673	12745
926.779	12665
926.886	12616
926.993	12513
927.099	12414
927.206	12346
927.312	12311
927.419	12498
927.525	12361
927.631	12384
927.737	12353
927.843	12251
927.95	12235
928.056	12266
928.162	12372
928.267	12342
928.373	12859
928.479	12262
928.585	12125
928.69	12178
928.796	12281
928.901	12175
929.007	11984
929.112	12064
929.218	12087
929.323	12007
929.428	11969
929.533	12057
929.638	11897
929.743	11950
929.848	12038
929.953	11958
930.058	11809
930.163	11699
930.267	11718
930.372	11870
930.477	11638
930.581	11840
930.685	11748
930.79	11646
930.894	11547
930.998	11444
931.103	11570
931.207	11246
931.311	11242
931.415	11166
931.519	10896
931.623	10847
