Data from test_V78500241_2724.txt Node
Date: Fri Mar 25 15:28:49 CST 2022
User: usil
Spectrometer: V785-0024
Trigger mode: 0
Integration Time (sec): 4.000000E-1
Scans to average: 1
Nonlinearity correction enabled: false
Boxcar width: 0
Storing dark spectrum: false
XAxis mode: Wavelengths
Number of Pixels in Spectrum: 1024
>>>>>Begin Spectral Data<<<<<
801.071	27077
801.214	27116
801.356	26872
801.499	26891
801.641	26739
801.783	26659
801.926	26644
802.068	26564
802.211	26632
802.353	26613
802.496	26339
802.638	26290
802.78	26122
802.923	26069
803.065	26214
803.208	26161
803.35	26381
803.492	26404
803.635	26533
803.777	26362
803.919	26511
804.061	26701
804.204	26427
804.346	26355
804.488	26244
804.63	26434
804.773	26370
804.915	26492
805.057	26571
805.199	26400
805.341	26480
805.483	26651
805.626	26526
805.768	26522
805.91	26556
806.052	26712
806.194	26537
806.336	26743
806.478	26663
806.62	26495
806.762	26556
806.904	26807
807.046	27077
807.188	27085
807.33	27017
807.472	27028
807.614	26834
807.756	26880
807.898	26823
808.04	26849
808.182	26781
808.324	26765
808.465	26777
808.607	27085
808.749	27119
808.891	27272
809.033	27313
809.174	27230
809.316	27123
809.458	27150
809.6	27184
809.741	27302
809.883	27287
810.025	27504
810.166	27336
810.308	27447
810.45	27298
810.591	27374
810.733	27085
810.875	27089
811.016	26979
811.158	26986
811.299	27245
811.441	27252
811.582	27321
811.724	27195
811.865	27066
812.007	27028
812.148	27119
812.29	27085
812.431	27279
812.573	27435
812.714	27545
812.855	27507
812.997	27713
813.138	27804
813.279	27793
813.421	27667
813.562	27557
813.703	27397
813.845	27154
813.986	27055
814.127	26872
814.268	26765
814.41	26845
814.551	26724
814.692	26914
814.833	26750
814.974	26716
815.115	26891
815.256	26701
815.397	26758
815.539	26651
815.68	26514
815.821	26503
815.962	26583
816.103	26644
816.244	26419
816.385	26366
816.526	26412
816.666	26233
816.807	26187
816.948	26073
817.089	26126
817.23	26088
817.371	26069
817.512	25963
817.653	26115
817.793	26058
817.934	26157
818.075	26065
818.216	26054
818.356	25887
818.497	25940
818.638	25799
818.778	25879
818.919	25765
819.06	25970
819.2	25928
819.341	26081
819.481	26092
819.622	26225
819.762	26275
819.903	26248
820.043	26115
820.184	26122
820.324	26324
820.465	26244
820.605	26263
820.746	26172
820.886	26119
821.026	26065
821.167	26168
821.307	26294
821.447	26073
821.588	26077
821.728	25803
821.868	25761
822.008	25559
822.149	25479
822.289	25476
822.429	25266
822.569	25160
822.709	25331
822.849	25103
822.99	25118
823.13	25012
823.27	25084
823.41	24985
823.55	24787
823.69	24863
823.83	24863
823.97	24837
824.11	24700
824.25	24707
824.389	24601
824.529	24719
824.669	24745
824.809	24920
824.949	24753
825.089	24745
825.228	24768
825.368	24601
825.508	24566
825.648	24658
825.787	24505
825.927	24475
826.067	24547
826.206	24589
826.346	24601
826.485	24658
826.625	24677
826.765	24631
826.904	24601
827.044	24315
827.183	24296
827.323	24258
827.462	24296
827.601	24251
827.741	24281
827.88	24346
828.02	24087
828.159	24190
828.298	24251
828.437	24258
828.577	24159
828.716	24311
828.855	24079
828.994	23977
829.134	24022
829.273	23920
829.412	23901
829.551	23954
829.69	23920
829.829	23946
829.968	24117
830.107	23996
830.246	23863
830.385	23980
830.524	23843
830.663	23878
830.802	23783
830.941	23551
831.08	23566
831.219	23748
831.357	23619
831.496	23802
831.635	23627
831.774	23558
831.913	23524
832.051	23402
832.19	23345
832.329	23516
832.467	23212
832.606	23147
832.744	23071
832.883	23307
833.022	23299
833.16	23299
833.299	23261
833.437	23250
833.576	23280
833.714	23410
833.852	23326
833.991	23341
834.129	23337
834.267	23490
834.406	23433
834.544	23311
834.682	23318
834.821	23261
834.959	23524
835.097	23398
835.235	23334
835.373	23402
835.511	23269
835.65	23170
835.788	23128
835.926	23010
836.064	22911
836.202	23079
836.34	23265
836.478	23181
836.615	23140
836.753	23143
836.891	23178
837.029	23132
837.167	23109
837.305	22953
837.443	23079
837.58	22957
837.718	23018
837.856	23010
837.993	22984
838.131	22915
838.269	22877
838.406	22980
838.544	22873
838.681	22668
838.819	22634
838.956	22546
839.094	22512
839.231	22512
839.369	22546
839.506	22752
839.643	22752
839.781	22428
839.918	22478
840.055	22447
840.193	22451
840.33	22379
840.467	22322
840.604	22478
840.742	22702
840.879	22291
841.016	22363
841.153	22291
841.29	22459
841.427	22375
841.564	22531
841.701	22451
841.838	22382
841.975	22207
842.112	22394
842.249	22287
842.385	22291
842.522	22440
842.659	22204
842.796	22173
842.933	22299
843.069	22230
843.206	22188
843.343	22230
843.479	22112
843.616	22303
843.752	21873
843.889	21930
844.025	22131
844.162	21892
844.298	22036
844.435	22002
844.571	21941
844.708	22059
844.844	22124
844.98	22177
845.117	21975
845.253	21857
845.389	21766
845.525	21922
845.661	21713
845.798	21663
845.934	21694
846.07	21679
846.206	21800
846.342	21873
846.478	21595
846.614	21488
846.75	21435
846.886	21431
847.022	21450
847.158	21420
847.294	21408
847.429	21431
847.565	21458
847.701	21538
847.837	21108
847.972	21131
848.108	21249
848.244	21226
848.379	21146
848.515	20933
848.65	21024
848.786	21036
848.921	21081
849.057	21142
849.192	21249
849.328	21066
849.463	21009
849.598	20929
849.734	20941
849.869	20925
850.004	20727
850.14	20891
850.275	20765
850.41	20674
850.545	20716
850.68	20724
850.815	20727
850.95	20845
851.085	21005
851.22	20857
851.355	20807
851.49	20857
851.625	20823
851.76	20781
851.895	20811
852.03	20735
852.165	20849
852.299	20746
852.434	20861
852.569	20758
852.703	20796
852.838	20765
852.973	20963
853.107	20986
853.242	20743
853.376	20594
853.511	20579
853.645	20549
853.78	20739
853.914	20537
854.048	20621
854.183	20575
854.317	20667
854.451	20727
854.585	20655
854.72	20625
854.854	20689
854.988	20590
855.122	20606
855.256	20476
855.39	20602
855.524	20720
855.658	20693
855.792	20533
855.926	20629
856.06	20644
856.194	20632
856.327	20678
856.461	20552
856.595	20511
856.729	20564
856.862	20686
856.996	20644
857.13	20587
857.263	20689
857.397	20663
857.53	20545
857.664	20632
857.797	20697
857.931	20659
858.064	20609
858.197	20674
858.331	20549
858.464	20655
858.597	20575
858.731	20473
858.864	20564
858.997	20552
859.13	20648
859.263	20499
859.396	20590
859.529	20651
859.662	20560
859.795	20606
859.928	20636
860.061	20708
860.194	20868
860.327	20705
860.46	20552
860.592	20758
860.725	20655
860.858	20648
860.99	20564
861.123	20545
861.256	20476
861.388	20632
861.521	21066
861.653	20495
861.786	20457
861.918	20446
862.05	20549
862.183	20507
862.315	20575
862.447	20621
862.58	20457
862.712	20313
862.844	20355
862.976	20328
863.108	20400
863.24	20743
863.372	20199
863.504	20229
863.636	20320
863.768	20484
863.9	20256
864.032	20347
864.164	20267
864.296	20195
864.428	20431
864.559	20457
864.691	20412
864.823	20358
864.954	20229
865.086	20339
865.217	20259
865.349	20134
865.48	20191
865.612	20225
865.743	20370
865.875	20233
866.006	20225
866.137	20233
866.269	20183
866.4	20214
866.531	20088
866.662	20180
866.793	20157
866.924	20145
867.055	20077
867.186	20187
867.317	20130
867.448	20050
867.579	20119
867.71	20115
867.841	20058
867.972	20119
868.103	20157
868.233	20168
868.364	20107
868.495	20358
868.625	20389
868.756	20488
868.886	20233
869.017	20259
869.147	20533
869.278	20571
869.408	20423
869.539	20393
869.669	20499
869.799	20606
869.929	20587
870.06	20587
870.19	20727
870.32	20686
870.45	20823
870.58	20807
870.71	20994
870.84	20933
870.97	20746
871.1	20701
871.23	20853
871.36	20982
871.489	20998
871.619	21043
871.749	21085
871.879	21013
872.008	20948
872.138	21104
872.267	20960
872.397	20891
872.526	20731
872.656	20845
872.785	20765
872.915	21112
873.044	21032
873.173	21001
873.303	21085
873.432	21036
873.561	21157
873.69	21161
873.819	21138
873.948	21169
874.077	21020
874.206	20982
874.335	21081
874.464	21096
874.593	21214
874.722	21203
874.851	21272
874.979	21272
875.108	21336
875.237	21336
875.365	21226
875.494	21157
875.623	21370
875.751	21154
875.88	21294
876.008	21317
876.136	21526
876.265	21679
876.393	21846
876.521	21747
876.65	21781
876.778	21622
876.906	21652
877.034	21523
877.162	21629
877.29	21492
877.418	21576
877.546	21663
877.674	21583
877.802	21595
877.93	21641
878.058	21557
878.185	21469
878.313	21599
878.441	21698
878.568	21481
878.696	21526
878.824	21633
878.951	21637
879.079	21633
879.206	21816
879.333	21766
879.461	21625
879.588	21728
879.715	21736
879.842	21865
879.97	21690
880.097	21568
880.224	21485
880.351	21538
880.478	21397
880.605	21481
880.732	21412
880.859	21717
880.986	21473
881.112	21431
881.239	21351
881.366	21085
881.493	21142
881.619	20971
881.746	20986
881.872	21104
881.999	21058
882.125	20857
882.252	21104
882.378	20941
882.505	21154
882.631	21039
882.757	20621
882.883	20769
883.01	20746
883.136	20705
883.262	20621
883.388	20495
883.514	20804
883.64	20689
883.766	20583
883.892	20473
884.018	20602
884.143	20731
884.269	20811
884.395	20385
884.52	20358
884.646	20336
884.772	20309
884.897	20301
885.023	20259
885.148	20530
885.274	20503
885.399	20530
885.524	20450
885.65	20446
885.775	20415
885.9	20275
886.025	20469
886.15	20507
886.275	20389
886.4	20355
886.525	20377
886.65	20218
886.775	20259
886.9	20446
887.025	20522
887.149	20374
887.274	20233
887.399	20180
887.523	20195
887.648	20016
887.773	20142
887.897	20221
888.021	20248
888.146	20046
888.27	20309
888.395	20278
888.519	20256
888.643	20138
888.767	20183
888.891	20130
889.015	20005
889.139	20115
889.263	19909
889.387	20069
889.511	20126
889.635	20130
889.759	19982
889.883	20062
890.006	20016
890.13	19974
890.254	19902
890.377	19947
890.501	19799
890.624	19651
890.748	19788
890.871	19582
890.995	19491
891.118	19483
891.241	19552
891.364	19453
891.488	19662
891.611	19571
891.734	19582
891.857	19533
891.98	19578
892.103	19578
892.226	19491
892.349	19434
892.471	19308
892.594	19422
892.717	19472
892.839	19381
892.962	19480
893.085	19556
893.207	19441
893.33	19346
893.452	19236
893.575	19438
893.697	19373
893.819	19765
893.941	19674
894.064	19613
894.186	19422
894.308	19392
894.43	19537
894.552	19590
894.674	19506
894.796	19324
894.918	19453
895.04	19506
895.161	19510
895.283	19563
895.405	19396
895.526	19453
895.648	19506
895.769	19502
895.891	19445
896.012	19575
896.134	19510
896.255	19270
896.376	19365
896.498	19575
896.619	19537
896.74	19422
896.861	19483
896.982	19822
897.103	19868
897.224	19780
897.345	19666
897.466	19681
897.587	19662
897.708	19887
897.828	19632
897.949	19605
898.07	19670
898.19	19712
898.311	19890
898.431	19674
898.552	19693
898.672	19807
898.792	19822
898.913	19807
899.033	19590
899.153	19548
899.273	19293
899.393	19472
899.513	19480
899.633	19449
899.753	19571
899.873	19502
899.993	19460
900.113	19445
900.232	19495
900.352	19350
900.472	19160
900.591	19194
900.711	19175
900.83	19156
900.95	19274
901.069	19289
901.189	19194
901.308	18856
901.427	18844
901.546	18833
901.665	18909
901.784	18939
901.904	18730
902.023	18650
902.141	18384
902.26	18361
902.379	18391
902.498	18353
902.617	18350
902.735	18384
902.854	18262
902.973	18319
903.091	18133
903.21	18133
903.328	17973
903.446	17927
903.565	17942
903.683	17821
903.801	17741
903.919	17775
904.038	17684
904.156	17760
904.274	17786
904.392	17600
904.51	17532
904.627	17558
904.745	17684
904.863	17691
904.981	17391
905.098	17296
905.216	17292
905.334	17307
905.451	17315
905.569	17181
905.686	17261
905.803	17334
905.921	17090
906.038	17220
906.155	17083
906.272	16885
906.389	17025
906.506	16892
906.623	16843
906.74	16835
906.857	16706
906.974	16687
907.091	16972
907.208	16869
907.324	16877
907.441	16843
907.557	16637
907.674	16660
907.79	16455
907.907	16516
908.023	16527
908.139	16660
908.256	16538
908.372	16577
908.488	16375
908.604	16303
908.72	16215
908.836	16291
908.952	16219
909.068	16318
909.184	16352
909.3	16318
909.415	16299
909.531	16276
909.647	16063
909.762	16169
909.878	15911
909.993	16063
910.108	15945
910.224	16017
910.339	15930
910.454	15808
910.57	15720
910.685	15751
910.8	15987
910.915	16021
911.03	15857
911.145	15694
911.259	15584
911.374	15660
911.489	15530
911.604	15447
911.718	15397
911.833	15416
911.947	15310
912.062	15272
912.176	15332
912.291	15389
912.405	15447
912.519	15603
912.633	15591
912.748	15378
912.862	15351
912.976	15123
913.09	15024
913.204	15161
913.318	15146
913.431	15310
913.545	15135
913.659	15176
913.772	15135
913.886	15211
914	14994
914.113	15138
914.226	15184
914.34	15146
914.453	14899
914.566	14933
914.68	14864
914.793	14762
914.906	14625
915.019	14625
915.132	14560
915.245	14549
915.358	14640
915.47	14533
915.583	14545
915.696	14617
915.809	14739
915.921	14686
916.034	14533
916.146	14602
916.259	14358
916.371	14670
916.483	14461
916.595	14336
916.708	14560
916.82	14461
916.932	14385
917.044	14415
917.156	14320
917.268	14259
917.38	14298
917.491	14275
917.603	14347
917.715	14431
917.826	14336
917.938	14157
918.049	14084
918.161	14199
918.272	14461
918.384	14328
918.495	14320
918.606	14046
918.717	14020
918.828	14020
918.939	14119
919.05	13967
919.161	14065
919.272	13845
919.383	13837
919.494	14096
919.604	14237
919.715	13974
919.826	13951
919.936	13947
920.047	14142
920.157	13993
920.267	14202
920.378	13997
920.488	14005
920.598	14092
920.708	14328
920.818	14180
920.928	14172
921.038	14370
921.148	14168
921.258	14035
921.368	13830
921.477	13769
921.587	13769
921.697	13670
921.806	13837
921.916	13662
922.025	13438
922.134	13438
922.244	13407
922.353	13441
922.462	13293
922.571	13206
922.68	13103
922.789	13099
922.898	13057
923.007	13129
923.116	13076
923.224	13015
923.333	13065
923.442	12909
923.55	12894
923.659	12909
923.767	12985
923.876	12753
923.984	12985
924.092	12802
924.201	12848
924.309	12867
924.417	12745
924.525	12779
924.633	12745
924.741	13658
924.849	12620
924.956	12616
925.064	12547
925.172	12441
925.279	12422
925.387	12604
925.494	12460
925.602	12662
925.709	12563
925.816	12433
925.924	12475
926.031	12601
926.138	12456
926.245	12452
926.352	12384
926.459	12418
926.566	12559
926.673	12376
926.779	12224
926.886	12254
926.993	12072
927.099	12106
927.206	12026
927.312	12068
927.419	12060
927.525	12121
927.631	12098
927.737	11969
927.843	11965
927.95	11805
928.056	11942
928.162	11992
928.267	11920
928.373	12448
928.479	12022
928.585	11722
928.69	11912
928.796	11988
928.901	11722
929.007	11646
929.112	11771
929.218	11802
929.323	11646
929.428	11665
929.533	11790
929.638	11558
929.743	11596
929.848	11676
929.953	11596
930.058	11554
930.163	11341
930.267	11356
930.372	11589
930.477	11372
930.581	11566
930.685	11322
930.79	11307
930.894	11242
930.998	11208
931.103	11334
931.207	11056
931.311	10923
931.415	10869
931.519	10698
931.623	10542
