Data from test_V78500241_2758.txt Node
Date: Fri Mar 25 15:29:03 CST 2022
User: usil
Spectrometer: V785-0024
Trigger mode: 0
Integration Time (sec): 4.000000E-1
Scans to average: 1
Nonlinearity correction enabled: false
Boxcar width: 0
Storing dark spectrum: false
XAxis mode: Wavelengths
Number of Pixels in Spectrum: 1024
>>>>>Begin Spectral Data<<<<<
801.071	26944
801.214	26933
801.356	26887
801.499	26587
801.641	26488
801.783	26396
801.926	26629
802.068	26423
802.211	26404
802.353	26393
802.496	26320
802.638	26138
802.78	26164
802.923	26046
803.065	25951
803.208	26035
803.35	26077
803.492	26191
803.635	26240
803.777	26157
803.919	26259
804.061	26598
804.204	26317
804.346	26320
804.488	26092
804.63	26218
804.773	26130
804.915	26267
805.057	26332
805.199	26244
805.341	26366
805.483	26450
805.626	26503
805.768	26309
805.91	26442
806.052	26374
806.194	26248
806.336	26522
806.478	26263
806.62	26317
806.762	26590
806.904	26560
807.046	26853
807.188	26830
807.33	26838
807.472	26758
807.614	26670
807.756	26769
807.898	26552
808.04	26731
808.182	26655
808.324	26629
808.465	26564
808.607	26906
808.749	26994
808.891	27001
809.033	27173
809.174	27112
809.316	26967
809.458	26948
809.6	26845
809.741	27039
809.883	27085
810.025	27233
810.166	27264
810.308	27207
810.45	27173
810.591	27131
810.733	27017
810.875	27077
811.016	26925
811.158	26883
811.299	27077
811.441	27157
811.582	26990
811.724	26994
811.865	26853
812.007	26925
812.148	26925
812.29	27062
812.431	27032
812.573	27367
812.714	27431
812.855	27427
812.997	27557
813.138	27633
813.279	27675
813.421	27583
813.562	27397
813.703	27332
813.845	27233
813.986	26895
814.127	26826
814.268	26682
814.41	26617
814.551	26583
814.692	26598
814.833	26511
814.974	26568
815.115	26621
815.256	26518
815.397	26507
815.539	26469
815.68	26396
815.821	26358
815.962	26495
816.103	26347
816.244	26309
816.385	26168
816.526	26149
816.666	25936
816.807	25795
816.948	25940
817.089	26024
817.23	25837
817.371	25830
817.512	25746
817.653	25860
817.793	25681
817.934	25780
818.075	25936
818.216	25879
818.356	25868
818.497	25708
818.638	25567
818.778	25567
818.919	25590
819.06	25738
819.2	25750
819.341	25830
819.481	25845
819.622	25909
819.762	26161
819.903	26024
820.043	26077
820.184	25898
820.324	25947
820.465	26005
820.605	25947
820.746	25894
820.886	25864
821.026	25955
821.167	25974
821.307	25993
821.447	25784
821.588	25693
821.728	25601
821.868	25544
822.008	25320
822.149	25346
822.289	25259
822.429	25069
822.569	25012
822.709	25129
822.849	24947
822.99	24776
823.13	24658
823.27	24825
823.41	24616
823.55	24597
823.69	24635
823.83	24547
823.97	24525
824.11	24422
824.25	24395
824.389	24346
824.529	24559
824.669	24547
824.809	24513
824.949	24597
825.089	24464
825.228	24441
825.368	24292
825.508	24327
825.648	24369
825.787	24357
825.927	24380
826.067	24308
826.206	24262
826.346	24414
826.485	24410
826.625	24285
826.765	24460
826.904	24289
827.044	24121
827.183	24110
827.323	24106
827.462	24041
827.601	24026
827.741	23999
827.88	24053
828.02	23935
828.159	23958
828.298	24045
828.437	24102
828.577	23996
828.716	24136
828.855	23817
828.994	23634
829.134	23733
829.273	23627
829.412	23649
829.551	23703
829.69	23726
829.829	23809
829.968	23813
830.107	23794
830.246	23680
830.385	23600
830.524	23516
830.663	23570
830.802	23467
830.941	23277
831.08	23360
831.219	23349
831.357	23452
831.496	23509
831.635	23265
831.774	23162
831.913	23334
832.051	22987
832.19	23037
832.329	23136
832.467	23037
832.606	22835
832.744	23041
832.883	23060
833.022	22930
833.16	23033
833.299	23010
833.437	22919
833.576	23025
833.714	23033
833.852	23121
833.991	23143
834.129	23166
834.267	23185
834.406	23159
834.544	23079
834.682	23109
834.821	23166
834.959	23189
835.097	22949
835.235	23166
835.373	23143
835.511	23105
835.65	22965
835.788	22881
835.926	22809
836.064	22664
836.202	22713
836.34	22900
836.478	23022
836.615	22999
836.753	22961
836.891	22904
837.029	22915
837.167	22801
837.305	22915
837.443	22767
837.58	22835
837.718	22900
837.856	22862
837.993	22733
838.131	22668
838.269	22660
838.406	22717
838.544	22577
838.681	22421
838.819	22508
838.956	22367
839.094	22219
839.231	22325
839.369	22527
839.506	22584
839.643	22557
839.781	22394
839.918	22287
840.055	22230
840.193	22211
840.33	22124
840.467	22196
840.604	22234
840.742	22630
840.879	22017
841.016	22109
841.153	22112
841.29	22337
841.427	22196
841.564	22150
841.701	22215
841.838	22032
841.975	22082
842.112	22192
842.249	22070
842.385	21918
842.522	22261
842.659	22044
842.796	21991
842.933	21865
843.069	21762
843.206	21899
843.343	21937
843.479	21941
843.616	21926
843.752	21686
843.889	21679
844.025	21915
844.162	21667
844.298	21705
844.435	21751
844.571	21713
844.708	21717
844.844	21819
844.98	21770
845.117	21819
845.253	21652
845.389	21450
845.525	21667
845.661	21538
845.798	21603
845.934	21450
846.07	21393
846.206	21393
846.342	21580
846.478	21401
846.614	21264
846.75	21188
846.886	21119
847.022	21283
847.158	21199
847.294	21302
847.429	21287
847.565	21184
847.701	21355
847.837	20895
847.972	20838
848.108	20937
848.244	20876
848.379	20807
848.515	20842
848.65	20743
848.786	20769
848.921	20743
849.057	20785
849.192	20845
849.328	21020
849.463	20819
849.598	20697
849.734	20716
849.869	20636
850.004	20568
850.14	20621
850.275	20431
850.41	20514
850.545	20484
850.68	20545
850.815	20533
850.95	20552
851.085	20731
851.22	20651
851.355	20689
851.49	20655
851.625	20552
851.76	20465
851.895	20438
852.03	20488
852.165	20495
852.299	20499
852.434	20686
852.569	20583
852.703	20533
852.838	20636
852.973	20621
853.107	20697
853.242	20507
853.376	20282
853.511	20324
853.645	20195
853.78	20564
853.914	20404
854.048	20374
854.183	20358
854.317	20454
854.451	20575
854.585	20309
854.72	20377
854.854	20427
854.988	20286
855.122	20370
855.256	20172
855.39	20309
855.524	20404
855.658	20377
855.792	20400
855.926	20370
856.06	20377
856.194	20415
856.327	20370
856.461	20332
856.595	20317
856.729	20351
856.862	20385
856.996	20400
857.13	20431
857.263	20537
857.397	20492
857.53	20396
857.664	20301
857.797	20518
857.931	20480
858.064	20412
858.197	20457
858.331	20355
858.464	20396
858.597	20362
858.731	20374
858.864	20533
858.997	20320
859.13	20313
859.263	20423
859.396	20583
859.529	20438
859.662	20324
859.795	20328
859.928	20480
860.061	20518
860.194	20625
860.327	20431
860.46	20396
860.592	20427
860.725	20545
860.858	20495
860.99	20415
861.123	20298
861.256	20286
861.388	20282
861.521	20902
861.653	20187
861.786	20153
861.918	20275
862.05	20309
862.183	20343
862.315	20313
862.447	20404
862.58	20362
862.712	20062
862.844	20138
862.976	20248
863.108	20062
863.24	20533
863.372	20058
863.504	20062
863.636	20058
863.768	20103
863.9	20218
864.032	20092
864.164	19997
864.296	20142
864.428	20286
864.559	20065
864.691	20233
864.823	20054
864.954	20058
865.086	20058
865.217	19906
865.349	19997
865.48	20134
865.612	20043
865.743	20115
865.875	19955
866.006	19883
866.137	20043
866.269	19932
866.4	19883
866.531	19970
866.662	19860
866.793	19967
866.924	20035
867.055	19849
867.186	19982
867.317	19864
867.448	19860
867.579	19951
867.71	19700
867.841	19833
867.972	19989
868.103	20050
868.233	19909
868.364	20016
868.495	20043
868.625	20183
868.756	20278
868.886	20058
869.017	20271
869.147	20336
869.278	20294
869.408	20206
869.539	20214
869.669	20233
869.799	20263
869.929	20309
870.06	20313
870.19	20598
870.32	20484
870.45	20549
870.58	20651
870.71	20739
870.84	20663
870.97	20587
871.1	20590
871.23	20785
871.36	20838
871.489	20670
871.619	20727
871.749	20754
871.879	20872
872.008	20960
872.138	20823
872.267	20739
872.397	20602
872.526	20609
872.656	20640
872.785	20670
872.915	20872
873.044	20864
873.173	20906
873.303	20853
873.432	20937
873.561	20910
873.69	20727
873.819	20792
873.948	20929
874.077	20891
874.206	20781
874.335	20819
874.464	21070
874.593	21104
874.722	21055
874.851	21077
874.979	21032
875.108	21176
875.237	20941
875.365	21013
875.494	20967
875.623	21142
875.751	21142
875.88	21055
876.008	21195
876.136	21291
876.265	21466
876.393	21629
876.521	21462
876.65	21633
876.778	21530
876.906	21412
877.034	21378
877.162	21363
877.29	21241
877.418	21439
877.546	21431
877.674	21393
877.802	21450
877.93	21374
878.058	21393
878.185	21321
878.313	21332
878.441	21359
878.568	21184
878.696	21310
878.824	21408
878.951	21500
879.079	21515
879.206	21705
879.333	21629
879.461	21363
879.588	21519
879.715	21545
879.842	21637
879.97	21485
880.097	21283
880.224	21287
880.351	21302
880.478	21226
880.605	21150
880.732	21317
880.859	21374
880.986	21176
881.112	21264
881.239	21051
881.366	21062
881.493	20842
881.619	20838
881.746	20971
881.872	20724
881.999	20800
882.125	20758
882.252	20849
882.378	20845
882.505	20948
882.631	20606
882.757	20476
882.883	20579
883.01	20419
883.136	20450
883.262	20488
883.388	20339
883.514	20632
883.64	20556
883.766	20476
883.892	20252
884.018	20450
884.143	20579
884.269	20617
884.395	20278
884.52	20100
884.646	20229
884.772	20149
884.897	20039
885.023	20263
885.148	20332
885.274	20366
885.399	20263
885.524	20252
885.65	20202
885.775	20202
885.9	20153
886.025	20328
886.15	20248
886.275	20088
886.4	20100
886.525	20084
886.65	20069
886.775	20031
886.9	20358
887.025	20476
887.149	20130
887.274	20046
887.399	20062
887.523	19902
887.648	19894
887.773	19879
887.897	20050
888.021	20069
888.146	19875
888.27	19959
888.395	20046
888.519	20100
888.643	19974
888.767	20115
888.891	19830
889.015	19715
889.139	19864
889.263	19605
889.387	19871
889.511	19955
889.635	19909
889.759	19666
889.883	19769
890.006	19883
890.13	19856
890.254	19780
890.377	19727
890.501	19613
890.624	19510
890.748	19582
890.871	19441
890.995	19247
891.118	19259
891.241	19415
891.364	19415
891.488	19411
891.611	19392
891.734	19400
891.857	19483
891.98	19270
892.103	19449
892.226	19346
892.349	19335
892.471	19164
892.594	19148
892.717	19232
892.839	19297
892.962	19225
893.085	19308
893.207	19312
893.33	19164
893.452	19232
893.575	19407
893.697	19232
893.819	19483
893.941	19476
894.064	19426
894.186	19301
894.308	19107
894.43	19434
894.552	19362
894.674	19320
894.796	19331
894.918	19198
895.04	19270
895.161	19430
895.283	19392
895.405	19221
895.526	19381
895.648	19411
895.769	19247
895.891	19324
896.012	19365
896.134	19331
896.255	19335
896.376	19274
896.498	19282
896.619	19304
896.74	19278
896.861	19354
896.982	19670
897.103	19780
897.224	19567
897.345	19521
897.466	19529
897.587	19525
897.708	19578
897.828	19457
897.949	19491
898.07	19346
898.19	19453
898.311	19495
898.431	19506
898.552	19529
898.672	19605
898.792	19559
898.913	19635
899.033	19468
899.153	19327
899.273	19312
899.393	19301
899.513	19316
899.633	19346
899.753	19369
899.873	19190
899.993	19289
900.113	19392
900.232	19259
900.352	19168
900.472	19122
900.591	19034
900.711	19110
900.83	19038
900.95	19156
901.069	19247
901.189	18985
901.308	18661
901.427	18692
901.546	18593
901.665	18661
901.784	18711
901.904	18540
902.023	18486
902.141	18357
902.26	18209
902.379	18270
902.498	18216
902.617	18194
902.735	18102
902.854	18224
902.973	18213
903.091	17935
903.21	17870
903.328	17847
903.446	17726
903.565	17722
903.683	17687
903.801	17562
903.919	17627
904.038	17570
904.156	17482
904.274	17630
904.392	17478
904.51	17398
904.627	17448
904.745	17528
904.863	17452
904.981	17208
905.098	17181
905.216	17094
905.334	17136
905.451	17155
905.569	17121
905.686	17159
905.803	17162
905.921	16881
906.038	17018
906.155	16961
906.272	16801
906.389	16896
906.506	16698
906.623	16683
906.74	16729
906.857	16634
906.974	16577
907.091	16843
907.208	16881
907.324	16698
907.441	16550
907.557	16615
907.674	16409
907.79	16436
907.907	16348
908.023	16459
908.139	16371
908.256	16440
908.372	16261
908.488	16265
908.604	16166
908.72	16112
908.836	16120
908.952	16188
909.068	16173
909.184	16234
909.3	16040
909.415	16204
909.531	16135
909.647	15911
909.762	15831
909.878	15778
909.993	15804
910.108	15751
910.224	15857
910.339	15827
910.454	15686
910.57	15701
910.685	15584
910.8	15907
910.915	15857
911.03	15618
911.145	15431
911.259	15447
911.374	15485
911.489	15336
911.604	15351
911.718	15230
911.833	15317
911.947	15142
912.062	15043
912.176	15237
912.291	15150
912.405	15199
912.519	15397
912.633	15386
912.748	15218
912.862	15230
912.976	15020
913.09	14876
913.204	14979
913.318	15058
913.431	15089
913.545	15112
913.659	15192
913.772	14918
913.886	14849
914	14838
914.113	14929
914.226	14910
914.34	14990
914.453	14689
914.566	14876
914.68	14629
914.793	14610
914.906	14469
915.019	14537
915.132	14343
915.245	14461
915.358	14495
915.47	14503
915.583	14450
915.696	14499
915.809	14541
915.921	14625
916.034	14461
916.146	14343
916.259	14248
916.371	14404
916.483	14389
916.595	14294
916.708	14366
916.82	14271
916.932	14229
917.044	14305
917.156	14199
917.268	14164
917.38	14176
917.491	14142
917.603	14164
917.715	14199
917.826	14271
917.938	14039
918.049	14069
918.161	14062
918.272	14138
918.384	14153
918.495	14069
918.606	13944
918.717	13845
918.828	14031
918.939	14005
919.05	13814
919.161	13917
919.272	13731
919.383	13788
919.494	13997
919.604	14065
919.715	13849
919.826	13811
919.936	13791
920.047	13902
920.157	13925
920.267	14134
920.378	13864
920.488	13883
920.598	14012
920.708	14290
920.818	14005
920.928	14043
921.038	14035
921.148	14161
921.258	13921
921.368	13712
921.477	13647
921.587	13662
921.697	13548
921.806	13605
921.916	13430
922.025	13392
922.134	13384
922.244	13350
922.353	13331
922.462	13270
922.571	13031
922.68	12981
922.789	13057
922.898	12920
923.007	12829
923.116	12973
923.224	13023
923.333	12829
923.442	12802
923.55	12791
923.659	12814
923.767	12875
923.876	12684
923.984	12867
924.092	12707
924.201	12715
924.309	12692
924.417	12627
924.525	12578
924.633	12593
924.741	13601
924.849	12380
924.956	12597
925.064	12426
925.172	12372
925.279	12296
925.387	12395
925.494	12376
925.602	12490
925.709	12460
925.816	12395
925.924	12224
926.031	12380
926.138	12372
926.245	12414
926.352	12319
926.459	12338
926.566	12376
926.673	12247
926.779	12175
926.886	12144
926.993	11988
927.099	11984
927.206	11977
927.312	11927
927.419	11969
927.525	11851
927.631	12007
927.737	11859
927.843	11904
927.95	11668
928.056	11783
928.162	11821
928.267	11847
928.373	12323
928.479	11843
928.585	11688
928.69	11779
928.796	11741
928.901	11726
929.007	11596
929.112	11722
929.218	11657
929.323	11558
929.428	11516
929.533	11688
929.638	11528
929.743	11512
929.848	11585
929.953	11478
930.058	11402
930.163	11159
930.267	11273
930.372	11372
930.477	11223
930.581	11429
930.685	11242
930.79	11227
930.894	11212
930.998	11109
931.103	11250
931.207	10873
931.311	10793
931.415	10748
931.519	10641
931.623	10607
