Data from test_V78500241_3235.txt Node
Date: Fri Mar 25 15:32:23 CST 2022
User: usil
Spectrometer: V785-0024
Trigger mode: 0
Integration Time (sec): 4.000000E-1
Scans to average: 1
Nonlinearity correction enabled: false
Boxcar width: 0
Storing dark spectrum: false
XAxis mode: Wavelengths
Number of Pixels in Spectrum: 1024
>>>>>Begin Spectral Data<<<<<
801.071	27192
801.214	27127
801.356	27066
801.499	26705
801.641	26754
801.783	26815
801.926	26754
802.068	26792
802.211	26678
802.353	26541
802.496	26408
802.638	26419
802.78	26446
802.923	26320
803.065	26278
803.208	26286
803.35	26370
803.492	26446
803.635	26499
803.777	26469
803.919	26476
804.061	26891
804.204	26636
804.346	26507
804.488	26473
804.63	26404
804.773	26415
804.915	26541
805.057	26571
805.199	26473
805.341	26575
805.483	26746
805.626	26621
805.768	26446
805.91	26693
806.052	26579
806.194	26644
806.336	26781
806.478	26606
806.62	26697
806.762	26724
806.904	26876
807.046	27173
807.188	27020
807.33	27013
807.472	27176
807.614	26887
807.756	26857
807.898	26956
808.04	26788
808.182	26724
808.324	26910
808.465	26845
808.607	27233
808.749	27192
808.891	27374
809.033	27291
809.174	27287
809.316	27344
809.458	27116
809.6	27218
809.741	27283
809.883	27416
810.025	27477
810.166	27462
810.308	27553
810.45	27542
810.591	27454
810.733	27268
810.875	27268
811.016	27180
811.158	27161
811.299	27230
811.441	27363
811.582	27469
811.724	27287
811.865	27074
812.007	27192
812.148	27070
812.29	27218
812.431	27294
812.573	27545
812.714	27690
812.855	27629
812.997	27652
813.138	28029
813.279	27876
813.421	27736
813.562	27671
813.703	27504
813.845	27450
813.986	27074
814.127	26956
814.268	27005
814.41	26838
814.551	26864
814.692	26823
814.833	26727
814.974	26906
815.115	26876
815.256	26876
815.397	26773
815.539	26769
815.68	26636
815.821	26636
815.962	26667
816.103	26514
816.244	26530
816.385	26282
816.526	26393
816.666	26324
816.807	26153
816.948	26237
817.089	26275
817.23	26271
817.371	26191
817.512	26145
817.653	26126
817.793	26058
817.934	26286
818.075	26225
818.216	26069
818.356	26122
818.497	26016
818.638	25852
818.778	25860
818.919	25902
819.06	25955
819.2	26058
819.341	26221
819.481	26172
819.622	26218
819.762	26495
819.903	26377
820.043	26351
820.184	26347
820.324	26153
820.465	26442
820.605	26233
820.746	26088
820.886	26039
821.026	26012
821.167	26218
821.307	26244
821.447	26043
821.588	26058
821.728	25947
821.868	25738
822.008	25529
822.149	25559
822.289	25586
822.429	25392
822.569	25327
822.709	25316
822.849	25065
822.99	25148
823.13	25076
823.27	25012
823.41	24932
823.55	24943
823.69	24928
823.83	24897
823.97	24909
824.11	24673
824.25	24734
824.389	24806
824.529	24825
824.669	24696
824.809	24897
824.949	24776
825.089	24817
825.228	24673
825.368	24525
825.508	24555
825.648	24673
825.787	24688
825.927	24665
826.067	24559
826.206	24620
826.346	24700
826.485	24749
826.625	24547
826.765	24635
826.904	24688
827.044	24410
827.183	24361
827.323	24361
827.462	24388
827.601	24369
827.741	24380
827.88	24300
828.02	24228
828.159	24270
828.298	24327
828.437	24350
828.577	24194
828.716	24460
828.855	24361
828.994	24018
829.134	24114
829.273	24026
829.412	23999
829.551	24034
829.69	23965
829.829	24060
829.968	24186
830.107	24022
830.246	23996
830.385	24091
830.524	24072
830.663	23790
830.802	23733
830.941	23752
831.08	23592
831.219	23710
831.357	23665
831.496	23863
831.635	23726
831.774	23710
831.913	23554
832.051	23284
832.19	23345
832.329	23349
832.467	23318
832.606	23250
832.744	23235
832.883	23299
833.022	23280
833.16	23288
833.299	23448
833.437	23425
833.576	23440
833.714	23436
833.852	23562
833.991	23311
834.129	23554
834.267	23417
834.406	23337
834.544	23425
834.682	23452
834.821	23493
834.959	23608
835.097	23360
835.235	23452
835.373	23360
835.511	23459
835.65	23242
835.788	23212
835.926	23075
836.064	23010
836.202	23029
836.34	23261
836.478	23414
836.615	23220
836.753	23258
836.891	23269
837.029	23364
837.167	23242
837.305	23235
837.443	23044
837.58	23124
837.718	23185
837.856	23048
837.993	23197
838.131	23064
838.269	22968
838.406	23128
838.544	22942
838.681	22805
838.819	22744
838.956	22592
839.094	22641
839.231	22615
839.369	22725
839.506	23033
839.643	22927
839.781	22554
839.918	22584
840.055	22531
840.193	22588
840.33	22527
840.467	22603
840.604	22573
840.742	22900
840.879	22455
841.016	22500
841.153	22417
841.29	22554
841.427	22432
841.564	22618
841.701	22508
841.838	22485
841.975	22337
842.112	22470
842.249	22481
842.385	22333
842.522	22474
842.659	22459
842.796	22382
842.933	22280
843.069	22242
843.206	22246
843.343	22322
843.479	22329
843.616	22344
843.752	22051
843.889	22097
844.025	22265
844.162	22021
844.298	22112
844.435	22223
844.571	21956
844.708	22166
844.844	22124
844.98	22090
845.117	22158
845.253	21838
845.389	21888
845.525	21956
845.661	21846
845.798	21781
845.934	21873
846.07	21827
846.206	21873
846.342	21922
846.478	21751
846.614	21682
846.75	21511
846.886	21576
847.022	21694
847.158	21629
847.294	21576
847.429	21614
847.565	21507
847.701	21713
847.837	21283
847.972	21150
848.108	21408
848.244	21298
848.379	21096
848.515	21096
848.65	21096
848.786	21123
848.921	21165
849.057	21165
849.192	21119
849.328	21188
849.463	21081
849.598	21112
849.734	20979
849.869	20925
850.004	21013
850.14	20834
850.275	20891
850.41	21009
850.545	20899
850.68	20876
850.815	20918
850.95	20883
851.085	21043
851.22	21013
851.355	20929
851.49	20769
851.625	20902
851.76	20845
851.895	20792
852.03	20765
852.165	20788
852.299	20910
852.434	20910
852.569	20785
852.703	20929
852.838	20982
852.973	21047
853.107	20963
853.242	20693
853.376	20705
853.511	20682
853.645	20724
853.78	20842
853.914	20849
854.048	20686
854.183	20686
854.317	20727
854.451	20921
854.585	20800
854.72	20750
854.854	20773
854.988	20708
855.122	20708
855.256	20670
855.39	20788
855.524	20731
855.658	20697
855.792	20777
855.926	20769
856.06	20762
856.194	20834
856.327	20613
856.461	20621
856.595	20617
856.729	20708
856.862	20716
856.996	20781
857.13	20792
857.263	20769
857.397	20842
857.53	20788
857.664	20708
857.797	20731
857.931	20796
858.064	20807
858.197	20762
858.331	20739
858.464	20686
858.597	20583
858.731	20735
858.864	20682
858.997	20727
859.13	20678
859.263	20727
859.396	20853
859.529	20716
859.662	20701
859.795	20689
859.928	20758
860.061	20857
860.194	20842
860.327	20800
860.46	20720
860.592	20906
860.725	20857
860.858	20765
860.99	20754
861.123	20533
861.256	20678
861.388	20735
861.521	21283
861.653	20518
861.786	20522
861.918	20514
862.05	20693
862.183	20686
862.315	20632
862.447	20807
862.58	20640
862.712	20511
862.844	20381
862.976	20434
863.108	20495
863.24	20804
863.372	20267
863.504	20324
863.636	20393
863.768	20564
863.9	20412
864.032	20415
864.164	20320
864.296	20465
864.428	20571
864.559	20461
864.691	20507
864.823	20457
864.954	20431
865.086	20324
865.217	20396
865.349	20339
865.48	20298
865.612	20347
865.743	20408
865.875	20267
866.006	20347
866.137	20358
866.269	20221
866.4	20339
866.531	20210
866.662	20214
866.793	20233
866.924	20351
867.055	20275
867.186	20313
867.317	20282
867.448	20275
867.579	20317
867.71	20282
867.841	20199
867.972	20240
868.103	20248
868.233	20233
868.364	20347
868.495	20473
868.625	20469
868.756	20678
868.886	20339
869.017	20522
869.147	20693
869.278	20598
869.408	20575
869.539	20590
869.669	20518
869.799	20579
869.929	20724
870.06	20545
870.19	20804
870.32	20792
870.45	20785
870.58	20872
870.71	20982
870.84	21020
870.97	21055
871.1	20887
871.23	21036
871.36	21119
871.489	21028
871.619	21093
871.749	21192
871.879	21146
872.008	21306
872.138	21157
872.267	21123
872.397	21009
872.526	20914
872.656	20994
872.785	20883
872.915	21150
873.044	21176
873.173	21218
873.303	21161
873.432	21226
873.561	21249
873.69	21119
873.819	21161
873.948	21154
874.077	21161
874.206	21123
874.335	21154
874.464	21313
874.593	21420
874.722	21325
874.851	21310
874.979	21363
875.108	21458
875.237	21378
875.365	21245
875.494	21351
875.623	21561
875.751	21344
875.88	21469
876.008	21545
876.136	21504
876.265	21907
876.393	21907
876.521	22006
876.65	21915
876.778	21671
876.906	21766
877.034	21774
877.162	21751
877.29	21644
877.418	21724
877.546	21774
877.674	21762
877.802	21861
877.93	21701
878.058	21728
878.185	21576
878.313	21770
878.441	21625
878.568	21587
878.696	21663
878.824	21728
878.951	21797
879.079	21930
879.206	22048
879.333	21838
879.461	21762
879.588	21861
879.715	21861
879.842	21941
879.97	21694
880.097	21591
880.224	21545
880.351	21614
880.478	21553
880.605	21458
880.732	21641
880.859	21838
880.986	21557
881.112	21530
881.239	21618
881.366	21260
881.493	21275
881.619	21169
881.746	21165
881.872	21176
881.999	20979
882.125	21001
882.252	21211
882.378	21116
882.505	21199
882.631	21074
882.757	20910
882.883	20944
883.01	20914
883.136	20883
883.262	20781
883.388	20792
883.514	20777
883.64	20864
883.766	20849
883.892	20670
884.018	20621
884.143	20853
884.269	20792
884.395	20492
884.52	20442
884.646	20571
884.772	20495
884.897	20408
885.023	20541
885.148	20518
885.274	20602
885.399	20613
885.524	20655
885.65	20541
885.775	20530
885.9	20374
886.025	20651
886.15	20457
886.275	20434
886.4	20412
886.525	20495
886.65	20286
886.775	20343
886.9	20575
887.025	20636
887.149	20583
887.274	20301
887.399	20267
887.523	20263
887.648	20237
887.773	20088
887.897	20298
888.021	20362
888.146	20191
888.27	20332
888.395	20259
888.519	20267
888.643	20286
888.767	20324
888.891	20202
889.015	20058
889.139	20134
889.263	20065
889.387	20138
889.511	20332
889.635	20259
889.759	19932
889.883	20107
890.006	20138
890.13	20126
890.254	19970
890.377	19997
890.501	19906
890.624	19887
890.748	19791
890.871	19731
890.995	19750
891.118	19529
891.241	19628
891.364	19643
891.488	19856
891.611	19597
891.734	19704
891.857	19658
891.98	19803
892.103	19788
892.226	19700
892.349	19609
892.471	19426
892.594	19575
892.717	19655
892.839	19567
892.962	19533
893.085	19613
893.207	19582
893.33	19487
893.452	19480
893.575	19651
893.697	19609
893.819	19689
893.941	19704
894.064	19803
894.186	19677
894.308	19544
894.43	19769
894.552	19830
894.674	19693
894.796	19525
894.918	19529
895.04	19575
895.161	19670
895.283	19723
895.405	19518
895.526	19696
895.648	19696
895.769	19601
895.891	19674
896.012	19628
896.134	19655
896.255	19544
896.376	19476
896.498	19544
896.619	19525
896.74	19601
896.861	19597
896.982	19887
897.103	20039
897.224	19822
897.345	19833
897.466	19814
897.587	19841
897.708	19906
897.828	19879
897.949	19693
898.07	19628
898.19	19860
898.311	19841
898.431	19799
898.552	19852
898.672	19814
898.792	19875
898.913	19925
899.033	19700
899.153	19506
899.273	19578
899.393	19552
899.513	19674
899.633	19556
899.753	19571
899.873	19552
899.993	19601
900.113	19533
900.232	19635
900.352	19521
900.472	19460
900.591	19377
900.711	19438
900.83	19297
900.95	19537
901.069	19483
901.189	19179
901.308	19076
901.427	19015
901.546	18882
901.665	19046
901.784	18856
901.904	18776
902.023	18661
902.141	18506
902.26	18506
902.379	18559
902.498	18464
902.617	18391
902.735	18532
902.854	18506
902.973	18311
903.091	18038
903.21	18186
903.328	18136
903.446	18034
903.565	17927
903.683	17984
903.801	17859
903.919	17897
904.038	17836
904.156	17733
904.274	17821
904.392	17748
904.51	17634
904.627	17718
904.745	17809
904.863	17817
904.981	17528
905.098	17520
905.216	17322
905.334	17417
905.451	17337
905.569	17356
905.686	17417
905.803	17482
905.921	17159
906.038	17265
906.155	17193
906.272	17124
906.389	17083
906.506	17025
906.623	17006
906.74	16995
906.857	16824
906.974	16835
907.091	17037
907.208	17045
907.324	17064
907.441	16843
907.557	16755
907.674	16812
907.79	16630
907.907	16668
908.023	16710
908.139	16702
908.256	16592
908.372	16580
908.488	16489
908.604	16341
908.72	16402
908.836	16333
908.952	16314
909.068	16424
909.184	16516
909.3	16409
909.415	16382
909.531	16417
909.647	16097
909.762	16112
909.878	16162
909.993	16093
910.108	16078
910.224	15998
910.339	16040
910.454	15994
910.57	15823
910.685	15785
910.8	16071
910.915	16090
911.03	15827
911.145	15766
911.259	15705
911.374	15644
911.489	15618
911.604	15576
911.718	15504
911.833	15595
911.947	15386
912.062	15321
912.176	15458
912.291	15454
912.405	15431
912.519	15599
912.633	15682
912.748	15530
912.862	15504
912.976	15275
913.09	15195
913.204	15230
913.318	15275
913.431	15382
913.545	15408
913.659	15386
913.772	15169
913.886	15123
914	15013
914.113	15142
914.226	15222
914.34	15028
914.453	14948
914.566	15066
914.68	14967
914.793	14906
914.906	14880
915.019	14644
915.132	14613
915.245	14697
915.358	14739
915.47	14697
915.583	14769
915.696	14689
915.809	14804
915.921	14750
916.034	14602
916.146	14602
916.259	14499
916.371	14636
916.483	14644
916.595	14537
916.708	14511
916.82	14613
916.932	14495
917.044	14556
917.156	14454
917.268	14317
917.38	14419
917.491	14385
917.603	14347
917.715	14400
917.826	14358
917.938	14275
918.049	14218
918.161	14225
918.272	14427
918.384	14389
918.495	14237
918.606	14157
918.717	14008
918.828	14233
918.939	14221
919.05	14039
919.161	14046
919.272	13906
919.383	14005
919.494	14233
919.604	14351
919.715	14115
919.826	13982
919.936	14084
920.047	14130
920.157	14176
920.267	14237
920.378	14058
920.488	13974
920.598	14271
920.708	14385
920.818	14161
920.928	14180
921.038	14476
921.148	14396
921.258	14016
921.368	13928
921.477	13864
921.587	13719
921.697	13731
921.806	13928
921.916	13738
922.025	13567
922.134	13499
922.244	13426
922.353	13567
922.462	13369
922.571	13289
922.68	13190
922.789	13156
922.898	13156
923.007	13072
923.116	13156
923.224	13091
923.333	13084
923.442	13012
923.55	12996
923.659	12973
923.767	13057
923.876	12916
923.984	13019
924.092	12844
924.201	12924
924.309	12939
924.417	12871
924.525	12859
924.633	12894
924.741	13788
924.849	12719
924.956	12821
925.064	12688
925.172	12532
925.279	12616
925.387	12551
925.494	12513
925.602	12604
925.709	12616
925.816	12509
925.924	12585
926.031	12574
926.138	12555
926.245	12582
926.352	12460
926.459	12502
926.566	12627
926.673	12486
926.779	12334
926.886	12315
926.993	12083
927.099	12194
927.206	12171
927.312	12133
927.419	12155
927.525	12171
927.631	12144
927.737	12007
927.843	12034
927.95	11912
928.056	12049
928.162	11988
928.267	11950
928.373	12650
928.479	12079
928.585	11809
928.69	11961
928.796	11969
928.901	11912
929.007	11726
929.112	11923
929.218	11870
929.323	11726
929.428	11745
929.533	11882
929.638	11672
929.743	11661
929.848	11718
929.953	11684
930.058	11573
930.163	11417
930.267	11425
930.372	11554
930.477	11417
930.581	11668
930.685	11395
930.79	11326
930.894	11334
930.998	11258
931.103	11444
931.207	11071
931.311	10957
931.415	10930
931.519	10752
931.623	10694
