Data from test_V78500241_1315.txt Node
Date: Fri Mar 25 15:19:00 CST 2022
User: usil
Spectrometer: V785-0024
Trigger mode: 0
Integration Time (sec): 4.000000E-1
Scans to average: 1
Nonlinearity correction enabled: false
Boxcar width: 0
Storing dark spectrum: false
XAxis mode: Wavelengths
Number of Pixels in Spectrum: 1024
>>>>>Begin Spectral Data<<<<<
801.071	27972
801.214	27880
801.356	27656
801.499	27701
801.641	27378
801.783	27348
801.926	27587
802.068	27580
802.211	27340
802.353	27583
802.496	27176
802.638	27112
802.78	27100
802.923	27077
803.065	27066
803.208	27100
803.35	27043
803.492	27260
803.635	27401
803.777	27184
803.919	27450
804.061	27671
804.204	27397
804.346	27359
804.488	27294
804.63	27283
804.773	27195
804.915	27363
805.057	27458
805.199	27249
805.341	27618
805.483	27496
805.626	27576
805.768	27367
805.91	27439
806.052	27515
806.194	27485
806.336	27679
806.478	27599
806.62	27454
806.762	27542
806.904	27755
807.046	27838
807.188	27964
807.33	27865
807.472	27922
807.614	27937
807.756	27861
807.898	27762
808.04	27789
808.182	27835
808.324	27781
808.465	27842
808.607	28067
808.749	28082
808.891	28200
809.033	28329
809.174	28181
809.316	28120
809.458	28204
809.6	28002
809.741	28268
809.883	28261
810.025	28470
810.166	28428
810.308	28519
810.45	28440
810.591	28409
810.733	28177
810.875	28124
811.016	27907
811.158	28032
811.299	28211
811.441	28291
811.582	28325
811.724	28128
811.865	28200
812.007	28158
812.148	28025
812.29	28109
812.431	28329
812.573	28382
812.714	28497
812.855	28596
812.997	28797
813.138	28843
813.279	28831
813.421	28778
813.562	28637
813.703	28508
813.845	28299
813.986	28128
814.127	27926
814.268	27854
814.41	27914
814.551	27846
814.692	27823
814.833	27694
814.974	27797
815.115	27838
815.256	27618
815.397	27625
815.539	27648
815.68	27644
815.821	27614
815.962	27591
816.103	27637
816.244	27481
816.385	27431
816.526	27386
816.666	27260
816.807	27135
816.948	27081
817.089	27161
817.23	27062
817.371	27104
817.512	27116
817.653	26910
817.793	27085
817.934	27081
818.075	27138
818.216	27165
818.356	27043
818.497	26906
818.638	26823
818.778	26933
818.919	26899
819.06	27047
819.2	26899
819.341	27173
819.481	27131
819.622	27329
819.762	27420
819.903	27256
820.043	27351
820.184	27287
820.324	27169
820.465	27252
820.605	27275
820.746	27325
820.886	27119
821.026	27249
821.167	27222
821.307	27268
821.447	27173
821.588	27051
821.728	26982
821.868	26689
822.008	26575
822.149	26648
822.289	26609
822.429	26396
822.569	26240
822.709	26389
822.849	26176
822.99	26065
823.13	26130
823.27	25993
823.41	25871
823.55	25769
823.69	25959
823.83	25974
823.97	25814
824.11	25662
824.25	25681
824.389	25658
824.529	25860
824.669	25693
824.809	25830
824.949	25795
825.089	25761
825.228	25864
825.368	25643
825.508	25506
825.648	25601
825.787	25651
825.927	25628
826.067	25681
826.206	25514
826.346	25681
826.485	25647
826.625	25632
826.765	25674
826.904	25677
827.044	25460
827.183	25449
827.323	25316
827.462	25422
827.601	25369
827.741	25422
827.88	25381
828.02	25156
828.159	25324
828.298	25369
828.437	25499
828.577	25312
828.716	25407
828.855	25285
828.994	25042
829.134	25072
829.273	25129
829.412	25053
829.551	24996
829.69	25053
829.829	25027
829.968	25107
830.107	25072
830.246	25042
830.385	24928
830.524	24932
830.663	24821
830.802	24795
830.941	24601
831.08	24635
831.219	24722
831.357	24715
831.496	24875
831.635	24715
831.774	24517
831.913	24532
832.051	24475
832.19	24323
832.329	24589
832.467	24315
832.606	24289
832.744	24270
832.883	24178
833.022	24365
833.16	24277
833.299	24330
833.437	24315
833.576	24369
833.714	24372
833.852	24509
833.991	24281
834.129	24304
834.267	24407
834.406	24414
834.544	24391
834.682	24391
834.821	24437
834.959	24566
835.097	24361
835.235	24429
835.373	24353
835.511	24270
835.65	24239
835.788	24247
835.926	24171
836.064	24034
836.202	24026
836.34	24243
836.478	24251
836.615	24235
836.753	24258
836.891	24159
837.029	24178
837.167	24106
837.305	24144
837.443	24053
837.58	24106
837.718	24102
837.856	24060
837.993	23908
838.131	24018
838.269	23920
838.406	23927
838.544	23897
838.681	23771
838.819	23638
838.956	23535
839.094	23676
839.231	23554
839.369	23687
839.506	23863
839.643	23779
839.781	23543
839.918	23524
840.055	23585
840.193	23497
840.33	23436
840.467	23482
840.604	23440
840.742	23623
840.879	23349
841.016	23425
841.153	23280
841.29	23482
841.427	23467
841.564	23478
841.701	23353
841.838	23383
841.975	23395
842.112	23349
842.249	23258
842.385	23280
842.522	23433
842.659	23258
842.796	23128
842.933	23239
843.069	23151
843.206	23162
843.343	23258
843.479	23170
843.616	23250
843.752	22923
843.889	22984
844.025	23124
844.162	22915
844.298	23064
844.435	22991
844.571	22885
844.708	23003
844.844	23166
844.98	23064
845.117	23143
845.253	22892
845.389	22839
845.525	22854
845.661	22911
845.798	22713
845.934	22744
846.07	22698
846.206	22691
846.342	22839
846.478	22603
846.614	22504
846.75	22447
846.886	22394
847.022	22466
847.158	22436
847.294	22432
847.429	22421
847.565	22432
847.701	22683
847.837	22158
847.972	22162
848.108	22276
848.244	22257
848.379	22223
848.515	22101
848.65	22074
848.786	22051
848.921	22169
849.057	22230
849.192	22070
849.328	22032
849.463	21953
849.598	22082
849.734	22139
849.869	21941
850.004	21785
850.14	21728
850.275	21816
850.41	21789
850.545	21774
850.68	21660
850.815	21922
850.95	21770
851.085	22036
851.22	21915
851.355	21728
851.49	21526
851.625	21667
851.76	21888
851.895	21709
852.03	21724
852.165	21816
852.299	21793
852.434	21899
852.569	21842
852.703	21755
852.838	21770
852.973	21766
853.107	21804
853.242	21770
853.376	21736
853.511	21466
853.645	21610
853.78	21732
853.914	21576
854.048	21568
854.183	21583
854.317	21614
854.451	21656
854.585	21682
854.72	21572
854.854	21717
854.988	21534
855.122	21603
855.256	21428
855.39	21610
855.524	21599
855.658	21618
855.792	21538
855.926	21553
856.06	21603
856.194	21720
856.327	21545
856.461	21561
856.595	21481
856.729	21530
856.862	21698
856.996	21637
857.13	21759
857.263	21739
857.397	21633
857.53	21606
857.664	21599
857.797	21800
857.931	21701
858.064	21595
858.197	21641
858.331	21660
858.464	21663
858.597	21443
858.731	21564
858.864	21633
858.997	21549
859.13	21603
859.263	21511
859.396	21671
859.529	21652
859.662	21587
859.795	21580
859.928	21641
860.061	21641
860.194	21755
860.327	21603
860.46	21576
860.592	21682
860.725	21759
860.858	21728
860.99	21652
861.123	21549
861.256	21519
861.388	21625
861.521	22287
861.653	21401
861.786	21370
861.918	21420
862.05	21397
862.183	21511
862.315	21526
862.447	21538
862.58	21523
862.712	21195
862.844	21188
862.976	21424
863.108	21321
863.24	21698
863.372	21245
863.504	21161
863.636	21287
863.768	21439
863.9	21340
864.032	21230
864.164	21218
864.296	21294
864.428	21374
864.559	21416
864.691	21401
864.823	21310
864.954	21359
865.086	21260
865.217	21237
865.349	21188
865.48	21184
865.612	21340
865.743	21226
865.875	21222
866.006	21199
866.137	21199
866.269	21264
866.4	21142
866.531	21131
866.662	21070
866.793	21043
866.924	21173
867.055	21089
867.186	21222
867.317	21142
867.448	21085
867.579	21131
867.71	20998
867.841	21009
867.972	21024
868.103	21142
868.233	21135
868.364	21055
868.495	21180
868.625	21500
868.756	21485
868.886	21374
869.017	21485
869.147	21458
869.278	21515
869.408	21386
869.539	21386
869.669	21367
869.799	21511
869.929	21393
870.06	21439
870.19	21713
870.32	21865
870.45	21625
870.58	21774
870.71	21857
870.84	21686
870.97	21747
871.1	21755
871.23	21994
871.36	21941
871.489	21747
871.619	21979
871.749	21983
871.879	22044
872.008	22067
872.138	21934
872.267	21956
872.397	21857
872.526	21774
872.656	21819
872.785	21873
872.915	22006
873.044	22032
873.173	21911
873.303	22044
873.432	22025
873.561	22070
873.69	22021
873.819	21960
873.948	22040
874.077	22055
874.206	21953
874.335	22090
874.464	21949
874.593	22200
874.722	22204
874.851	22219
874.979	22249
875.108	22143
875.237	22234
875.365	22013
875.494	22147
875.623	22265
875.751	22200
875.88	22265
876.008	22287
876.136	22284
876.265	22569
876.393	22656
876.521	22611
876.65	22771
876.778	22679
876.906	22493
877.034	22470
877.162	22565
877.29	22550
877.418	22531
877.546	22577
877.674	22386
877.802	22497
877.93	22474
878.058	22497
878.185	22398
878.313	22516
878.441	22634
878.568	22405
878.696	22459
878.824	22485
878.951	22733
879.079	22596
879.206	22831
879.333	22740
879.461	22649
879.588	22698
879.715	22721
879.842	22721
879.97	22721
880.097	22390
880.224	22329
880.351	22542
880.478	22405
880.605	22360
880.732	22284
880.859	22546
880.986	22367
881.112	22276
881.239	22382
881.366	21983
881.493	21949
881.619	21994
881.746	21960
881.872	21800
881.999	21899
882.125	21804
882.252	21987
882.378	21842
882.505	22097
882.631	21766
882.757	21709
882.883	21618
883.01	21606
883.136	21568
883.262	21447
883.388	21507
883.514	21481
883.64	21728
883.766	21583
883.892	21332
884.018	21370
884.143	21644
884.269	21591
884.395	21283
884.52	21283
884.646	21325
884.772	21256
884.897	21264
885.023	21226
885.148	21485
885.274	21321
885.399	21367
885.524	21192
885.65	21260
885.775	21249
885.9	21230
886.025	21237
886.15	21325
886.275	21252
886.4	21169
886.525	21203
886.65	21226
886.775	21188
886.9	21408
887.025	21435
887.149	21275
887.274	21157
887.399	21036
887.523	21055
887.648	21077
887.773	20952
887.897	21123
888.021	21157
888.146	21024
888.27	21100
888.395	21070
888.519	21047
888.643	21001
888.767	21135
888.891	20914
889.015	20899
889.139	20849
889.263	20826
889.387	20956
889.511	21089
889.635	20975
889.759	20807
889.883	20800
890.006	20819
890.13	20944
890.254	20724
890.377	20781
890.501	20697
890.624	20560
890.748	20575
890.871	20606
890.995	20442
891.118	20347
891.241	20362
891.364	20438
891.488	20625
891.611	20465
891.734	20518
891.857	20423
891.98	20389
892.103	20480
892.226	20404
892.349	20412
892.471	20218
892.594	20271
892.717	20347
892.839	20229
892.962	20305
893.085	20374
893.207	20298
893.33	20305
893.452	20294
893.575	20419
893.697	20202
893.819	20427
893.941	20552
894.064	20476
894.186	20267
894.308	20256
894.43	20423
894.552	20412
894.674	20393
894.796	20145
894.918	20385
895.04	20248
895.161	20518
895.283	20343
895.405	20275
895.526	20317
895.648	20415
895.769	20381
895.891	20305
896.012	20499
896.134	20339
896.255	20339
896.376	20328
896.498	20286
896.619	20450
896.74	20328
896.861	20396
896.982	20636
897.103	20807
897.224	20575
897.345	20617
897.466	20533
897.587	20590
897.708	20746
897.828	20541
897.949	20438
898.07	20400
898.19	20412
898.311	20598
898.431	20400
898.552	20621
898.672	20598
898.792	20526
898.913	20549
899.033	20507
899.153	20339
899.273	20233
899.393	20343
899.513	20298
899.633	20271
899.753	20252
899.873	20202
899.993	20412
900.113	20233
900.232	20233
900.352	20161
900.472	20195
900.591	19913
900.711	20054
900.83	19928
900.95	20103
901.069	20096
901.189	19951
901.308	19655
901.427	19624
901.546	19708
901.665	19635
901.784	19537
901.904	19525
902.023	19381
902.141	19160
902.26	19171
902.379	19213
902.498	19072
902.617	19206
902.735	19221
902.854	19061
902.973	19004
903.091	18791
903.21	18791
903.328	18859
903.446	18760
903.565	18623
903.683	18757
903.801	18506
903.919	18551
904.038	18608
904.156	18395
904.274	18483
904.392	18395
904.51	18243
904.627	18376
904.745	18494
904.863	18403
904.981	18178
905.098	18038
905.216	18102
905.334	18106
905.451	18121
905.569	18076
905.686	18152
905.803	18098
905.921	17798
906.038	17973
906.155	17863
906.272	17748
906.389	17756
906.506	17581
906.623	17627
906.74	17672
906.857	17315
906.974	17459
907.091	17695
907.208	17592
907.324	17642
907.441	17429
907.557	17322
907.674	17337
907.79	17159
907.907	17322
908.023	17250
908.139	17299
908.256	17204
908.372	17185
908.488	17121
908.604	17071
908.72	17052
908.836	16984
908.952	17010
909.068	17109
909.184	17136
909.3	17029
909.415	17189
909.531	16919
909.647	16744
909.762	16706
909.878	16675
909.993	16782
910.108	16660
910.224	16637
910.339	16683
910.454	16603
910.57	16489
910.685	16459
910.8	16771
910.915	16603
911.03	16653
911.145	16421
911.259	16226
911.374	16325
911.489	16162
911.604	16215
911.718	16074
911.833	16040
911.947	16032
912.062	15903
912.176	16105
912.291	16021
912.405	16086
912.519	16139
912.633	16226
912.748	16135
912.862	16055
912.976	15922
913.09	15800
913.204	15831
913.318	15907
913.431	16048
913.545	15979
913.659	15960
913.772	15865
913.886	15755
914	15690
914.113	15747
914.226	15812
914.34	15736
914.453	15584
914.566	15682
914.68	15675
914.793	15477
914.906	15363
915.019	15230
915.132	15218
915.245	15192
915.358	15275
915.47	15420
915.583	15211
915.696	15283
915.809	15466
915.921	15439
916.034	15207
916.146	15176
916.259	15169
916.371	15313
916.483	15203
916.595	15100
916.708	15154
916.82	15028
916.932	15207
917.044	15108
917.156	14990
917.268	14979
917.38	14960
917.491	14948
917.603	14971
917.715	14944
917.826	15112
917.938	14838
918.049	14826
918.161	14792
918.272	14994
918.384	15043
918.495	14792
918.606	14697
918.717	14560
918.828	14705
918.939	14693
919.05	14670
919.161	14667
919.272	14499
919.383	14530
919.494	14788
919.604	14998
919.715	14670
919.826	14636
919.936	14583
920.047	14644
920.157	14712
920.267	14842
920.378	14670
920.488	14583
920.598	14773
920.708	14906
920.818	14712
920.928	14872
921.038	14838
921.148	14883
921.258	14617
921.368	14488
921.477	14366
921.587	14469
921.697	14218
921.806	14317
921.916	14119
922.025	14073
922.134	13970
922.244	14043
922.353	14062
922.462	13871
922.571	13849
922.68	13757
922.789	13586
922.898	13632
923.007	13670
923.116	13674
923.224	13590
923.333	13674
923.442	13537
923.55	13552
923.659	13529
923.767	13495
923.876	13422
923.984	13567
924.092	13396
924.201	13392
924.309	13358
924.417	13335
924.525	13304
924.633	13308
924.741	14305
924.849	13080
924.956	13213
925.064	13088
925.172	13065
925.279	13076
925.387	12958
925.494	12989
925.602	13160
925.709	13175
925.816	13057
925.924	13004
926.031	13168
926.138	13057
926.245	12985
926.352	12928
926.459	13110
926.566	13053
926.673	12913
926.779	12867
926.886	12814
926.993	12753
927.099	12650
927.206	12601
927.312	12578
927.419	12608
927.525	12578
927.631	12658
927.737	12536
927.843	12498
927.95	12330
928.056	12448
928.162	12426
928.267	12574
928.373	12981
928.479	12540
928.585	12311
928.69	12479
928.796	12437
928.901	12319
929.007	12182
929.112	12251
929.218	12258
929.323	12247
929.428	12194
929.533	12308
929.638	12060
929.743	12140
929.848	12152
929.953	12140
930.058	12095
930.163	11843
930.267	11855
930.372	11969
930.477	11863
930.581	12034
930.685	11790
930.79	11680
930.894	11691
930.998	11714
931.103	11798
931.207	11554
931.311	11391
931.415	11326
931.519	11216
931.623	11136
