Data from test_V78500241_4.txt Node
Date: Fri Mar 25 15:09:53 CST 2022
User: usil
Spectrometer: V785-0024
Trigger mode: 0
Integration Time (sec): 4.000000E-1
Scans to average: 1
Nonlinearity correction enabled: false
Boxcar width: 0
Storing dark spectrum: false
XAxis mode: Wavelengths
Number of Pixels in Spectrum: 1024
>>>>>Begin Spectral Data<<<<<
801.071	27671
801.214	27542
801.356	27207
801.499	27146
801.641	27066
801.783	27089
801.926	26967
802.068	26982
802.211	26857
802.353	26838
802.496	26625
802.638	26686
802.78	26632
802.923	26305
803.065	26404
803.208	26301
803.35	26514
803.492	26442
803.635	26594
803.777	26476
803.919	26488
804.061	26921
804.204	26507
804.346	26522
804.488	26450
804.63	26450
804.773	26556
804.915	26412
805.057	26541
805.199	26339
805.341	26514
805.483	26621
805.626	26560
805.768	26450
805.91	26579
806.052	26587
806.194	26427
806.336	26743
806.478	26511
806.62	26495
806.762	26686
806.904	26606
807.046	26868
807.188	26845
807.33	26811
807.472	26876
807.614	26731
807.756	26792
807.898	26568
808.04	26579
808.182	26609
808.324	26705
808.465	26606
808.607	26636
808.749	26899
808.891	26960
809.033	27055
809.174	26967
809.316	26910
809.458	26944
809.6	26975
809.741	26887
809.883	27051
810.025	27199
810.166	27233
810.308	27093
810.45	27089
810.591	26994
810.733	26819
810.875	26868
811.016	26632
811.158	26739
811.299	26883
811.441	27028
811.582	27051
811.724	26773
811.865	26811
812.007	26762
812.148	26754
812.29	26800
812.431	27013
812.573	27154
812.714	27150
812.855	27431
812.997	27226
813.138	27519
813.279	27408
813.421	27230
813.562	27344
813.703	27066
813.845	27062
813.986	26708
814.127	26621
814.268	26336
814.41	26339
814.551	26370
814.692	26351
814.833	26267
814.974	26370
815.115	26370
815.256	26111
815.397	26278
815.539	26096
815.68	26176
815.821	26092
815.962	26043
816.103	26134
816.244	26001
816.385	25746
816.526	25811
816.666	25552
816.807	25483
816.948	25605
817.089	25616
817.23	25559
817.371	25415
817.512	25381
817.653	25388
817.793	25365
817.934	25327
818.075	25525
818.216	25464
818.356	25362
818.497	25274
818.638	25114
818.778	25160
818.919	25050
819.06	25187
819.2	25206
819.341	25415
819.481	25339
819.622	25464
819.762	25791
819.903	25635
820.043	25438
820.184	25384
820.324	25377
820.465	25499
820.605	25426
820.746	25384
820.886	25259
821.026	25377
821.167	25457
821.307	25426
821.447	25289
821.588	25240
821.728	25129
821.868	24856
822.008	24897
822.149	24825
822.289	24856
822.429	24604
822.569	24418
822.709	24437
822.849	24228
822.99	24205
823.13	24159
823.27	24110
823.41	24034
823.55	23828
823.69	24064
823.83	24011
823.97	23980
824.11	23851
824.25	23798
824.389	23798
824.529	23942
824.669	23840
824.809	23874
824.949	23817
825.089	23855
825.228	23653
825.368	23665
825.508	23554
825.648	23589
825.787	23585
825.927	23646
826.067	23486
826.206	23463
826.346	23524
826.485	23573
826.625	23543
826.765	23668
826.904	23627
827.044	23433
827.183	23273
827.323	23124
827.462	23337
827.601	23227
827.741	23109
827.88	23296
828.02	23052
828.159	23048
828.298	23200
828.437	23254
828.577	23200
828.716	23223
828.855	23006
828.994	22835
829.134	22892
829.273	22968
829.412	22850
829.551	22892
829.69	22927
829.829	22877
829.968	22919
830.107	23029
830.246	22885
830.385	22793
830.524	22801
830.663	22622
830.802	22493
830.941	22462
831.08	22413
831.219	22481
831.357	22485
831.496	22607
831.635	22371
831.774	22455
831.913	22413
832.051	22219
832.19	22211
832.329	22177
832.467	22124
832.606	21823
832.744	22051
832.883	22006
833.022	21922
833.16	21953
833.299	22162
833.437	22010
833.576	22116
833.714	22025
833.852	22139
833.991	22135
834.129	22143
834.267	22158
834.406	22090
834.544	22124
834.682	22010
834.821	22166
834.959	22139
835.097	21922
835.235	22101
835.373	22025
835.511	22055
835.65	22013
835.788	21903
835.926	21720
836.064	21682
836.202	21701
836.34	21987
836.478	21991
836.615	21846
836.753	21857
836.891	21876
837.029	22025
837.167	21873
837.305	21819
837.443	21724
837.58	21800
837.718	21759
837.856	21724
837.993	21690
838.131	21831
838.269	21713
838.406	21667
838.544	21568
838.681	21313
838.819	21332
838.956	21214
839.094	21195
839.231	21207
839.369	21363
839.506	21622
839.643	21389
839.781	21112
839.918	21036
840.055	21184
840.193	21074
840.33	20975
840.467	21020
840.604	21085
840.742	21214
840.879	20952
841.016	20937
841.153	20880
841.29	21298
841.427	21093
841.564	20982
841.701	21020
841.838	21032
841.975	21017
842.112	20891
842.249	20796
842.385	20762
842.522	21043
842.659	20754
842.796	20632
842.933	20826
843.069	20697
843.206	20758
843.343	20876
843.479	20769
843.616	20849
843.752	20579
843.889	20640
844.025	20648
844.162	20480
844.298	20518
844.435	20484
844.571	20541
844.708	20457
844.844	20602
844.98	20621
845.117	20571
845.253	20537
845.389	20320
845.525	20446
845.661	20442
845.798	20263
845.934	20240
846.07	20122
846.206	20233
846.342	20358
846.478	20176
846.614	20046
846.75	19997
846.886	19921
847.022	20122
847.158	19970
847.294	19963
847.429	19932
847.565	19879
847.701	20084
847.837	19670
847.972	19632
848.108	19837
848.244	19780
848.379	19506
848.515	19457
848.65	19407
848.786	19514
848.921	19495
849.057	19647
849.192	19487
849.328	19464
849.463	19571
849.598	19468
849.734	19445
849.869	19369
850.004	19358
850.14	19312
850.275	19232
850.41	19232
850.545	19213
850.68	19285
850.815	19232
850.95	19324
851.085	19472
851.22	19278
851.355	19187
851.49	19156
851.625	19206
851.76	19175
851.895	19091
852.03	19129
852.165	19206
852.299	19217
852.434	19259
852.569	19297
852.703	19038
852.838	19270
852.973	19403
853.107	19457
853.242	19164
853.376	19095
853.511	18886
853.645	18954
853.78	19164
853.914	18985
854.048	19046
854.183	18973
854.317	19038
854.451	19255
854.585	18996
854.72	19072
854.854	19042
854.988	18890
855.122	19027
855.256	18871
855.39	19088
855.524	19038
855.658	19000
855.792	19023
855.926	19084
856.06	18989
856.194	19175
856.327	18951
856.461	18871
856.595	18977
856.729	18916
856.862	19034
856.996	19038
857.13	19050
857.263	19190
857.397	19171
857.53	18954
857.664	18996
857.797	19027
857.931	19133
858.064	19061
858.197	19012
858.331	18905
858.464	18962
858.597	18894
858.731	18916
858.864	18958
858.997	19031
859.13	18882
859.263	18916
859.396	18989
859.529	18935
859.662	18920
859.795	18856
859.928	18897
860.061	19061
860.194	19156
860.327	18909
860.46	18856
860.592	19004
860.725	19031
860.858	19088
860.99	18882
861.123	18859
861.256	18894
861.388	19019
861.521	19460
861.653	18806
861.786	18768
861.918	18753
862.05	18852
862.183	19004
862.315	18951
862.447	19042
862.58	18913
862.712	18776
862.844	18715
862.976	18707
863.108	18760
863.24	19164
863.372	18563
863.504	18738
863.636	18753
863.768	18772
863.9	18658
864.032	18498
864.164	18506
864.296	18711
864.428	18719
864.559	18715
864.691	18642
864.823	18665
864.954	18642
865.086	18688
865.217	18578
865.349	18521
865.48	18578
865.612	18719
865.743	18585
865.875	18566
866.006	18369
866.137	18585
866.269	18589
866.4	18509
866.531	18471
866.662	18429
866.793	18547
866.924	18536
867.055	18441
867.186	18498
867.317	18422
867.448	18399
867.579	18437
867.71	18441
867.841	18395
867.972	18471
868.103	18498
868.233	18460
868.364	18578
868.495	18521
868.625	18768
868.756	18810
868.886	18726
869.017	18673
869.147	18852
869.278	18825
869.408	18715
869.539	18707
869.669	18745
869.799	18692
869.929	18837
870.06	18783
870.19	19000
870.32	19000
870.45	19069
870.58	19019
870.71	19274
870.84	19297
870.97	19152
871.1	19023
871.23	19343
871.36	19282
871.489	19206
871.619	19343
871.749	19350
871.879	19384
872.008	19445
872.138	19244
872.267	19247
872.397	19202
872.526	19278
872.656	19175
872.785	19091
872.915	19343
873.044	19369
873.173	19377
873.303	19365
873.432	19422
873.561	19502
873.69	19343
873.819	19297
873.948	19419
874.077	19373
874.206	19232
874.335	19438
874.464	19544
874.593	19693
874.722	19537
874.851	19696
874.979	19594
875.108	19639
875.237	19548
875.365	19556
875.494	19575
875.623	19567
875.751	19582
875.88	19624
876.008	19731
876.136	19909
876.265	20225
876.393	20130
876.521	20092
876.65	20001
876.778	20100
876.906	19955
877.034	20035
877.162	19925
877.29	19887
877.418	19974
877.546	19940
877.674	19940
877.802	20138
877.93	20020
878.058	19970
878.185	19986
878.313	19963
878.441	20054
878.568	19727
878.696	19909
878.824	19970
878.951	20115
879.079	20187
879.206	20256
879.333	20168
879.461	20119
879.588	20092
879.715	20187
879.842	20313
879.97	20027
880.097	19864
880.224	19799
880.351	19890
880.478	19982
880.605	19818
880.732	19803
880.859	20039
880.986	19898
881.112	19841
881.239	19788
881.366	19491
881.493	19514
881.619	19441
881.746	19529
881.872	19362
881.999	19354
882.125	19468
882.252	19521
882.378	19476
882.505	19609
882.631	19308
882.757	19232
882.883	19285
883.01	19225
883.136	19236
883.262	19091
883.388	19118
883.514	19362
883.64	19327
883.766	19164
883.892	18962
884.018	19034
884.143	19148
884.269	19312
884.395	19080
884.52	18894
884.646	18913
884.772	18825
884.897	18760
885.023	18878
885.148	18878
885.274	18989
885.399	18943
885.524	18859
885.65	18935
885.775	18852
885.9	18776
886.025	18981
886.15	18951
886.275	18757
886.4	18730
886.525	18840
886.65	18901
886.775	18665
886.9	19027
887.025	19099
887.149	18954
887.274	18646
887.399	18597
887.523	18692
887.648	18528
887.773	18486
887.897	18722
888.021	18692
888.146	18486
888.27	18673
888.395	18673
888.519	18726
888.643	18536
888.767	18692
888.891	18578
889.015	18452
889.139	18441
889.263	18429
889.387	18608
889.511	18654
889.635	18589
889.759	18452
889.883	18608
890.006	18418
890.13	18604
890.254	18357
890.377	18418
890.501	18194
890.624	18311
890.748	18281
890.871	18167
890.995	18064
891.118	17988
891.241	18098
891.364	18140
891.488	18129
891.611	18064
891.734	18121
891.857	18121
891.98	18076
892.103	18064
892.226	18095
892.349	18121
892.471	17935
892.594	17984
892.717	18030
892.839	18011
892.962	18049
893.085	18064
893.207	18079
893.33	17889
893.452	17969
893.575	18121
893.697	18038
893.819	18346
893.941	18315
894.064	18197
894.186	18038
894.308	17901
894.43	18152
894.552	18254
894.674	18114
894.796	18007
894.918	18011
895.04	17961
895.161	18117
895.283	18133
895.405	18060
895.526	18068
895.648	18053
895.769	18102
895.891	18121
896.012	18243
896.134	18190
896.255	18133
896.376	17977
896.498	18148
896.619	18133
896.74	18194
896.861	18220
896.982	18448
897.103	18696
897.224	18502
897.345	18304
897.466	18342
897.587	18445
897.708	18365
897.828	18346
897.949	18194
898.07	18140
898.19	18300
898.311	18525
898.431	18285
898.552	18372
898.672	18338
898.792	18410
898.913	18330
899.033	18266
899.153	18076
899.273	17992
899.393	17999
899.513	18087
899.633	18186
899.753	18098
899.873	17958
899.993	18174
900.113	18079
900.232	18064
900.352	18022
900.472	18019
900.591	17802
900.711	17870
900.83	17866
900.95	17946
901.069	17908
901.189	17832
901.308	17619
901.427	17501
901.546	17516
901.665	17535
901.784	17532
901.904	17402
902.023	17288
902.141	17185
902.26	17067
902.379	17159
902.498	17037
902.617	16953
902.735	17025
902.854	17045
902.973	16946
903.091	16790
903.21	16668
903.328	16721
903.446	16558
903.565	16561
903.683	16569
903.801	16516
903.919	16569
904.038	16508
904.156	16291
904.274	16382
904.392	16421
904.51	16356
904.627	16348
904.745	16371
904.863	16360
904.981	16116
905.098	16059
905.216	15972
905.334	16059
905.451	15968
905.569	15998
905.686	16059
905.803	16017
905.921	15743
906.038	15835
906.155	15675
906.272	15720
906.389	15679
906.506	15644
906.623	15580
906.74	15576
906.857	15408
906.974	15435
907.091	15686
907.208	15660
907.324	15523
907.441	15488
907.557	15298
907.674	15298
907.79	15264
907.907	15123
908.023	15287
908.139	15188
908.256	15188
908.372	15116
908.488	15146
908.604	14952
908.72	14883
908.836	15036
908.952	14990
909.068	14941
909.184	15036
909.3	14944
909.415	14948
909.531	15051
909.647	14731
909.762	14598
909.878	14549
909.993	14708
910.108	14549
910.224	14606
910.339	14697
910.454	14488
910.57	14480
910.685	14347
910.8	14659
910.915	14682
911.03	14549
911.145	14267
911.259	14339
911.374	14244
911.489	14180
911.604	14153
911.718	13989
911.833	14092
911.947	13936
912.062	13883
912.176	13967
912.291	13989
912.405	14005
912.519	14138
912.633	14153
912.748	14016
912.862	13917
912.976	13852
913.09	13727
913.204	13769
913.318	13837
913.431	13974
913.545	13921
913.659	13917
913.772	13788
913.886	13620
914	13647
914.113	13772
914.226	13841
914.34	13632
914.453	13594
914.566	13696
914.68	13708
914.793	13575
914.906	13449
915.019	13434
915.132	13263
915.245	13278
915.358	13354
915.47	13422
915.583	13464
915.696	13373
915.809	13480
915.921	13502
916.034	13278
916.146	13259
916.259	13190
916.371	13278
916.483	13362
916.595	13187
916.708	13213
916.82	13217
916.932	13175
917.044	13164
917.156	13160
917.268	13080
917.38	12973
917.491	13053
917.603	13042
917.715	13190
917.826	13145
917.938	13126
918.049	12928
918.161	13000
918.272	13194
918.384	13175
918.495	13076
918.606	12939
918.717	12867
918.828	12875
918.939	12916
919.05	12795
919.161	12817
919.272	12726
919.383	12730
919.494	12852
919.604	13061
919.715	12916
919.826	12696
919.936	12745
920.047	12814
920.157	12825
920.267	13023
920.378	12909
920.488	12776
920.598	12993
920.708	13190
920.818	13053
920.928	12943
921.038	13012
921.148	13171
921.258	12726
921.368	12604
921.477	12445
921.587	12540
921.697	12418
921.806	12673
921.916	12452
922.025	12304
922.134	12254
922.244	12178
922.353	12163
922.462	12144
922.571	12003
922.68	11984
922.789	11760
922.898	11923
923.007	11802
923.116	11916
923.224	11859
923.333	11878
923.442	11745
923.55	11688
923.659	11745
923.767	11897
923.876	11634
923.984	11680
924.092	11722
924.201	11680
924.309	11767
924.417	11729
924.525	11581
924.633	11737
924.741	12593
924.849	11398
924.956	11551
925.064	11376
925.172	11273
925.279	11322
925.387	11444
925.494	11433
925.602	11551
925.709	11433
925.816	11356
925.924	11429
926.031	11467
926.138	11296
926.245	11448
926.352	11296
926.459	11448
926.566	11433
926.673	11376
926.779	11204
926.886	11201
926.993	11010
927.099	11003
927.206	10957
927.312	11029
927.419	11060
927.525	11025
927.631	11052
927.737	11033
927.843	10949
927.95	10843
928.056	10900
928.162	10900
928.267	10889
928.373	11619
928.479	10995
928.585	10710
928.69	10923
928.796	10923
928.901	10752
929.007	10622
929.112	10809
929.218	10714
929.323	10626
929.428	10668
929.533	10748
929.638	10516
929.743	10615
929.848	10584
929.953	10535
930.058	10542
930.163	10318
930.267	10344
930.372	10550
930.477	10325
930.581	10573
930.685	10348
930.79	10246
930.894	10268
930.998	10169
931.103	10329
931.207	9994
931.311	9994
931.415	9869
931.519	9705
931.623	9652
