Data from test_V78500241_2812.txt Node
Date: Fri Mar 25 15:29:26 CST 2022
User: usil
Spectrometer: V785-0024
Trigger mode: 0
Integration Time (sec): 4.000000E-1
Scans to average: 1
Nonlinearity correction enabled: false
Boxcar width: 0
Storing dark spectrum: false
XAxis mode: Wavelengths
Number of Pixels in Spectrum: 1024
>>>>>Begin Spectral Data<<<<<
801.071	27192
801.214	27127
801.356	26952
801.499	26948
801.641	26731
801.783	26746
801.926	26914
802.068	26693
802.211	26667
802.353	26606
802.496	26492
802.638	26450
802.78	26286
802.923	26183
803.065	26233
803.208	26225
803.35	26278
803.492	26446
803.635	26419
803.777	26507
803.919	26438
804.061	26743
804.204	26514
804.346	26480
804.488	26351
804.63	26617
804.773	26427
804.915	26400
805.057	26640
805.199	26438
805.341	26511
805.483	26720
805.626	26663
805.768	26465
805.91	26785
806.052	26575
806.194	26663
806.336	26845
806.478	26613
806.62	26651
806.762	26750
806.904	26864
807.046	27188
807.188	27119
807.33	26998
807.472	27024
807.614	26918
807.756	27005
807.898	26838
808.04	26906
808.182	26792
808.324	26918
808.465	26990
808.607	27028
808.749	27157
808.891	27176
809.033	27302
809.174	27192
809.316	27302
809.458	27363
809.6	27123
809.741	27310
809.883	27382
810.025	27431
810.166	27515
810.308	27447
810.45	27580
810.591	27397
810.733	27199
810.875	27214
811.016	27127
811.158	27222
811.299	27283
811.441	27458
811.582	27488
811.724	27173
811.865	27283
812.007	27135
812.148	27169
812.29	27154
812.431	27412
812.573	27603
812.714	27542
812.855	27629
812.997	27701
813.138	27892
813.279	27865
813.421	27736
813.562	27583
813.703	27469
813.845	27435
813.986	27013
814.127	26880
814.268	26762
814.41	26929
814.551	26861
814.692	26910
814.833	26883
814.974	26868
815.115	26864
815.256	26727
815.397	26823
815.539	26735
815.68	26667
815.821	26678
815.962	26689
816.103	26659
816.244	26446
816.385	26457
816.526	26453
816.666	26248
816.807	26119
816.948	26233
817.089	26317
817.23	26138
817.371	26187
817.512	26119
817.653	26088
817.793	25997
817.934	26130
818.075	26263
818.216	26233
818.356	26027
818.497	25845
818.638	25845
818.778	26008
818.919	25868
819.06	25887
819.2	25989
819.341	26096
819.481	26062
819.622	26183
819.762	26431
819.903	26328
820.043	26202
820.184	26343
820.324	26221
820.465	26294
820.605	26298
820.746	26145
820.886	26161
821.026	26187
821.167	26252
821.307	26172
821.447	26176
821.588	26065
821.728	25841
821.868	25651
822.008	25483
822.149	25567
822.289	25525
822.429	25251
822.569	25164
822.709	25255
822.849	25179
822.99	25072
823.13	25156
823.27	25088
823.41	25004
823.55	24764
823.69	25034
823.83	24985
823.97	24837
824.11	24787
824.25	24719
824.389	24642
824.529	24886
824.669	24757
824.809	24810
824.949	24909
825.089	24715
825.228	24669
825.368	24494
825.508	24502
825.648	24673
825.787	24753
825.927	24719
826.067	24555
826.206	24536
826.346	24654
826.485	24551
826.625	24464
826.765	24597
826.904	24726
827.044	24334
827.183	24330
827.323	24300
827.462	24338
827.601	24361
827.741	24243
827.88	24247
828.02	24136
828.159	24174
828.298	24216
828.437	24315
828.577	24243
828.716	24426
828.855	24106
828.994	24018
829.134	23965
829.273	24003
829.412	23996
829.551	23893
829.69	23958
829.829	23977
829.968	23946
830.107	24079
830.246	23999
830.385	23954
830.524	23874
830.663	23756
830.802	23767
830.941	23657
831.08	23657
831.219	23653
831.357	23608
831.496	23798
831.635	23695
831.774	23471
831.913	23486
832.051	23254
832.19	23364
832.329	23368
832.467	23395
832.606	23239
832.744	23140
832.883	23208
833.022	23220
833.16	23322
833.299	23421
833.437	23318
833.576	23341
833.714	23280
833.852	23383
833.991	23326
834.129	23307
834.267	23288
834.406	23356
834.544	23311
834.682	23410
834.821	23307
834.959	23303
835.097	23307
835.235	23349
835.373	23239
835.511	23280
835.65	23258
835.788	23250
835.926	23022
836.064	22930
836.202	23014
836.34	23200
836.478	23269
836.615	23090
836.753	23147
836.891	23216
837.029	23090
837.167	23117
837.305	23067
837.443	22927
837.58	22934
837.718	23060
837.856	22984
837.993	22946
838.131	22930
838.269	22793
838.406	22980
838.544	22843
838.681	22615
838.819	22687
838.956	22478
839.094	22428
839.231	22557
839.369	22698
839.506	22927
839.643	22710
839.781	22519
839.918	22470
840.055	22470
840.193	22360
840.33	22478
840.467	22333
840.604	22459
840.742	22691
840.879	22402
841.016	22440
841.153	22226
841.29	22470
841.427	22367
841.564	22402
841.701	22493
841.838	22272
841.975	22367
842.112	22375
842.249	22318
842.385	22268
842.522	22546
842.659	22249
842.796	22226
842.933	22272
843.069	22128
843.206	22135
843.343	22249
843.479	22135
843.616	22093
843.752	21945
843.889	21899
844.025	22078
844.162	21953
844.298	22036
844.435	21926
844.571	21774
844.708	22010
844.844	21945
844.98	21998
845.117	22063
845.253	21812
845.389	21831
845.525	21876
845.661	21903
845.798	21770
845.934	21656
846.07	21595
846.206	21720
846.342	21781
846.478	21614
846.614	21473
846.75	21393
846.886	21401
847.022	21523
847.158	21408
847.294	21469
847.429	21504
847.565	21367
847.701	21648
847.837	21146
847.972	21161
848.108	21192
848.244	21142
848.379	21058
848.515	21100
848.65	20994
848.786	20986
848.921	21028
849.057	21100
849.192	21100
849.328	21096
849.463	20998
849.598	20960
849.734	20864
849.869	20872
850.004	20735
850.14	20876
850.275	20705
850.41	20678
850.545	20659
850.68	20670
850.815	20895
850.95	20739
851.085	20941
851.22	20838
851.355	20872
851.49	20830
851.625	20762
851.76	20769
851.895	20697
852.03	20712
852.165	20689
852.299	20899
852.434	20971
852.569	20834
852.703	20716
852.838	20800
852.973	20880
853.107	20944
853.242	20731
853.376	20587
853.511	20533
853.645	20568
853.78	20781
853.914	20522
854.048	20473
854.183	20583
854.317	20689
854.451	20773
854.585	20507
854.72	20644
854.854	20629
854.988	20560
855.122	20701
855.256	20431
855.39	20625
855.524	20644
855.658	20674
855.792	20526
855.926	20659
856.06	20590
856.194	20651
856.327	20697
856.461	20461
856.595	20545
856.729	20526
856.862	20796
856.996	20571
857.13	20659
857.263	20667
857.397	20735
857.53	20667
857.664	20594
857.797	20781
857.931	20648
858.064	20621
858.197	20667
858.331	20705
858.464	20484
858.597	20457
858.731	20575
858.864	20560
858.997	20533
859.13	20564
859.263	20587
859.396	20739
859.529	20545
859.662	20579
859.795	20419
859.928	20636
860.061	20777
860.194	20910
860.327	20636
860.46	20549
860.592	20617
860.725	20849
860.858	20716
860.99	20670
861.123	20537
861.256	20511
861.388	20609
861.521	21154
861.653	20457
861.786	20355
861.918	20465
862.05	20526
862.183	20602
862.315	20450
862.447	20537
862.58	20518
862.712	20339
862.844	20320
862.976	20484
863.108	20412
863.24	20876
863.372	20358
863.504	20240
863.636	20263
863.768	20423
863.9	20244
864.032	20134
864.164	20358
864.296	20358
864.428	20511
864.559	20370
864.691	20347
864.823	20256
864.954	20305
865.086	20389
865.217	20415
865.349	20149
865.48	20191
865.612	20229
865.743	20358
865.875	20248
866.006	20286
866.137	20240
866.269	20195
866.4	20103
866.531	20039
866.662	20081
866.793	20180
866.924	20172
867.055	20237
867.186	20100
867.317	20149
867.448	20027
867.579	20039
867.71	20210
867.841	20062
867.972	20244
868.103	20088
868.233	20142
868.364	20145
868.495	20195
868.625	20305
868.756	20431
868.886	20419
869.017	20374
869.147	20450
869.278	20518
869.408	20389
869.539	20408
869.669	20488
869.799	20465
869.929	20450
870.06	20537
870.19	20701
870.32	20667
870.45	20823
870.58	20655
870.71	20880
870.84	20815
870.97	20739
871.1	20655
871.23	21070
871.36	20906
871.489	20967
871.619	21047
871.749	21131
871.879	21032
872.008	21047
872.138	21028
872.267	21024
872.397	20735
872.526	20743
872.656	20800
872.785	20895
872.915	20910
873.044	21013
873.173	21001
873.303	21074
873.432	21047
873.561	21104
873.69	21066
873.819	20819
873.948	21150
874.077	21093
874.206	20857
874.335	20986
874.464	21142
874.593	21332
874.722	21214
874.851	21401
874.979	21363
875.108	21386
875.237	21298
875.365	21176
875.494	21222
875.623	21230
875.751	21211
875.88	21245
876.008	21408
876.136	21507
876.265	21694
876.393	21816
876.521	21622
876.65	21785
876.778	21793
876.906	21568
877.034	21492
877.162	21663
877.29	21652
877.418	21682
877.546	21595
877.674	21614
877.802	21759
877.93	21652
878.058	21564
878.185	21462
878.313	21568
878.441	21542
878.568	21530
878.696	21473
878.824	21709
878.951	21698
879.079	21762
879.206	21903
879.333	21876
879.461	21686
879.588	21644
879.715	21800
879.842	21960
879.97	21823
880.097	21416
880.224	21500
880.351	21504
880.478	21412
880.605	21393
880.732	21458
880.859	21663
880.986	21542
881.112	21488
881.239	21378
881.366	21222
881.493	21142
881.619	20948
881.746	21043
881.872	21070
881.999	21028
882.125	21051
882.252	21093
882.378	20982
882.505	21127
882.631	20895
882.757	20830
882.883	20891
883.01	20739
883.136	20644
883.262	20609
883.388	20663
883.514	20842
883.64	20762
883.766	20609
883.892	20450
884.018	20552
884.143	20651
884.269	20792
884.395	20571
884.52	20305
884.646	20370
884.772	20415
884.897	20286
885.023	20313
885.148	20400
885.274	20613
885.399	20370
885.524	20256
885.65	20366
885.775	20423
885.9	20374
886.025	20461
886.15	20358
886.275	20389
886.4	20225
886.525	20377
886.65	20313
886.775	20305
886.9	20488
887.025	20522
887.149	20355
887.274	20218
887.399	20069
887.523	20183
887.648	20054
887.773	19955
887.897	20202
888.021	20210
888.146	20153
888.27	20202
888.395	20301
888.519	20183
888.643	20210
888.767	20168
888.891	20096
889.015	19909
889.139	20035
889.263	19947
889.387	20134
889.511	20176
889.635	20180
889.759	19932
889.883	19906
890.006	19936
890.13	19944
890.254	19871
890.377	19830
890.501	19811
890.624	19788
890.748	19799
890.871	19628
890.995	19620
891.118	19502
891.241	19563
891.364	19624
891.488	19670
891.611	19567
891.734	19651
891.857	19632
891.98	19483
892.103	19597
892.226	19540
892.349	19476
892.471	19331
892.594	19441
892.717	19453
892.839	19457
892.962	19441
893.085	19499
893.207	19445
893.33	19350
893.452	19422
893.575	19582
893.697	19422
893.819	19533
893.941	19544
894.064	19597
894.186	19449
894.308	19483
894.43	19609
894.552	19613
894.674	19521
894.796	19396
894.918	19521
895.04	19449
895.161	19495
895.283	19647
895.405	19419
895.526	19533
895.648	19468
895.769	19388
895.891	19518
896.012	19476
896.134	19620
896.255	19529
896.376	19476
896.498	19590
896.619	19502
896.74	19403
896.861	19521
896.982	19940
897.103	19906
897.224	19849
897.345	19784
897.466	19655
897.587	19696
897.708	19841
897.828	19731
897.949	19613
898.07	19567
898.19	19590
898.311	19864
898.431	19616
898.552	19670
898.672	19849
898.792	19852
898.913	19750
899.033	19590
899.153	19628
899.273	19460
899.393	19480
899.513	19480
899.633	19537
899.753	19495
899.873	19441
899.993	19510
900.113	19339
900.232	19415
900.352	19343
900.472	19381
900.591	19244
900.711	19381
900.83	19175
900.95	19339
901.069	19312
901.189	19152
901.308	18935
901.427	18863
901.546	18859
901.665	18844
901.784	18875
901.904	18829
902.023	18677
902.141	18410
902.26	18464
902.379	18460
902.498	18414
902.617	18289
902.735	18464
902.854	18357
902.973	18319
903.091	18053
903.21	17984
903.328	18155
903.446	18064
903.565	17916
903.683	17901
903.801	17817
903.919	17786
904.038	17676
904.156	17661
904.274	17802
904.392	17745
904.51	17615
904.627	17615
904.745	17623
904.863	17608
904.981	17501
905.098	17231
905.216	17383
905.334	17265
905.451	17265
905.569	17090
905.686	17341
905.803	17330
905.921	17018
906.038	17136
906.155	17132
906.272	16946
906.389	17052
906.506	16968
906.623	16801
906.74	16828
906.857	16816
906.974	16725
907.091	16968
907.208	16953
907.324	16759
907.441	16778
907.557	16561
907.674	16542
907.79	16554
907.907	16603
908.023	16618
908.139	16569
908.256	16508
908.372	16432
908.488	16299
908.604	16333
908.72	16287
908.836	16322
908.952	16265
909.068	16341
909.184	16375
909.3	16272
909.415	16234
909.531	16219
909.647	16055
909.762	15960
909.878	15979
909.993	16010
910.108	15983
910.224	15953
910.339	15968
910.454	15937
910.57	15831
910.685	15854
910.8	16010
910.915	15949
911.03	15747
911.145	15648
911.259	15580
911.374	15584
911.489	15580
911.604	15454
911.718	15321
911.833	15302
911.947	15291
912.062	15192
912.176	15428
912.291	15504
912.405	15469
912.519	15656
912.633	15553
912.748	15329
912.862	15268
912.976	15199
913.09	15051
913.204	15127
913.318	15203
913.431	15310
913.545	15249
913.659	15237
913.772	15009
913.886	15036
914	14914
914.113	15039
914.226	15119
914.34	14971
914.453	14895
914.566	14963
914.68	14830
914.793	14902
914.906	14705
915.019	14670
915.132	14594
915.245	14610
915.358	14629
915.47	14594
915.583	14537
915.696	14564
915.809	14731
915.921	14781
916.034	14552
916.146	14541
916.259	14488
916.371	14556
916.483	14518
916.595	14442
916.708	14457
916.82	14446
916.932	14431
917.044	14259
917.156	14454
917.268	14305
917.38	14343
917.491	14336
917.603	14328
917.715	14339
917.826	14389
917.938	14267
918.049	14073
918.161	14115
918.272	14374
918.384	14339
918.495	14119
918.606	14119
918.717	13986
918.828	14153
918.939	14100
919.05	13997
919.161	14024
919.272	13715
919.383	13894
919.494	14119
919.604	14286
919.715	14016
919.826	14054
919.936	13947
920.047	13959
920.157	13978
920.267	14221
920.378	14005
920.488	14050
920.598	14240
920.708	14343
920.818	14187
920.928	14145
921.038	14328
921.148	14244
921.258	13986
921.368	13887
921.477	13837
921.587	13738
921.697	13616
921.806	13845
921.916	13594
922.025	13480
922.134	13495
922.244	13327
922.353	13460
922.462	13225
922.571	13289
922.68	13209
922.789	13061
922.898	13160
923.007	13023
923.116	13046
923.224	13046
923.333	13046
923.442	12924
923.55	12867
923.659	12928
923.767	12981
923.876	12897
923.984	12875
924.092	12829
924.201	12852
924.309	12875
924.417	12837
924.525	12798
924.633	12844
924.741	13525
924.849	12589
924.956	12696
925.064	12506
925.172	12429
925.279	12479
925.387	12471
925.494	12506
925.602	12623
925.709	12563
925.816	12464
925.924	12506
926.031	12521
926.138	12448
926.245	12486
926.352	12365
926.459	12429
926.566	12578
926.673	12380
926.779	12281
926.886	12258
926.993	12247
927.099	12057
927.206	12041
927.312	12114
927.419	12171
927.525	12110
927.631	12091
927.737	11973
927.843	11984
927.95	11855
928.056	11832
928.162	11908
928.267	11958
928.373	12646
928.479	11958
928.585	11741
928.69	11813
928.796	11878
928.901	11794
929.007	11707
929.112	11882
929.218	11767
929.323	11680
929.428	11695
929.533	11790
929.638	11619
929.743	11539
929.848	11680
929.953	11615
930.058	11482
930.163	11326
930.267	11318
930.372	11474
930.477	11387
930.581	11509
930.685	11345
930.79	11246
930.894	11265
930.998	11242
931.103	11368
931.207	11098
931.311	10877
931.415	10858
931.519	10645
931.623	10653
