Data from test_V78500241_3148.txt Node
Date: Fri Mar 25 15:31:46 CST 2022
User: usil
Spectrometer: V785-0024
Trigger mode: 0
Integration Time (sec): 4.000000E-1
Scans to average: 1
Nonlinearity correction enabled: false
Boxcar width: 0
Storing dark spectrum: false
XAxis mode: Wavelengths
Number of Pixels in Spectrum: 1024
>>>>>Begin Spectral Data<<<<<
801.071	27142
801.214	27188
801.356	26914
801.499	26830
801.641	26750
801.783	26796
801.926	26800
802.068	26682
802.211	26659
802.353	26644
802.496	26621
802.638	26412
802.78	26309
802.923	26278
803.065	26275
803.208	26305
803.35	26370
803.492	26381
803.635	26579
803.777	26499
803.919	26522
804.061	26811
804.204	26609
804.346	26579
804.488	26442
804.63	26476
804.773	26473
804.915	26530
805.057	26724
805.199	26651
805.341	26507
805.483	26712
805.626	26644
805.768	26499
805.91	26686
806.052	26670
806.194	26705
806.336	26762
806.478	26560
806.62	26571
806.762	26697
806.904	26960
807.046	27096
807.188	27070
807.33	27195
807.472	27055
807.614	26960
807.756	27024
807.898	26975
808.04	26842
808.182	26857
808.324	27020
808.465	26883
808.607	27028
808.749	27157
808.891	27344
809.033	27393
809.174	27264
809.316	27287
809.458	27169
809.6	27233
809.741	27496
809.883	27241
810.025	27564
810.166	27466
810.308	27542
810.45	27564
810.591	27393
810.733	27359
810.875	27241
811.016	27169
811.158	27058
811.299	27389
811.441	27325
811.582	27424
811.724	27218
811.865	27142
812.007	27237
812.148	27241
812.29	27340
812.431	27313
812.573	27420
812.714	27660
812.855	27671
812.997	27747
813.138	27892
813.279	27831
813.421	27667
813.562	27599
813.703	27477
813.845	27439
813.986	27036
814.127	27108
814.268	26876
814.41	27009
814.551	27020
814.692	27047
814.833	26838
814.974	26826
815.115	26807
815.256	26708
815.397	26697
815.539	26819
815.68	26632
815.821	26583
815.962	26720
816.103	26568
816.244	26533
816.385	26412
816.526	26446
816.666	26210
816.807	25966
816.948	26164
817.089	26233
817.23	26229
817.371	26278
817.512	26134
817.653	26195
817.793	26077
817.934	26077
818.075	26054
818.216	26161
818.356	26020
818.497	26008
818.638	26008
818.778	25959
818.919	25811
819.06	25986
819.2	26065
819.341	26130
819.481	26062
819.622	26317
819.762	26457
819.903	26393
820.043	26404
820.184	26210
820.324	26294
820.465	26259
820.605	26153
820.746	26252
820.886	26012
821.026	26195
821.167	26153
821.307	26377
821.447	26199
821.588	26035
821.728	25852
821.868	25780
822.008	25582
822.149	25708
822.289	25578
822.429	25316
822.569	25297
822.709	25403
822.849	25091
822.99	25061
823.13	25145
823.27	25099
823.41	24958
823.55	24856
823.69	25034
823.83	24985
823.97	24973
824.11	24726
824.25	24696
824.389	24795
824.529	24833
824.669	24798
824.809	24901
824.949	24779
825.089	24852
825.228	24620
825.368	24665
825.508	24597
825.648	24540
825.787	24631
825.927	24650
826.067	24734
826.206	24570
826.346	24604
826.485	24616
826.625	24608
826.765	24711
826.904	24715
827.044	24479
827.183	24486
827.323	24433
827.462	24429
827.601	24365
827.741	24361
827.88	24323
828.02	24266
828.159	24330
828.298	24315
828.437	24429
828.577	24361
828.716	24372
828.855	24224
828.994	24159
829.134	23984
829.273	24182
829.412	24049
829.551	23916
829.69	23977
829.829	24114
829.968	24213
830.107	24011
830.246	24011
830.385	24011
830.524	23973
830.663	23863
830.802	23874
830.941	23600
831.08	23630
831.219	23722
831.357	23726
831.496	23821
831.635	23573
831.774	23615
831.913	23577
832.051	23600
832.19	23398
832.329	23455
832.467	23349
832.606	23337
832.744	23341
832.883	23345
833.022	23311
833.16	23455
833.299	23402
833.437	23337
833.576	23414
833.714	23505
833.852	23520
833.991	23436
834.129	23372
834.267	23501
834.406	23372
834.544	23429
834.682	23326
834.821	23387
834.959	23516
835.097	23239
835.235	23433
835.373	23246
835.511	23345
835.65	23239
835.788	23303
835.926	23083
836.064	22911
836.202	23113
836.34	23220
836.478	23227
836.615	23132
836.753	23296
836.891	23204
837.029	23288
837.167	23105
837.305	23178
837.443	23060
837.58	23086
837.718	23181
837.856	23235
837.993	22980
838.131	23124
838.269	23041
838.406	22930
838.544	22858
838.681	22748
838.819	22736
838.956	22618
839.094	22550
839.231	22637
839.369	22809
839.506	23090
839.643	22748
839.781	22740
839.918	22512
840.055	22664
840.193	22577
840.33	22557
840.467	22516
840.604	22527
840.742	22835
840.879	22409
841.016	22432
841.153	22363
841.29	22592
841.427	22493
841.564	22523
841.701	22466
841.838	22436
841.975	22379
842.112	22379
842.249	22379
842.385	22226
842.522	22451
842.659	22356
842.796	22291
842.933	22238
843.069	22223
843.206	22238
843.343	22234
843.479	22341
843.616	22299
843.752	22025
843.889	22135
844.025	22162
844.162	21975
844.298	22101
844.435	22002
844.571	21979
844.708	22147
844.844	22139
844.98	22150
845.117	22147
845.253	22082
845.389	21838
845.525	21949
845.661	21876
845.798	21736
845.934	21759
846.07	21838
846.206	21797
846.342	21926
846.478	21911
846.614	21648
846.75	21549
846.886	21469
847.022	21633
847.158	21580
847.294	21439
847.429	21481
847.565	21481
847.701	21675
847.837	21154
847.972	21233
848.108	21298
848.244	21298
848.379	21154
848.515	20975
848.65	21116
848.786	21127
848.921	21070
849.057	21241
849.192	21157
849.328	21055
849.463	21096
849.598	21066
849.734	21039
849.869	20944
850.004	20819
850.14	20910
850.275	20899
850.41	20777
850.545	20891
850.68	20861
850.815	21039
850.95	21043
851.085	21058
851.22	20979
851.355	20929
851.49	20845
851.625	20819
851.76	20906
851.895	20880
852.03	20823
852.165	20910
852.299	20948
852.434	20910
852.569	20868
852.703	20861
852.838	20975
852.973	21020
853.107	20967
853.242	20830
853.376	20750
853.511	20686
853.645	20682
853.78	20899
853.914	20750
854.048	20785
854.183	20655
854.317	20689
854.451	20853
854.585	20727
854.72	20667
854.854	20781
854.988	20583
855.122	20804
855.256	20571
855.39	20716
855.524	20834
855.658	20838
855.792	20762
855.926	20617
856.06	20667
856.194	20902
856.327	20746
856.461	20590
856.595	20522
856.729	20632
856.862	20781
856.996	20659
857.13	20686
857.263	20769
857.397	20834
857.53	20625
857.664	20743
857.797	20743
857.931	20807
858.064	20823
858.197	20902
858.331	20686
858.464	20651
858.597	20549
858.731	20727
858.864	20632
858.997	20552
859.13	20655
859.263	20765
859.396	20785
859.529	20621
859.662	20750
859.795	20575
859.928	20686
860.061	20705
860.194	20811
860.327	20857
860.46	20663
860.592	20933
860.725	20792
860.858	20838
860.99	20632
861.123	20609
861.256	20606
861.388	20621
861.521	21317
861.653	20781
861.786	20431
861.918	20587
862.05	20674
862.183	20583
862.315	20651
862.447	20727
862.58	20511
862.712	20374
862.844	20389
862.976	20476
863.108	20537
863.24	20826
863.372	20290
863.504	20366
863.636	20336
863.768	20484
863.9	20374
864.032	20377
864.164	20374
864.296	20366
864.428	20541
864.559	20427
864.691	20476
864.823	20446
864.954	20332
865.086	20301
865.217	20324
865.349	20210
865.48	20301
865.612	20370
865.743	20492
865.875	20317
866.006	20294
866.137	20381
866.269	20263
866.4	20305
866.531	20275
866.662	20191
866.793	20248
866.924	20172
867.055	20225
867.186	20278
867.317	20282
867.448	20187
867.579	20259
867.71	20153
867.841	20115
867.972	20271
868.103	20252
868.233	20351
868.364	20271
868.495	20374
868.625	20511
868.756	20686
868.886	20423
869.017	20343
869.147	20564
869.278	20651
869.408	20518
869.539	20484
869.669	20541
869.799	20659
869.929	20693
870.06	20507
870.19	20864
870.32	20834
870.45	20769
870.58	20826
870.71	20960
870.84	21032
870.97	20925
871.1	20929
871.23	21119
871.36	21108
871.489	20994
871.619	21028
871.749	21108
871.879	21074
872.008	21184
872.138	21119
872.267	21135
872.397	20963
872.526	20899
872.656	20941
872.785	20990
872.915	21036
873.044	21203
873.173	21161
873.303	21112
873.432	21123
873.561	21112
873.69	21081
873.819	21161
873.948	21165
874.077	21157
874.206	21077
874.335	21192
874.464	21195
874.593	21378
874.722	21291
874.851	21500
874.979	21397
875.108	21485
875.237	21355
875.365	21294
875.494	21439
875.623	21397
875.751	21287
875.88	21450
876.008	21618
876.136	21542
876.265	21770
876.393	22021
876.521	22021
876.65	21827
876.778	21808
876.906	21648
877.034	21717
877.162	21732
877.29	21644
877.418	21778
877.546	21599
877.674	21686
877.802	21789
877.93	21694
878.058	21542
878.185	21572
878.313	21610
878.441	21713
878.568	21492
878.696	21759
878.824	21789
878.951	21759
879.079	21918
879.206	22036
879.333	21918
879.461	21808
879.588	21816
879.715	21869
879.842	22044
879.97	21941
880.097	21534
880.224	21424
880.351	21564
880.478	21530
880.605	21481
880.732	21526
880.859	21739
880.986	21504
881.112	21557
881.239	21386
881.366	21317
881.493	21150
881.619	21108
881.746	21131
881.872	21176
881.999	21070
882.125	21024
882.252	21131
882.378	21131
882.505	21252
882.631	20948
882.757	20876
882.883	20971
883.01	20910
883.136	20781
883.262	20678
883.388	20613
883.514	20910
883.64	20929
883.766	20830
883.892	20731
884.018	20606
884.143	20823
884.269	20845
884.395	20537
884.52	20473
884.646	20564
884.772	20568
884.897	20465
885.023	20488
885.148	20545
885.274	20609
885.399	20629
885.524	20438
885.65	20450
885.775	20537
885.9	20503
886.025	20598
886.15	20564
886.275	20480
886.4	20313
886.525	20488
886.65	20469
886.775	20400
886.9	20648
887.025	20587
887.149	20419
887.274	20305
887.399	20237
887.523	20267
887.648	20244
887.773	20210
887.897	20309
888.021	20248
888.146	20130
888.27	20309
888.395	20309
888.519	20290
888.643	20385
888.767	20427
888.891	20092
889.015	20065
889.139	20138
889.263	20005
889.387	20183
889.511	20275
889.635	20142
889.759	20134
889.883	19925
890.006	20130
890.13	20225
890.254	19925
890.377	20039
890.501	19761
890.624	19898
890.748	19807
890.871	19670
890.995	19681
891.118	19590
891.241	19635
891.364	19761
891.488	19753
891.611	19662
891.734	19635
891.857	19666
891.98	19666
892.103	19750
892.226	19632
892.349	19514
892.471	19403
892.594	19613
892.717	19578
892.839	19529
892.962	19643
893.085	19609
893.207	19571
893.33	19365
893.452	19529
893.575	19670
893.697	19464
893.819	19696
893.941	19761
894.064	19712
894.186	19605
894.308	19575
894.43	19628
894.552	19696
894.674	19544
894.796	19441
894.918	19605
895.04	19483
895.161	19578
895.283	19556
895.405	19445
895.526	19491
895.648	19578
895.769	19651
895.891	19639
896.012	19609
896.134	19544
896.255	19556
896.376	19605
896.498	19635
896.619	19525
896.74	19601
896.861	19594
896.982	19959
897.103	20168
897.224	19902
897.345	19776
897.466	19772
897.587	19803
897.708	19898
897.828	19788
897.949	19776
898.07	19696
898.19	19689
898.311	19902
898.431	19833
898.552	19830
898.672	19978
898.792	19826
898.913	19723
899.033	19681
899.153	19609
899.273	19594
899.393	19590
899.513	19480
899.633	19590
899.753	19521
899.873	19434
899.993	19563
900.113	19445
900.232	19483
900.352	19441
900.472	19468
900.591	19282
900.711	19415
900.83	19346
900.95	19339
901.069	19438
901.189	19225
901.308	18947
901.427	18951
901.546	18840
901.665	19031
901.784	18916
901.904	18798
902.023	18711
902.141	18490
902.26	18429
902.379	18681
902.498	18506
902.617	18494
902.735	18528
902.854	18464
902.973	18292
903.091	18148
903.21	18167
903.328	18114
903.446	18015
903.565	17912
903.683	17828
903.801	17859
903.919	17889
904.038	17897
904.156	17592
904.274	17885
904.392	17665
904.51	17665
904.627	17570
904.745	17687
904.863	17813
904.981	17490
905.098	17402
905.216	17391
905.334	17482
905.451	17497
905.569	17372
905.686	17474
905.803	17414
905.921	17124
906.038	17220
906.155	17197
906.272	17086
906.389	17014
906.506	16961
906.623	16984
906.74	16991
906.857	16831
906.974	16820
907.091	16938
907.208	16980
907.324	16923
907.441	16786
907.557	16603
907.674	16675
907.79	16508
907.907	16736
908.023	16782
908.139	16698
908.256	16615
908.372	16569
908.488	16558
908.604	16398
908.72	16284
908.836	16375
908.952	16329
909.068	16382
909.184	16508
909.3	16360
909.415	16417
909.531	16443
909.647	16135
909.762	16010
909.878	16021
909.993	16093
910.108	16109
910.224	16032
910.339	15975
910.454	15972
910.57	15854
910.685	15827
910.8	16021
910.915	16044
911.03	15876
911.145	15713
911.259	15720
911.374	15622
911.489	15580
911.604	15530
911.718	15412
911.833	15488
911.947	15321
912.062	15245
912.176	15477
912.291	15462
912.405	15500
912.519	15739
912.633	15603
912.748	15576
912.862	15374
912.976	15294
913.09	15188
913.204	15188
913.318	15268
913.431	15306
913.545	15325
913.659	15283
913.772	15252
913.886	15062
914	15058
914.113	15135
914.226	15237
914.34	15131
914.453	14891
914.566	15043
914.68	14998
914.793	14921
914.906	14788
915.019	14689
915.132	14667
915.245	14659
915.358	14617
915.47	14602
915.583	14651
915.696	14625
915.809	14819
915.921	14887
916.034	14598
916.146	14606
916.259	14507
916.371	14674
916.483	14648
916.595	14590
916.708	14587
916.82	14533
916.932	14514
917.044	14575
917.156	14446
917.268	14294
917.38	14400
917.491	14286
917.603	14469
917.715	14457
917.826	14450
917.938	14351
918.049	14229
918.161	14389
918.272	14454
918.384	14473
918.495	14290
918.606	14031
918.717	14153
918.828	14077
918.939	14088
919.05	14046
919.161	14134
919.272	13944
919.383	14020
919.494	14164
919.604	14313
919.715	14065
919.826	13921
919.936	14020
920.047	14115
920.157	14084
920.267	14256
920.378	14065
920.488	14005
920.598	14176
920.708	14351
920.818	14267
920.928	14278
921.038	14385
921.148	14366
921.258	14031
921.368	13925
921.477	13871
921.587	13803
921.697	13696
921.806	13799
921.916	13746
922.025	13590
922.134	13552
922.244	13499
922.353	13556
922.462	13365
922.571	13335
922.68	13225
922.789	13129
922.898	13175
923.007	13042
923.116	13179
923.224	13164
923.333	13050
923.442	13015
923.55	12939
923.659	12954
923.767	13118
923.876	12901
923.984	13050
924.092	12913
924.201	12890
924.309	12882
924.417	12848
924.525	12806
924.633	12825
924.741	13643
924.849	12673
924.956	12772
925.064	12528
925.172	12551
925.279	12612
925.387	12574
925.494	12544
925.602	12677
925.709	12623
925.816	12509
925.924	12509
926.031	12627
926.138	12551
926.245	12559
926.352	12391
926.459	12616
926.566	12662
926.673	12452
926.779	12270
926.886	12342
926.993	12273
927.099	12194
927.206	12106
927.312	11992
927.419	12213
927.525	12232
927.631	12110
927.737	12095
927.843	12034
927.95	11916
928.056	12007
928.162	12045
928.267	12034
928.373	12612
928.479	12015
928.585	11767
928.69	11893
928.796	11992
928.901	11813
929.007	11653
929.112	11832
929.218	11866
929.323	11695
929.428	11714
929.533	11859
929.638	11585
929.743	11646
929.848	11718
929.953	11691
930.058	11543
930.163	11364
930.267	11471
930.372	11570
930.477	11383
930.581	11604
930.685	11414
930.79	11261
930.894	11337
930.998	11341
931.103	11368
931.207	11124
931.311	11029
931.415	10885
931.519	10714
931.623	10626
