Data from test_V78500241_3055.txt Node
Date: Fri Mar 25 15:31:07 CST 2022
User: usil
Spectrometer: V785-0024
Trigger mode: 0
Integration Time (sec): 4.000000E-1
Scans to average: 1
Nonlinearity correction enabled: false
Boxcar width: 0
Storing dark spectrum: false
XAxis mode: Wavelengths
Number of Pixels in Spectrum: 1024
>>>>>Begin Spectral Data<<<<<
801.071	27165
801.214	27344
801.356	26796
801.499	26952
801.641	26705
801.783	26807
801.926	26830
802.068	26830
802.211	26712
802.353	26777
802.496	26632
802.638	26393
802.78	26256
802.923	26309
803.065	26389
803.208	26355
803.35	26453
803.492	26469
803.635	26583
803.777	26488
803.919	26590
804.061	26769
804.204	26598
804.346	26438
804.488	26412
804.63	26579
804.773	26442
804.915	26438
805.057	26762
805.199	26533
805.341	26625
805.483	26583
805.626	26758
805.768	26640
805.91	26773
806.052	26705
806.194	26552
806.336	26845
806.478	26796
806.62	26632
806.762	26811
806.904	26933
807.046	27184
807.188	27032
807.33	27062
807.472	27214
807.614	27127
807.756	27074
807.898	26868
808.04	26796
808.182	26899
808.324	27001
808.465	26944
808.607	27275
808.749	27310
808.891	27382
809.033	27485
809.174	27412
809.316	27245
809.458	27233
809.6	27325
809.741	27412
809.883	27359
810.025	27606
810.166	27720
810.308	27553
810.45	27488
810.591	27568
810.733	27256
810.875	27298
811.016	27233
811.158	27249
811.299	27351
811.441	27572
811.582	27412
811.724	27454
811.865	27226
812.007	27188
812.148	27211
812.29	27226
812.431	27389
812.573	27427
812.714	27648
812.855	27698
812.997	27770
813.138	27926
813.279	27884
813.421	27633
813.562	27766
813.703	27568
813.845	27427
813.986	27173
814.127	26933
814.268	26967
814.41	26929
814.551	26918
814.692	27131
814.833	26975
814.974	26902
815.115	27001
815.256	26720
815.397	26815
815.539	26796
815.68	26655
815.821	26590
815.962	26754
816.103	26746
816.244	26522
816.385	26579
816.526	26461
816.666	26336
816.807	26221
816.948	26221
817.089	26317
817.23	26142
817.371	26130
817.512	26244
817.653	26206
817.793	26107
817.934	26252
818.075	26202
818.216	26020
818.356	26031
818.497	26050
818.638	25780
818.778	26027
818.919	25814
819.06	25978
819.2	26126
819.341	26332
819.481	26199
819.622	26332
819.762	26488
819.903	26389
820.043	26332
820.184	26317
820.324	26290
820.465	26263
820.605	26317
820.746	26244
820.886	26096
821.026	26244
821.167	26138
821.307	26229
821.447	26176
821.588	26084
821.728	25989
821.868	25731
822.008	25655
822.149	25609
822.289	25582
822.429	25411
822.569	25282
822.709	25350
822.849	25187
822.99	25198
823.13	25072
823.27	25122
823.41	24996
823.55	24970
823.69	25091
823.83	25080
823.97	24798
824.11	24719
824.25	24715
824.389	24760
824.529	24939
824.669	24783
824.809	24901
824.949	24833
825.089	24916
825.228	24848
825.368	24597
825.508	24494
825.648	24730
825.787	24673
825.927	24665
826.067	24509
826.206	24585
826.346	24639
826.485	24692
826.625	24677
826.765	24806
826.904	24703
827.044	24498
827.183	24372
827.323	24285
827.462	24391
827.601	24334
827.741	24410
827.88	24327
828.02	24410
828.159	24319
828.298	24350
828.437	24323
828.577	24239
828.716	24445
828.855	24213
828.994	24098
829.134	24026
829.273	24045
829.412	24049
829.551	24038
829.69	24060
829.829	24022
829.968	24053
830.107	24136
830.246	24155
830.385	24114
830.524	23961
830.663	23977
830.802	23703
830.941	23665
831.08	23687
831.219	23752
831.357	23920
831.496	23847
831.635	23707
831.774	23566
831.913	23433
832.051	23372
832.19	23474
832.329	23452
832.467	23417
832.606	23269
832.744	23372
832.883	23288
833.022	23197
833.16	23292
833.299	23436
833.437	23387
833.576	23478
833.714	23307
833.852	23471
833.991	23512
834.129	23433
834.267	23406
834.406	23433
834.544	23463
834.682	23311
834.821	23360
834.959	23455
835.097	23223
835.235	23440
835.373	23395
835.511	23368
835.65	23265
835.788	23200
835.926	23280
836.064	23178
836.202	23185
836.34	23288
836.478	23368
836.615	23166
836.753	23170
836.891	23345
837.029	23296
837.167	23235
837.305	23056
837.443	23178
837.58	23086
837.718	23113
837.856	23071
837.993	23048
838.131	23098
838.269	22961
838.406	22927
838.544	22957
838.681	22687
838.819	22694
838.956	22603
839.094	22569
839.231	22596
839.369	22656
839.506	22953
839.643	22900
839.781	22660
839.918	22626
840.055	22603
840.193	22615
840.33	22428
840.467	22561
840.604	22542
840.742	22675
840.879	22436
841.016	22554
841.153	22360
841.29	22615
841.427	22481
841.564	22424
841.701	22504
841.838	22478
841.975	22394
842.112	22455
842.249	22265
842.385	22223
842.522	22375
842.659	22303
842.796	22306
842.933	22318
843.069	22291
843.206	22169
843.343	22280
843.479	22200
843.616	22295
843.752	22070
843.889	21937
844.025	22188
844.162	22074
844.298	22067
844.435	22093
844.571	22029
844.708	21964
844.844	22059
844.98	22097
845.117	22070
845.253	21983
845.389	21884
845.525	21915
845.661	21812
845.798	21789
845.934	21755
846.07	21800
846.206	21808
846.342	21903
846.478	21759
846.614	21561
846.75	21424
846.886	21530
847.022	21572
847.158	21473
847.294	21469
847.429	21542
847.565	21443
847.701	21656
847.837	21317
847.972	21142
848.108	21386
848.244	21302
848.379	21085
848.515	21135
848.65	21051
848.786	21047
848.921	21211
849.057	21131
849.192	21165
849.328	21108
849.463	21116
849.598	21047
849.734	21005
849.869	20880
850.004	20963
850.14	20838
850.275	20811
850.41	20689
850.545	20678
850.68	20735
850.815	20819
850.95	20750
851.085	21051
851.22	21032
851.355	20910
851.49	20712
851.625	20857
851.76	20781
851.895	20883
852.03	20838
852.165	20853
852.299	20883
852.434	20800
852.569	20979
852.703	20944
852.838	20785
852.973	20956
853.107	20941
853.242	20804
853.376	20545
853.511	20492
853.645	20568
853.78	20857
853.914	20716
854.048	20648
854.183	20670
854.317	20815
854.451	20857
854.585	20708
854.72	20579
854.854	20724
854.988	20488
855.122	20705
855.256	20579
855.39	20800
855.524	20663
855.658	20720
855.792	20625
855.926	20674
856.06	20632
856.194	20845
856.327	20659
856.461	20587
856.595	20613
856.729	20537
856.862	20815
856.996	20701
857.13	20560
857.263	20762
857.397	20777
857.53	20587
857.664	20731
857.797	20811
857.931	20743
858.064	20735
858.197	20826
858.331	20575
858.464	20651
858.597	20549
858.731	20621
858.864	20701
858.997	20636
859.13	20712
859.263	20807
859.396	20857
859.529	20670
859.662	20705
859.795	20590
859.928	20807
860.061	20735
860.194	20773
860.327	20701
860.46	20689
860.592	20678
860.725	20861
860.858	20864
860.99	20705
861.123	20590
861.256	20575
861.388	20697
861.521	21279
861.653	20583
861.786	20492
861.918	20465
862.05	20533
862.183	20545
862.315	20556
862.447	20667
862.58	20484
862.712	20434
862.844	20408
862.976	20556
863.108	20541
863.24	20785
863.372	20377
863.504	20450
863.636	20355
863.768	20362
863.9	20415
864.032	20275
864.164	20343
864.296	20465
864.428	20488
864.559	20454
864.691	20419
864.823	20469
864.954	20355
865.086	20347
865.217	20389
865.349	20256
865.48	20339
865.612	20320
865.743	20404
865.875	20377
866.006	20305
866.137	20370
866.269	20355
866.4	20320
866.531	20218
866.662	20233
866.793	20278
866.924	20256
867.055	20259
867.186	20259
867.317	20252
867.448	20119
867.579	20240
867.71	20073
867.841	20237
867.972	20294
868.103	20210
868.233	20267
868.364	20191
868.495	20298
868.625	20541
868.756	20533
868.886	20499
869.017	20469
869.147	20556
869.278	20590
869.408	20457
869.539	20476
869.669	20549
869.799	20507
869.929	20526
870.06	20503
870.19	20796
870.32	20655
870.45	20758
870.58	20826
870.71	20971
870.84	20880
870.97	20929
871.1	20853
871.23	21013
871.36	21104
871.489	21024
871.619	21142
871.749	21005
871.879	21157
872.008	21272
872.138	21108
872.267	21081
872.397	20967
872.526	20941
872.656	20967
872.785	20967
872.915	21116
873.044	21062
873.173	21043
873.303	21150
873.432	21157
873.561	21138
873.69	21108
873.819	21005
873.948	21039
874.077	21058
874.206	21081
874.335	21032
874.464	21249
874.593	21397
874.722	21272
874.851	21386
874.979	21370
875.108	21397
875.237	21199
875.365	21161
875.494	21157
875.623	21386
875.751	21260
875.88	21412
876.008	21523
876.136	21633
876.265	21652
876.393	21899
876.521	21827
876.65	21884
876.778	21770
876.906	21694
877.034	21618
877.162	21618
877.29	21682
877.418	21724
877.546	21701
877.674	21766
877.802	21713
877.93	21698
878.058	21675
878.185	21553
878.313	21736
878.441	21686
878.568	21572
878.696	21671
878.824	21705
878.951	21736
879.079	21842
879.206	21922
879.333	21903
879.461	21778
879.588	21785
879.715	21956
879.842	22029
879.97	21724
880.097	21682
880.224	21507
880.351	21667
880.478	21542
880.605	21424
880.732	21591
880.859	21717
880.986	21504
881.112	21625
881.239	21351
881.366	21340
881.493	21287
881.619	21074
881.746	21123
881.872	21089
881.999	21127
882.125	21096
882.252	21192
882.378	21047
882.505	21291
882.631	20979
882.757	20872
882.883	21070
883.01	20921
883.136	20716
883.262	20739
883.388	20769
883.514	20826
883.64	20781
883.766	20769
883.892	20629
884.018	20708
884.143	20815
884.269	20895
884.395	20480
884.52	20492
884.646	20587
884.772	20415
884.897	20457
885.023	20575
885.148	20678
885.274	20571
885.399	20560
885.524	20583
885.65	20423
885.775	20488
885.9	20473
886.025	20667
886.15	20708
886.275	20480
886.4	20427
886.525	20530
886.65	20438
886.775	20480
886.9	20640
887.025	20697
887.149	20457
887.274	20229
887.399	20221
887.523	20374
887.648	20202
887.773	20142
887.897	20282
888.021	20248
888.146	20195
888.27	20381
888.395	20324
888.519	20195
888.643	20229
888.767	20328
888.891	20244
889.015	20122
889.139	20202
889.263	20119
889.387	20157
889.511	20233
889.635	20164
889.759	20122
889.883	20069
890.006	20218
890.13	20088
890.254	19978
890.377	19989
890.501	19921
890.624	19795
890.748	19814
890.871	19750
890.995	19590
891.118	19704
891.241	19696
891.364	19655
891.488	19776
891.611	19632
891.734	19616
891.857	19761
891.98	19544
892.103	19784
892.226	19666
892.349	19491
892.471	19499
892.594	19662
892.717	19548
892.839	19491
892.962	19639
893.085	19605
893.207	19605
893.33	19407
893.452	19540
893.575	19575
893.697	19533
893.819	19761
893.941	19734
894.064	19620
894.186	19552
894.308	19533
894.43	19681
894.552	19761
894.674	19601
894.796	19441
894.918	19533
895.04	19601
895.161	19666
895.283	19556
895.405	19571
895.526	19594
895.648	19575
895.769	19540
895.891	19628
896.012	19632
896.134	19750
896.255	19658
896.376	19510
896.498	19563
896.619	19693
896.74	19582
896.861	19556
896.982	20031
897.103	20005
897.224	19852
897.345	19757
897.466	19780
897.587	19883
897.708	19837
897.828	19830
897.949	19738
898.07	19674
898.19	19655
898.311	19936
898.431	19833
898.552	19742
898.672	19818
898.792	19852
898.913	19974
899.033	19685
899.153	19647
899.273	19518
899.393	19537
899.513	19635
899.633	19578
899.753	19674
899.873	19480
899.993	19559
900.113	19457
900.232	19514
900.352	19441
900.472	19384
900.591	19308
900.711	19434
900.83	19228
900.95	19422
901.069	19426
901.189	19259
901.308	19015
901.427	18928
901.546	18958
901.665	18951
901.784	18985
901.904	18791
902.023	18821
902.141	18551
902.26	18521
902.379	18585
902.498	18460
902.617	18448
902.735	18422
902.854	18441
902.973	18380
903.091	18232
903.21	18228
903.328	18129
903.446	18049
903.565	18053
903.683	17931
903.801	17855
903.919	17847
904.038	17851
904.156	17691
904.274	17748
904.392	17657
904.51	17699
904.627	17748
904.745	17790
904.863	17649
904.981	17497
905.098	17353
905.216	17353
905.334	17406
905.451	17440
905.569	17372
905.686	17372
905.803	17353
905.921	17128
906.038	17280
906.155	17239
906.272	17052
906.389	17083
906.506	16911
906.623	17033
906.74	16889
906.857	16812
906.974	16774
907.091	16984
907.208	16999
907.324	16972
907.441	16869
907.557	16752
907.674	16596
907.79	16599
907.907	16603
908.023	16687
908.139	16634
908.256	16637
908.372	16599
908.488	16451
908.604	16447
908.72	16417
908.836	16379
908.952	16352
909.068	16371
909.184	16447
909.3	16360
909.415	16470
909.531	16367
909.647	16200
909.762	16074
909.878	16097
909.993	16067
910.108	16021
910.224	15907
910.339	15994
910.454	15987
910.57	15892
910.685	15846
910.8	16162
910.915	15964
911.03	15899
911.145	15705
911.259	15717
911.374	15682
911.489	15591
911.604	15545
911.718	15431
911.833	15458
911.947	15378
912.062	15348
912.176	15515
912.291	15542
912.405	15553
912.519	15652
912.633	15606
912.748	15473
912.862	15397
912.976	15199
913.09	15173
913.204	15294
913.318	15325
913.431	15408
913.545	15389
913.659	15367
913.772	15237
913.886	14998
914	15047
914.113	15146
914.226	15123
914.34	15157
914.453	14975
914.566	15116
914.68	14975
914.793	14921
914.906	14887
915.019	14849
915.132	14781
915.245	14686
915.358	14655
915.47	14686
915.583	14625
915.696	14674
915.809	14743
915.921	14804
916.034	14590
916.146	14568
916.259	14606
916.371	14644
916.483	14629
916.595	14541
916.708	14583
916.82	14621
916.932	14507
917.044	14522
917.156	14511
917.268	14423
917.38	14412
917.491	14423
917.603	14286
917.715	14434
917.826	14503
917.938	14210
918.049	14271
918.161	14355
918.272	14434
918.384	14389
918.495	14351
918.606	14195
918.717	14115
918.828	14218
918.939	14256
919.05	14058
919.161	14142
919.272	13906
919.383	14012
919.494	14191
919.604	14351
919.715	14103
919.826	13986
919.936	14096
920.047	14157
920.157	14050
920.267	14332
920.378	14142
920.488	14077
920.598	14278
920.708	14366
920.818	14176
920.928	14286
921.038	14320
921.148	14336
921.258	14001
921.368	13883
921.477	13879
921.587	13830
921.697	13677
921.806	13951
921.916	13670
922.025	13628
922.134	13620
922.244	13415
922.353	13518
922.462	13320
922.571	13244
922.68	13251
922.789	13179
922.898	13080
923.007	13118
923.116	13084
923.224	13114
923.333	13168
923.442	13015
923.55	12993
923.659	12996
923.767	12996
923.876	12981
923.984	12993
924.092	12817
924.201	12958
924.309	12848
924.417	12913
924.525	12817
924.633	12829
924.741	13780
924.849	12665
924.956	12802
925.064	12559
925.172	12578
925.279	12555
925.387	12608
925.494	12563
925.602	12696
925.709	12627
925.816	12506
925.924	12513
926.031	12658
926.138	12547
926.245	12467
926.352	12391
926.459	12570
926.566	12582
926.673	12407
926.779	12350
926.886	12388
926.993	12201
927.099	12144
927.206	12152
927.312	12125
927.419	12205
927.525	12167
927.631	12072
927.737	12083
927.843	11999
927.95	11840
928.056	11961
928.162	12026
928.267	11958
928.373	12593
928.479	12057
928.585	11809
928.69	11920
928.796	11885
928.901	11809
929.007	11729
929.112	11836
929.218	11741
929.323	11767
929.428	11672
929.533	11866
929.638	11668
929.743	11764
929.848	11672
929.953	11608
930.058	11581
930.163	11402
930.267	11391
930.372	11562
930.477	11349
930.581	11623
930.685	11482
930.79	11242
930.894	11337
930.998	11258
931.103	11410
931.207	11045
931.311	11045
931.415	10908
931.519	10717
931.623	10634
