Data from test_V78500241_917.txt Node
Date: Fri Mar 25 15:16:14 CST 2022
User: usil
Spectrometer: V785-0024
Trigger mode: 0
Integration Time (sec): 4.000000E-1
Scans to average: 1
Nonlinearity correction enabled: false
Boxcar width: 0
Storing dark spectrum: false
XAxis mode: Wavelengths
Number of Pixels in Spectrum: 1024
>>>>>Begin Spectral Data<<<<<
801.071	28082
801.214	28036
801.356	27922
801.499	27823
801.641	27637
801.783	27583
801.926	27762
802.068	27759
802.211	27568
802.353	27675
802.496	27397
802.638	27382
802.78	27302
802.923	27321
803.065	27313
803.208	27329
803.35	27462
803.492	27507
803.635	27568
803.777	27382
803.919	27679
804.061	27907
804.204	27599
804.346	27462
804.488	27572
804.63	27538
804.773	27424
804.915	27583
805.057	27732
805.199	27469
805.341	27599
805.483	27732
805.626	27614
805.768	27648
805.91	27663
806.052	27652
806.194	27637
806.336	28048
806.478	27774
806.62	27679
806.762	27812
806.904	27945
807.046	28192
807.188	28063
807.33	28166
807.472	28185
807.614	27972
807.756	28135
807.898	27945
808.04	27968
808.182	27979
808.324	28074
808.465	27998
808.607	28287
808.749	28306
808.891	28466
809.033	28668
809.174	28223
809.316	28337
809.458	28303
809.6	28325
809.741	28474
809.883	28710
810.025	28645
810.166	28611
810.308	28862
810.45	28668
810.591	28542
810.733	28565
810.875	28390
811.016	28185
811.158	28306
811.299	28493
811.441	28508
811.582	28485
811.724	28401
811.865	28352
812.007	28261
812.148	28516
812.29	28379
812.431	28561
812.573	28820
812.714	28858
812.855	28908
812.997	29056
813.138	29067
813.279	29056
813.421	28984
813.562	28850
813.703	28809
813.845	28691
813.986	28363
814.127	28036
814.268	28006
814.41	28067
814.551	28112
814.692	28029
814.833	28150
814.974	27968
815.115	28082
815.256	27926
815.397	27953
815.539	27960
815.68	27956
815.821	27827
815.962	27800
816.103	27979
816.244	27774
816.385	27633
816.526	27637
816.666	27473
816.807	27450
816.948	27412
817.089	27420
817.23	27614
817.371	27359
817.512	27420
817.653	27431
817.793	27355
817.934	27348
818.075	27405
818.216	27370
818.356	27378
818.497	27294
818.638	27123
818.778	27150
818.919	27272
819.06	27382
819.2	27344
819.341	27454
819.481	27393
819.622	27485
819.762	27774
819.903	27606
820.043	27686
820.184	27523
820.324	27500
820.465	27515
820.605	27557
820.746	27412
820.886	27408
821.026	27405
821.167	27420
821.307	27538
821.447	27462
821.588	27462
821.728	27154
821.868	27001
822.008	26849
822.149	26975
822.289	26807
822.429	26636
822.569	26568
822.709	26480
822.849	26358
822.99	26404
823.13	26343
823.27	26298
823.41	26256
823.55	26145
823.69	26305
823.83	26191
823.97	26119
824.11	25894
824.25	26046
824.389	26012
824.529	26218
824.669	26054
824.809	26069
824.949	26126
825.089	26172
825.228	26157
825.368	25898
825.508	25925
825.648	25959
825.787	25944
825.927	25917
826.067	25860
826.206	25989
826.346	25947
826.485	25849
826.625	25814
826.765	26077
826.904	25906
827.044	25712
827.183	25696
827.323	25696
827.462	25765
827.601	25681
827.741	25655
827.88	25742
828.02	25556
828.159	25689
828.298	25613
828.437	25746
828.577	25540
828.716	25746
828.855	25677
828.994	25384
829.134	25339
829.273	25529
829.412	25354
829.551	25293
829.69	25388
829.829	25415
829.968	25392
830.107	25335
830.246	25350
830.385	25327
830.524	25225
830.663	25312
830.802	25050
830.941	24977
831.08	24996
831.219	25080
831.357	25118
831.496	25141
831.635	25091
831.774	24989
831.913	24814
832.051	24715
832.19	24806
832.329	24833
832.467	24654
832.606	24688
832.744	24563
832.883	24620
833.022	24654
833.16	24696
833.299	24661
833.437	24707
833.576	24722
833.714	24791
833.852	24757
833.991	24787
834.129	24825
834.267	24837
834.406	24772
834.544	24722
834.682	24749
834.821	24597
834.959	24787
835.097	24711
835.235	24730
835.373	24688
835.511	24601
835.65	24612
835.788	24536
835.926	24323
836.064	24384
836.202	24395
836.34	24513
836.478	24547
836.615	24601
836.753	24604
836.891	24642
837.029	24654
837.167	24384
837.305	24346
837.443	24433
837.58	24391
837.718	24502
837.856	24353
837.993	24273
838.131	24418
838.269	24281
838.406	24186
838.544	24235
838.681	23965
838.819	23866
838.956	23901
839.094	23923
839.231	23973
839.369	24114
839.506	24323
839.643	24053
839.781	23745
839.918	23779
840.055	23946
840.193	23802
840.33	23775
840.467	23786
840.604	23836
840.742	23939
840.879	23600
841.016	23893
841.153	23653
841.29	23878
841.427	23722
841.564	23832
841.701	23828
841.838	23760
841.975	23680
842.112	23718
842.249	23558
842.385	23478
842.522	23783
842.659	23566
842.796	23455
842.933	23528
843.069	23436
843.206	23406
843.343	23581
843.479	23493
843.616	23505
843.752	23265
843.889	23440
844.025	23410
844.162	23277
844.298	23524
844.435	23227
844.571	23250
844.708	23349
844.844	23493
844.98	23482
845.117	23368
845.253	23174
845.389	23102
845.525	23136
845.661	23151
845.798	23033
845.934	23094
846.07	22965
846.206	22980
846.342	23208
846.478	22991
846.614	22873
846.75	22782
846.886	22771
847.022	22801
847.158	22698
847.294	22767
847.429	22759
847.565	22656
847.701	22919
847.837	22565
847.972	22443
848.108	22622
848.244	22447
848.379	22348
848.515	22329
848.65	22348
848.786	22371
848.921	22276
849.057	22512
849.192	22455
849.328	22363
849.463	22333
849.598	22291
849.734	22238
849.869	22131
850.004	22207
850.14	22169
850.275	22150
850.41	22051
850.545	22078
850.68	22128
850.815	22211
850.95	22017
851.085	22322
851.22	22215
851.355	22101
851.49	22112
851.625	22131
851.76	22181
851.895	22105
852.03	22013
852.165	22078
852.299	22181
852.434	22173
852.569	22116
852.703	22120
852.838	22166
852.973	22200
853.107	22166
853.242	21972
853.376	21926
853.511	21865
853.645	21857
853.78	22021
853.914	21975
854.048	21751
854.183	21956
854.317	21972
854.451	22105
854.585	21880
854.72	21934
854.854	22067
854.988	21857
855.122	21915
855.256	21736
855.39	21835
855.524	22135
855.658	21979
855.792	21846
855.926	21941
856.06	21972
856.194	21991
856.327	21838
856.461	21823
856.595	21972
856.729	21861
856.862	21994
856.996	21960
857.13	22063
857.263	22101
857.397	21964
857.53	21941
857.664	22013
857.797	22063
857.931	21979
858.064	22059
858.197	22124
858.331	21934
858.464	21937
858.597	21838
858.731	21956
858.864	21926
858.997	21850
859.13	21930
859.263	21797
859.396	22017
859.529	22017
859.662	21835
859.795	21819
859.928	21960
860.061	22013
860.194	22147
860.327	21998
860.46	22029
860.592	22109
860.725	22147
860.858	22097
860.99	22002
861.123	21797
861.256	21911
861.388	21998
861.521	22683
861.653	21781
861.786	21682
861.918	21694
862.05	21816
862.183	21720
862.315	21816
862.447	21789
862.58	21915
862.712	21682
862.844	21679
862.976	21698
863.108	21679
863.24	22147
863.372	21515
863.504	21641
863.636	21679
863.768	21694
863.9	21663
864.032	21500
864.164	21557
864.296	21736
864.428	21724
864.559	21671
864.691	21717
864.823	21629
864.954	21625
865.086	21576
865.217	21443
865.349	21496
865.48	21389
865.612	21439
865.743	21610
865.875	21466
866.006	21473
866.137	21485
866.269	21443
866.4	21466
866.531	21462
866.662	21374
866.793	21420
866.924	21435
867.055	21439
867.186	21545
867.317	21329
867.448	21306
867.579	21447
867.71	21359
867.841	21485
867.972	21329
868.103	21351
868.233	21450
868.364	21382
868.495	21622
868.625	21564
868.756	21736
868.886	21606
869.017	21694
869.147	21770
869.278	21785
869.408	21823
869.539	21625
869.669	21625
869.799	21644
869.929	21781
870.06	21759
870.19	21975
870.32	21975
870.45	21991
870.58	22040
870.71	22150
870.84	22196
870.97	22093
871.1	22029
871.23	22192
871.36	22234
871.489	22086
871.619	22261
871.749	22322
871.879	22215
872.008	22337
872.138	22356
872.267	22413
872.397	22219
872.526	22051
872.656	22112
872.785	22185
872.915	22204
873.044	22405
873.173	22284
873.303	22386
873.432	22333
873.561	22363
873.69	22371
873.819	22295
873.948	22421
874.077	22344
874.206	22150
874.335	22291
874.464	22459
874.593	22577
874.722	22432
874.851	22489
874.979	22398
875.108	22497
875.237	22455
875.365	22470
875.494	22504
875.623	22409
875.751	22440
875.88	22504
876.008	22569
876.136	22748
876.265	23006
876.393	23048
876.521	22957
876.65	23010
876.778	22946
876.906	22862
877.034	22816
877.162	22911
877.29	22782
877.418	22904
877.546	22908
877.674	22828
877.802	22885
877.93	22847
878.058	22740
878.185	22698
878.313	22820
878.441	22824
878.568	22664
878.696	22778
878.824	22774
878.951	23018
879.079	22995
879.206	23094
879.333	22892
879.461	22862
879.588	23037
879.715	23048
879.842	23185
879.97	22930
880.097	22656
880.224	22626
880.351	22687
880.478	22531
880.605	22546
880.732	22736
880.859	22812
880.986	22710
881.112	22809
881.239	22630
881.366	22352
881.493	22394
881.619	22200
881.746	22204
881.872	22303
881.999	22147
882.125	22196
882.252	22204
882.378	22188
882.505	22280
882.631	22040
882.757	21926
882.883	21983
883.01	22051
883.136	21907
883.262	21656
883.388	21861
883.514	21994
883.64	21911
883.766	21895
883.892	21720
884.018	21739
884.143	21816
884.269	22006
884.395	21538
884.52	21485
884.646	21583
884.772	21511
884.897	21344
885.023	21561
885.148	21603
885.274	21785
885.399	21534
885.524	21534
885.65	21462
885.775	21572
885.9	21530
886.025	21614
886.15	21572
886.275	21443
886.4	21389
886.525	21466
886.65	21473
886.775	21450
886.9	21595
887.025	21743
887.149	21618
887.274	21473
887.399	21298
887.523	21408
887.648	21306
887.773	21268
887.897	21386
888.021	21389
888.146	21252
888.27	21450
888.395	21431
888.519	21321
888.643	21469
888.767	21264
888.891	21161
889.015	21085
889.139	21188
889.263	21096
889.387	21226
889.511	21386
889.635	21310
889.759	21108
889.883	21123
890.006	21131
890.13	21169
890.254	21055
890.377	21058
890.501	20895
890.624	20754
890.748	20785
890.871	20720
890.995	20617
891.118	20598
891.241	20678
891.364	20651
891.488	20758
891.611	20648
891.734	20746
891.857	20735
891.98	20689
892.103	20705
892.226	20549
892.349	20587
892.471	20442
892.594	20541
892.717	20594
892.839	20518
892.962	20594
893.085	20617
893.207	20587
893.33	20427
893.452	20339
893.575	20632
893.697	20613
893.819	20781
893.941	20849
894.064	20693
894.186	20594
894.308	20427
894.43	20731
894.552	20708
894.674	20594
894.796	20408
894.918	20457
895.04	20590
895.161	20632
895.283	20537
895.405	20434
895.526	20564
895.648	20533
895.769	20583
895.891	20625
896.012	20724
896.134	20602
896.255	20598
896.376	20587
896.498	20648
896.619	20533
896.74	20590
896.861	20655
896.982	20815
897.103	21032
897.224	20743
897.345	20754
897.466	20724
897.587	20861
897.708	20826
897.828	20648
897.949	20823
898.07	20533
898.19	20583
898.311	20773
898.431	20720
898.552	20731
898.672	20708
898.792	20834
898.913	20880
899.033	20556
899.153	20590
899.273	20377
899.393	20648
899.513	20442
899.633	20461
899.753	20469
899.873	20389
899.993	20396
900.113	20450
900.232	20488
900.352	20457
900.472	20404
900.591	20199
900.711	20324
900.83	20202
900.95	20324
901.069	20210
901.189	20221
901.308	19944
901.427	19955
901.546	19715
901.665	19883
901.784	19837
901.904	19715
902.023	19658
902.141	19411
902.26	19400
902.379	19407
902.498	19365
902.617	19377
902.735	19434
902.854	19358
902.973	19251
903.091	19088
903.21	19008
903.328	18943
903.446	18932
903.565	18848
903.683	18810
903.801	18753
903.919	18859
904.038	18840
904.156	18582
904.274	18681
904.392	18604
904.51	18627
904.627	18601
904.745	18589
904.863	18673
904.981	18384
905.098	18243
905.216	18308
905.334	18273
905.451	18247
905.569	18224
905.686	18258
905.803	18308
905.921	18068
906.038	18243
906.155	18110
906.272	17935
906.389	18019
906.506	17802
906.623	17786
906.74	17908
906.857	17646
906.974	17630
907.091	17767
907.208	17897
907.324	17824
907.441	17661
907.557	17486
907.674	17493
907.79	17467
907.907	17410
908.023	17482
908.139	17509
908.256	17448
908.372	17421
908.488	17322
908.604	17425
908.72	17250
908.836	17330
908.952	17181
909.068	17227
909.184	17368
909.3	17235
909.415	17185
909.531	17132
909.647	16999
909.762	16934
909.878	16843
909.993	16915
910.108	16942
910.224	16896
910.339	16961
910.454	16740
910.57	16793
910.685	16675
910.8	16980
910.915	16820
911.03	16691
911.145	16637
911.259	16584
911.374	16470
911.489	16462
911.604	16352
911.718	16291
911.833	16230
911.947	16223
912.062	15934
912.176	16230
912.291	16284
912.405	16219
912.519	16508
912.633	16341
912.748	16257
912.862	16230
912.976	15987
913.09	15873
913.204	15956
913.318	16006
913.431	16207
913.545	16211
913.659	16158
913.772	16071
913.886	15991
914	15915
914.113	15998
914.226	15945
914.34	15876
914.453	15732
914.566	15842
914.68	15709
914.793	15816
914.906	15526
915.019	15378
915.132	15408
915.245	15530
915.358	15500
915.47	15542
915.583	15439
915.696	15614
915.809	15488
915.921	15576
916.034	15386
916.146	15287
916.259	15389
916.371	15367
916.483	15313
916.595	15268
916.708	15233
916.82	15272
916.932	15226
917.044	15298
917.156	15180
917.268	15009
917.38	15051
917.491	15024
917.603	15100
917.715	15112
917.826	15207
917.938	14982
918.049	14872
918.161	15024
918.272	15142
918.384	15142
918.495	15001
918.606	14918
918.717	14823
918.828	14902
918.939	14902
919.05	14777
919.161	14765
919.272	14705
919.383	14705
919.494	14963
919.604	14998
919.715	14819
919.826	14811
919.936	14731
920.047	14830
920.157	14750
920.267	14967
920.378	14811
920.488	14712
920.598	14982
920.708	15024
920.818	15028
920.928	14838
921.038	15032
921.148	14963
921.258	14708
921.368	14678
921.477	14511
921.587	14590
921.697	14450
921.806	14552
921.916	14495
922.025	14237
922.134	14168
922.244	14157
922.353	14206
922.462	14130
922.571	14008
922.68	13845
922.789	13784
922.898	13883
923.007	13852
923.116	13932
923.224	13791
923.333	13757
923.442	13655
923.55	13658
923.659	13674
923.767	13674
923.876	13529
923.984	13708
924.092	13575
924.201	13552
924.309	13575
924.417	13563
924.525	13403
924.633	13537
924.741	14267
924.849	13228
924.956	13377
925.064	13228
925.172	13240
925.279	13232
925.387	13213
925.494	13179
925.602	13369
925.709	13285
925.816	13168
925.924	13152
926.031	13312
926.138	13179
926.245	13183
926.352	12993
926.459	13107
926.566	13156
926.673	13046
926.779	12920
926.886	12977
926.993	12795
927.099	12749
927.206	12722
927.312	12650
927.419	12764
927.525	12791
927.631	12768
927.737	12726
927.843	12593
927.95	12517
928.056	12540
928.162	12574
928.267	12589
928.373	13206
928.479	12642
928.585	12471
928.69	12559
928.796	12574
928.901	12422
929.007	12311
929.112	12445
929.218	12433
929.323	12247
929.428	12247
929.533	12399
929.638	12330
929.743	12228
929.848	12395
929.953	12277
930.058	12194
930.163	11969
930.267	12087
930.372	12216
930.477	11988
930.581	12034
930.685	11996
930.79	11859
930.894	11821
930.998	11859
931.103	11954
931.207	11661
931.311	11543
931.415	11448
931.519	11273
931.623	11128
