Data from test_V78500241_1754.txt Node
Date: Fri Mar 25 15:22:04 CST 2022
User: usil
Spectrometer: V785-0024
Trigger mode: 0
Integration Time (sec): 4.000000E-1
Scans to average: 1
Nonlinearity correction enabled: false
Boxcar width: 0
Storing dark spectrum: false
XAxis mode: Wavelengths
Number of Pixels in Spectrum: 1024
>>>>>Begin Spectral Data<<<<<
801.071	27899
801.214	27793
801.356	27625
801.499	27652
801.641	27641
801.783	27405
801.926	27504
802.068	27450
802.211	27348
802.353	27306
802.496	27260
802.638	27222
802.78	27142
802.923	27116
803.065	26918
803.208	27047
803.35	26994
803.492	27245
803.635	27348
803.777	27085
803.919	27154
804.061	27660
804.204	27321
804.346	27363
804.488	27310
804.63	27344
804.773	27241
804.915	27325
805.057	27443
805.199	27275
805.341	27351
805.483	27545
805.626	27401
805.768	27264
805.91	27348
806.052	27564
806.194	27306
806.336	27576
806.478	27427
806.62	27488
806.762	27583
806.904	27610
807.046	27911
807.188	27804
807.33	27918
807.472	27914
807.614	27671
807.756	27835
807.898	27682
808.04	27580
808.182	27587
808.324	27804
808.465	27709
808.607	27975
808.749	28048
808.891	28051
809.033	28097
809.174	28101
809.316	27987
809.458	27941
809.6	28051
809.741	28067
809.883	28325
810.025	28276
810.166	28348
810.308	28367
810.45	28246
810.591	28097
810.733	28120
810.875	28051
811.016	27827
811.158	28017
811.299	28166
811.441	28306
811.582	28265
811.724	27983
811.865	27888
812.007	27975
812.148	28017
812.29	28010
812.431	28257
812.573	28306
812.714	28341
812.855	28577
812.997	28588
813.138	28752
813.279	28706
813.421	28493
813.562	28493
813.703	28409
813.845	28253
813.986	27934
814.127	27827
814.268	27789
814.41	27804
814.551	27641
814.692	27618
814.833	27675
814.974	27736
815.115	27770
815.256	27603
815.397	27660
815.539	27458
815.68	27523
815.821	27405
815.962	27557
816.103	27367
816.244	27336
816.385	27165
816.526	27161
816.666	27150
816.807	27009
816.948	27013
817.089	27135
817.23	27028
817.371	27051
817.512	26925
817.653	27039
817.793	26994
817.934	27089
818.075	27066
818.216	26982
818.356	27081
818.497	26876
818.638	26773
818.778	26861
818.919	26823
819.06	26819
819.2	26960
819.341	27005
819.481	27096
819.622	27093
819.762	27325
819.903	27256
820.043	27180
820.184	27226
820.324	27161
820.465	27230
820.605	27127
820.746	27112
820.886	27036
821.026	27218
821.167	27173
821.307	27154
821.447	26971
821.588	27058
821.728	26720
821.868	26720
822.008	26530
822.149	26571
822.289	26511
822.429	26271
822.569	26168
822.709	26351
822.849	26115
822.99	26005
823.13	26092
823.27	25879
823.41	25814
823.55	25723
823.69	25784
823.83	25753
823.97	25708
824.11	25674
824.25	25647
824.389	25601
824.529	25727
824.669	25635
824.809	25822
824.949	25734
825.089	25712
825.228	25696
825.368	25666
825.508	25563
825.648	25563
825.787	25601
825.927	25639
826.067	25525
826.206	25567
826.346	25499
826.485	25586
826.625	25506
826.765	25662
826.904	25457
827.044	25240
827.183	25278
827.323	25240
827.462	25487
827.601	25316
827.741	25206
827.88	25266
828.02	25046
828.159	25251
828.298	25278
828.437	25198
828.577	25308
828.716	25301
828.855	25171
828.994	25053
829.134	24886
829.273	25122
829.412	24779
829.551	24890
829.69	24844
829.829	24947
829.968	24954
830.107	25031
830.246	24973
830.385	24837
830.524	24837
830.663	24932
830.802	24673
830.941	24544
831.08	24380
831.219	24597
831.357	24749
831.496	24688
831.635	24646
831.774	24574
831.913	24418
832.051	24357
832.19	24350
832.329	24460
832.467	24296
832.606	24213
832.744	24334
832.883	24270
833.022	24213
833.16	24262
833.299	24350
833.437	24209
833.576	24407
833.714	24323
833.852	24369
833.991	24471
834.129	24315
834.267	24384
834.406	24327
834.544	24407
834.682	24266
834.821	24194
834.959	24460
835.097	24247
835.235	24388
835.373	24319
835.511	24380
835.65	24201
835.788	24239
835.926	24064
836.064	23977
836.202	24038
836.34	24087
836.478	24239
836.615	24171
836.753	24171
836.891	24277
837.029	24194
837.167	24133
837.305	24018
837.443	23958
837.58	23958
837.718	24076
837.856	23954
837.993	24053
838.131	24018
838.269	23916
838.406	23863
838.544	23821
838.681	23813
838.819	23539
838.956	23478
839.094	23398
839.231	23531
839.369	23646
839.506	23878
839.643	23699
839.781	23471
839.918	23379
840.055	23482
840.193	23429
840.33	23493
840.467	23455
840.604	23417
840.742	23520
840.879	23170
841.016	23250
841.153	23330
841.29	23501
841.427	23322
841.564	23455
841.701	23356
841.838	23159
841.975	23322
842.112	23299
842.249	23155
842.385	23189
842.522	23307
842.659	23166
842.796	23121
842.933	23204
843.069	23090
843.206	23254
843.343	23181
843.479	23075
843.616	23113
843.752	22957
843.889	22927
844.025	23094
844.162	22892
844.298	22968
844.435	22927
844.571	22995
844.708	23037
844.844	23140
844.98	23102
845.117	23056
845.253	22885
845.389	22801
845.525	22869
845.661	22854
845.798	22630
845.934	22767
846.07	22618
846.206	22820
846.342	22664
846.478	22611
846.614	22500
846.75	22386
846.886	22284
847.022	22371
847.158	22398
847.294	22432
847.429	22466
847.565	22443
847.701	22554
847.837	22150
847.972	22196
848.108	22249
848.244	22325
848.379	22032
848.515	21979
848.65	21922
848.786	21991
848.921	21903
849.057	22128
849.192	22029
849.328	21937
849.463	21903
849.598	21915
849.734	21808
849.869	21804
850.004	21762
850.14	21774
850.275	21732
850.41	21599
850.545	21671
850.68	21682
850.815	21743
850.95	21648
851.085	21934
851.22	21789
851.355	21778
851.49	21679
851.625	21800
851.76	21667
851.895	21629
852.03	21610
852.165	21701
852.299	21800
852.434	21941
852.569	21709
852.703	21671
852.838	21751
852.973	21899
853.107	21854
853.242	21686
853.376	21568
853.511	21462
853.645	21488
853.78	21648
853.914	21576
854.048	21485
854.183	21500
854.317	21610
854.451	21755
854.585	21610
854.72	21462
854.854	21618
854.988	21447
855.122	21519
855.256	21530
855.39	21473
855.524	21564
855.658	21526
855.792	21587
855.926	21542
856.06	21652
856.194	21595
856.327	21538
856.461	21549
856.595	21534
856.729	21701
856.862	21637
856.996	21743
857.13	21622
857.263	21583
857.397	21633
857.53	21580
857.664	21648
857.797	21709
857.931	21625
858.064	21656
858.197	21564
858.331	21545
858.464	21534
858.597	21359
858.731	21599
858.864	21568
858.997	21526
859.13	21534
859.263	21466
859.396	21576
859.529	21492
859.662	21473
859.795	21431
859.928	21572
860.061	21660
860.194	21736
860.327	21633
860.46	21580
860.592	21671
860.725	21736
860.858	21778
860.99	21553
861.123	21507
861.256	21500
861.388	21454
861.521	22284
861.653	21454
861.786	21359
861.918	21435
862.05	21279
862.183	21412
862.315	21424
862.447	21435
862.58	21435
862.712	21260
862.844	21218
862.976	21325
863.108	21272
863.24	21618
863.372	21329
863.504	21222
863.636	21226
863.768	21367
863.9	21230
864.032	21165
864.164	21233
864.296	21306
864.428	21389
864.559	21329
864.691	21245
864.823	21241
864.954	21298
865.086	21226
865.217	21131
865.349	20986
865.48	21180
865.612	21154
865.743	21230
865.875	21214
866.006	21195
866.137	21154
866.269	21157
866.4	21112
866.531	21116
866.662	21157
866.793	20979
866.924	21176
867.055	21123
867.186	21096
867.317	21032
867.448	20960
867.579	20967
867.71	20845
867.841	20937
867.972	21211
868.103	21176
868.233	21108
868.364	21146
868.495	21154
868.625	21249
868.756	21416
868.886	21272
869.017	21321
869.147	21378
869.278	21355
869.408	21291
869.539	21279
869.669	21351
869.799	21336
869.929	21306
870.06	21466
870.19	21679
870.32	21538
870.45	21587
870.58	21816
870.71	21705
870.84	21781
870.97	21686
871.1	21781
871.23	21873
871.36	21930
871.489	21972
871.619	21884
871.749	21956
871.879	21960
872.008	21975
872.138	21880
872.267	21876
872.397	21838
872.526	21797
872.656	21812
872.785	21682
872.915	21945
873.044	22067
873.173	21964
873.303	22044
873.432	21987
873.561	21941
873.69	22021
873.819	21934
873.948	22029
874.077	21934
874.206	21770
874.335	21964
874.464	22013
874.593	22169
874.722	22147
874.851	22303
874.979	22204
875.108	22219
875.237	22090
875.365	22006
875.494	22196
875.623	22226
875.751	22242
875.88	22303
876.008	22238
876.136	22402
876.265	22573
876.393	22637
876.521	22561
876.65	22664
876.778	22519
876.906	22504
877.034	22557
877.162	22592
877.29	22538
877.418	22508
877.546	22538
877.674	22489
877.802	22424
877.93	22428
878.058	22580
878.185	22462
878.313	22424
878.441	22432
878.568	22394
878.696	22466
878.824	22519
878.951	22603
879.079	22736
879.206	22721
879.333	22588
879.461	22443
879.588	22462
879.715	22637
879.842	22896
879.97	22653
880.097	22287
880.224	22344
880.351	22356
880.478	22280
880.605	22200
880.732	22226
880.859	22447
880.986	22303
881.112	22219
881.239	22154
881.366	22143
881.493	22051
881.619	22021
881.746	21895
881.872	21953
881.999	21934
882.125	21808
882.252	21918
882.378	21854
882.505	21888
882.631	21793
882.757	21606
882.883	21690
883.01	21435
883.136	21595
883.262	21439
883.388	21416
883.514	21576
883.64	21606
883.766	21572
883.892	21344
884.018	21416
884.143	21644
884.269	21625
884.395	21279
884.52	21275
884.646	21245
884.772	21123
884.897	21207
885.023	21211
885.148	21344
885.274	21386
885.399	21283
885.524	21218
885.65	21222
885.775	21313
885.9	21184
886.025	21275
886.15	21370
886.275	21317
886.4	21154
886.525	21077
886.65	21161
886.775	21169
886.9	21249
887.025	21344
887.149	21222
887.274	21009
887.399	21081
887.523	21009
887.648	20826
887.773	20982
887.897	21039
888.021	21233
888.146	20963
888.27	20971
888.395	20975
888.519	21005
888.643	20952
888.767	21062
888.891	20975
889.015	20830
889.139	20800
889.263	20849
889.387	20941
889.511	21024
889.635	20948
889.759	20880
889.883	20735
890.006	20857
890.13	20880
890.254	20754
890.377	20746
890.501	20609
890.624	20590
890.748	20644
890.871	20446
890.995	20267
891.118	20374
891.241	20457
891.364	20393
891.488	20442
891.611	20381
891.734	20431
891.857	20457
891.98	20442
892.103	20275
892.226	20434
892.349	20324
892.471	20210
892.594	20244
892.717	20351
892.839	20305
892.962	20298
893.085	20309
893.207	20240
893.33	20122
893.452	20142
893.575	20263
893.697	20286
893.819	20412
893.941	20415
894.064	20434
894.186	20301
894.308	20233
894.43	20298
894.552	20377
894.674	20332
894.796	20317
894.918	20191
895.04	20195
895.161	20256
895.283	20317
895.405	20183
895.526	20286
895.648	20214
895.769	20317
895.891	20358
896.012	20374
896.134	20317
896.255	20305
896.376	20233
896.498	20229
896.619	20240
896.74	20282
896.861	20351
896.982	20552
897.103	20800
897.224	20537
897.345	20389
897.466	20393
897.587	20507
897.708	20697
897.828	20465
897.949	20431
898.07	20267
898.19	20457
898.311	20575
898.431	20450
898.552	20473
898.672	20469
898.792	20492
898.913	20564
899.033	20404
899.153	20278
899.273	20278
899.393	20153
899.513	20271
899.633	20225
899.753	20263
899.873	20145
899.993	20229
900.113	20149
900.232	20199
900.352	20161
900.472	20020
900.591	20020
900.711	20077
900.83	19928
900.95	20092
901.069	20035
901.189	19883
901.308	19635
901.427	19544
901.546	19651
901.665	19628
901.784	19616
901.904	19415
902.023	19369
902.141	19263
902.26	19145
902.379	19175
902.498	19065
902.617	19042
902.735	19129
902.854	19027
902.973	18970
903.091	18802
903.21	18745
903.328	18646
903.446	18730
903.565	18570
903.683	18620
903.801	18528
903.919	18681
904.038	18429
904.156	18388
904.274	18365
904.392	18285
904.51	18273
904.627	18403
904.745	18410
904.863	18403
904.981	18098
905.098	18041
905.216	17958
905.334	18041
905.451	17950
905.569	17939
905.686	17999
905.803	17954
905.921	17802
906.038	17954
906.155	17638
906.272	17695
906.389	17703
906.506	17543
906.623	17459
906.74	17463
906.857	17391
906.974	17421
907.091	17482
907.208	17657
907.324	17562
907.441	17493
907.557	17284
907.674	17258
907.79	17193
907.907	17220
908.023	17269
908.139	17242
908.256	17162
908.372	17200
908.488	17170
908.604	17022
908.72	17018
908.836	17006
908.952	16904
909.068	17018
909.184	17109
909.3	16854
909.415	17014
909.531	16999
909.647	16717
909.762	16615
909.878	16733
909.993	16656
910.108	16630
910.224	16565
910.339	16634
910.454	16462
910.57	16508
910.685	16360
910.8	16630
910.915	16660
911.03	16402
911.145	16265
911.259	16265
911.374	16166
911.489	16242
911.604	16166
911.718	15960
911.833	15960
911.947	15865
912.062	15823
912.176	15930
912.291	15949
912.405	15892
912.519	16101
912.633	16139
912.748	16044
912.862	15953
912.976	15789
913.09	15660
913.204	15781
913.318	15800
913.431	15850
913.545	15861
913.659	16029
913.772	15736
913.886	15648
914	15606
914.113	15690
914.226	15728
914.34	15625
914.453	15462
914.566	15622
914.68	15477
914.793	15408
914.906	15275
915.019	15214
915.132	15222
915.245	15188
915.358	15176
915.47	15211
915.583	15184
915.696	15256
915.809	15207
915.921	15313
916.034	15127
916.146	15058
916.259	15112
916.371	15203
916.483	15127
916.595	15123
916.708	14975
916.82	15024
916.932	15017
917.044	14918
917.156	14914
917.268	14876
917.38	14861
917.491	14830
917.603	14826
917.715	14868
917.826	14880
917.938	14750
918.049	14727
918.161	14804
918.272	14952
918.384	14967
918.495	14815
918.606	14602
918.717	14659
918.828	14674
918.939	14632
919.05	14560
919.161	14697
919.272	14427
919.383	14552
919.494	14587
919.604	14872
919.715	14564
919.826	14579
919.936	14537
920.047	14697
920.157	14655
920.267	14743
920.378	14579
920.488	14457
920.598	14693
920.708	14876
920.818	14705
920.928	14785
921.038	14777
921.148	14811
921.258	14575
921.368	14355
921.477	14355
921.587	14419
921.697	14199
921.806	14157
921.916	14142
922.025	14008
922.134	13887
922.244	13955
922.353	14077
922.462	13757
922.571	13826
922.68	13643
922.789	13563
922.898	13624
923.007	13518
923.116	13681
923.224	13514
923.333	13571
923.442	13377
923.55	13411
923.659	13460
923.767	13487
923.876	13449
923.984	13403
924.092	13289
924.201	13316
924.309	13289
924.417	13312
924.525	13240
924.633	13236
924.741	13974
924.849	13069
924.956	13145
925.064	13027
925.172	12954
925.279	12973
925.387	13088
925.494	13050
925.602	13126
925.709	13076
925.816	12878
925.924	12966
926.031	12981
926.138	12920
926.245	12924
926.352	12814
926.459	12935
926.566	13038
926.673	12966
926.779	12707
926.886	12696
926.993	12612
927.099	12536
927.206	12555
927.312	12437
927.419	12540
927.525	12536
927.631	12589
927.737	12475
927.843	12361
927.95	12308
928.056	12311
928.162	12429
928.267	12452
928.373	13046
928.479	12486
928.585	12220
928.69	12338
928.796	12361
928.901	12334
929.007	12155
929.112	12213
929.218	12114
929.323	12220
929.428	12098
929.533	12228
929.638	12079
929.743	12049
929.848	12041
929.953	11977
930.058	11973
930.163	11767
930.267	11840
930.372	11965
930.477	11775
930.581	12083
930.685	11855
930.79	11630
930.894	11813
930.998	11657
931.103	11737
931.207	11410
931.311	11455
931.415	11216
931.519	11098
931.623	11094
