Data from test_V78500241_2222.txt Node
Date: Fri Mar 25 15:25:19 CST 2022
User: usil
Spectrometer: V785-0024
Trigger mode: 0
Integration Time (sec): 4.000000E-1
Scans to average: 1
Nonlinearity correction enabled: false
Boxcar width: 0
Storing dark spectrum: false
XAxis mode: Wavelengths
Number of Pixels in Spectrum: 1024
>>>>>Begin Spectral Data<<<<<
801.071	27793
801.214	27736
801.356	27538
801.499	27473
801.641	27332
801.783	27431
801.926	27473
802.068	27310
802.211	27389
802.353	27245
802.496	27028
802.638	27028
802.78	26956
802.923	26853
803.065	26861
803.208	26963
803.35	27013
803.492	27062
803.635	27089
803.777	27081
803.919	27165
804.061	27427
804.204	27359
804.346	27180
804.488	27135
804.63	27157
804.773	27184
804.915	27119
805.057	27283
805.199	27047
805.341	27237
805.483	27336
805.626	27367
805.768	27321
805.91	27272
806.052	27363
806.194	27245
806.336	27481
806.478	27450
806.62	27382
806.762	27393
806.904	27545
807.046	27876
807.188	27732
807.33	27728
807.472	27819
807.614	27667
807.756	27774
807.898	27500
808.04	27443
808.182	27538
808.324	27637
808.465	27633
808.607	27857
808.749	28025
808.891	28154
809.033	28082
809.174	28021
809.316	28070
809.458	28036
809.6	28017
809.741	28124
809.883	28059
810.025	28257
810.166	28284
810.308	28116
810.45	28196
810.591	28063
810.733	27911
810.875	27899
811.016	27857
811.158	27888
811.299	28090
811.441	27987
811.582	28074
811.724	27937
811.865	27831
812.007	27968
812.148	27987
812.29	28017
812.431	28112
812.573	28257
812.714	28382
812.855	28363
812.997	28634
813.138	28618
813.279	28645
813.421	28538
813.562	28428
813.703	28352
813.845	28166
813.986	27861
814.127	27812
814.268	27595
814.41	27667
814.551	27709
814.692	27675
814.833	27690
814.974	27572
815.115	27804
815.256	27412
815.397	27538
815.539	27351
815.68	27405
815.821	27260
815.962	27507
816.103	27367
816.244	27401
816.385	27135
816.526	27230
816.666	27017
816.807	26948
816.948	27024
817.089	26826
817.23	26925
817.371	26906
817.512	26952
817.653	26971
817.793	26826
817.934	26918
818.075	26937
818.216	26880
818.356	26994
818.497	26849
818.638	26609
818.778	26609
818.919	26663
819.06	26651
819.2	26792
819.341	27081
819.481	26823
819.622	27085
819.762	27089
819.903	27108
820.043	27009
820.184	27085
820.324	27081
820.465	27184
820.605	26998
820.746	27100
820.886	26826
821.026	26868
821.167	27055
821.307	27089
821.447	26830
821.588	26746
821.728	26522
821.868	26507
822.008	26408
822.149	26244
822.289	26187
822.429	26195
822.569	26058
822.709	26229
822.849	25830
822.99	25887
823.13	25902
823.27	25803
823.41	25567
823.55	25556
823.69	25769
823.83	25776
823.97	25571
824.11	25407
824.25	25411
824.389	25571
824.529	25578
824.669	25354
824.809	25655
824.949	25548
825.089	25479
825.228	25529
825.368	25365
825.508	25434
825.648	25441
825.787	25502
825.927	25426
826.067	25320
826.206	25362
826.346	25441
826.485	25339
826.625	25362
826.765	25449
826.904	25502
827.044	25168
827.183	25065
827.323	25057
827.462	25107
827.601	25171
827.741	25031
827.88	25122
828.02	24985
828.159	25019
828.298	25042
828.437	25148
828.577	25004
828.716	25202
828.855	25050
828.994	24779
829.134	24848
829.273	24802
829.412	24730
829.551	24852
829.69	24772
829.829	24871
829.968	24939
830.107	24817
830.246	24760
830.385	24730
830.524	24688
830.663	24612
830.802	24597
830.941	24315
831.08	24311
831.219	24426
831.357	24448
831.496	24551
831.635	24490
831.774	24270
831.913	24327
832.051	24220
832.19	24121
832.329	24220
832.467	24186
832.606	23965
832.744	24038
832.883	24083
833.022	24045
833.16	24057
833.299	24095
833.437	24015
833.576	24152
833.714	24106
833.852	24289
833.991	24034
834.129	24228
834.267	24136
834.406	24072
834.544	24182
834.682	24083
834.821	24117
834.959	24285
835.097	24060
835.235	24095
835.373	24098
835.511	24053
835.65	24026
835.788	23984
835.926	23866
836.064	23836
836.202	23859
836.34	23961
836.478	24011
836.615	23916
836.753	23931
836.891	23965
837.029	23958
837.167	23809
837.305	23809
837.443	23840
837.58	23859
837.718	23999
837.856	23863
837.993	23756
838.131	23813
838.269	23649
838.406	23832
838.544	23535
838.681	23387
838.819	23448
838.956	23227
839.094	23337
839.231	23368
839.369	23421
839.506	23722
839.643	23360
839.781	23189
839.918	23159
840.055	23258
840.193	23273
840.33	23212
840.467	23223
840.604	23170
840.742	23490
840.879	23037
841.016	23090
841.153	22949
841.29	23189
841.427	23235
841.564	23197
841.701	22938
841.838	23037
841.975	22976
842.112	23109
842.249	22980
842.385	22904
842.522	23341
842.659	22873
842.796	22995
842.933	22949
843.069	22896
843.206	22854
843.343	22957
843.479	23014
843.616	22866
843.752	22877
843.889	22637
844.025	22850
844.162	22679
844.298	22881
844.435	22672
844.571	22672
844.708	22782
844.844	22782
844.98	22881
845.117	22801
845.253	22592
845.389	22508
845.525	22481
845.661	22481
845.798	22421
845.934	22546
846.07	22497
846.206	22478
846.342	22466
846.478	22337
846.614	22215
846.75	22070
846.886	22185
847.022	22246
847.158	22116
847.294	22116
847.429	22185
847.565	22048
847.701	22276
847.837	21934
847.972	21823
848.108	22048
848.244	21975
848.379	21800
848.515	21694
848.65	21778
848.786	21766
848.921	21797
849.057	21774
849.192	21880
849.328	21656
849.463	21751
849.598	21778
849.734	21648
849.869	21496
850.004	21576
850.14	21622
850.275	21538
850.41	21469
850.545	21473
850.68	21450
850.815	21523
850.95	21477
851.085	21660
851.22	21610
851.355	21454
851.49	21447
851.625	21450
851.76	21431
851.895	21466
852.03	21397
852.165	21443
852.299	21473
852.434	21534
852.569	21435
852.703	21454
852.838	21572
852.973	21656
853.107	21667
853.242	21511
853.376	21374
853.511	21165
853.645	21298
853.78	21378
853.914	21272
854.048	21283
854.183	21222
854.317	21412
854.451	21583
854.585	21389
854.72	21469
854.854	21485
854.988	21268
855.122	21355
855.256	21165
855.39	21298
855.524	21511
855.658	21412
855.792	21386
855.926	21344
856.06	21336
856.194	21469
856.327	21192
856.461	21218
856.595	21192
856.729	21294
856.862	21378
856.996	21351
857.13	21325
857.263	21336
857.397	21405
857.53	21325
857.664	21435
857.797	21416
857.931	21435
858.064	21393
858.197	21504
858.331	21268
858.464	21226
858.597	21272
858.731	21283
858.864	21401
858.997	21287
859.13	21298
859.263	21420
859.396	21393
859.529	21363
859.662	21306
859.795	21287
859.928	21397
860.061	21458
860.194	21534
860.327	21332
860.46	21340
860.592	21420
860.725	21583
860.858	21439
860.99	21378
861.123	21233
861.256	21226
861.388	21321
861.521	22063
861.653	21230
861.786	21013
861.918	21165
862.05	21146
862.183	21389
862.315	21260
862.447	21294
862.58	21245
862.712	21081
862.844	20944
862.976	21112
863.108	21051
863.24	21344
863.372	20937
863.504	21096
863.636	21070
863.768	21195
863.9	21036
864.032	21005
864.164	20838
864.296	21070
864.428	21119
864.559	21241
864.691	21104
864.823	21077
864.954	21055
865.086	20986
865.217	20899
865.349	20743
865.48	20952
865.612	21005
865.743	21100
865.875	21032
866.006	20861
866.137	20963
866.269	20902
866.4	20876
866.531	20929
866.662	20857
866.793	20937
866.924	20891
867.055	20792
867.186	20918
867.317	20918
867.448	20712
867.579	20788
867.71	20667
867.841	20842
867.972	20777
868.103	20754
868.233	20868
868.364	20849
868.495	21013
868.625	21062
868.756	21157
868.886	21028
869.017	21195
869.147	21264
869.278	21283
869.408	21032
869.539	21119
869.669	21203
869.799	21195
869.929	21230
870.06	21150
870.19	21317
870.32	21401
870.45	21519
870.58	21424
870.71	21599
870.84	21622
870.97	21473
871.1	21496
871.23	21808
871.36	21682
871.489	21637
871.619	21633
871.749	21663
871.879	21660
872.008	21865
872.138	21857
872.267	21675
872.397	21542
872.526	21591
872.656	21698
872.785	21686
872.915	21793
873.044	21789
873.173	21694
873.303	21701
873.432	21724
873.561	21865
873.69	21762
873.819	21838
873.948	21770
874.077	21709
874.206	21606
874.335	21675
874.464	21861
874.593	21892
874.722	21892
874.851	21979
874.979	21873
875.108	21994
875.237	21842
875.365	21911
875.494	21793
875.623	22029
875.751	21918
875.88	22017
876.008	22116
876.136	22177
876.265	22329
876.393	22295
876.521	22459
876.65	22440
876.778	22360
876.906	22272
877.034	22265
877.162	22291
877.29	22242
877.418	22265
877.546	22375
877.674	22230
877.802	22268
877.93	22204
878.058	22230
878.185	22128
878.313	22215
878.441	22299
878.568	22135
878.696	22280
878.824	22249
878.951	22341
879.079	22523
879.206	22577
879.333	22493
879.461	22379
879.588	22337
879.715	22459
879.842	22474
879.97	22276
880.097	22215
880.224	22196
880.351	22139
880.478	22147
880.605	22112
880.732	22211
880.859	22352
880.986	22109
881.112	22124
881.239	21975
881.366	21789
881.493	21789
881.619	21629
881.746	21694
881.872	21755
881.999	21606
882.125	21603
882.252	21743
882.378	21675
882.505	21793
882.631	21572
882.757	21462
882.883	21454
883.01	21348
883.136	21317
883.262	21226
883.388	21180
883.514	21287
883.64	21485
883.766	21294
883.892	21211
884.018	21226
884.143	21359
884.269	21462
884.395	21028
884.52	20838
884.646	21116
884.772	21100
884.897	20849
885.023	21096
885.148	21009
885.274	21165
885.399	21085
885.524	21108
885.65	21009
885.775	21135
885.9	20937
886.025	21112
886.15	21214
886.275	20944
886.4	20868
886.525	20948
886.65	20899
886.775	20887
886.9	21070
887.025	21310
887.149	20998
887.274	20830
887.399	20830
887.523	20739
887.648	20807
887.773	20819
887.897	20830
888.021	20868
888.146	20682
888.27	20925
888.395	20883
888.519	20857
888.643	20849
888.767	20826
888.891	20621
889.015	20617
889.139	20571
889.263	20571
889.387	20788
889.511	20804
889.635	20587
889.759	20533
889.883	20518
890.006	20617
890.13	20697
890.254	20564
890.377	20431
890.501	20343
890.624	20415
890.748	20347
890.871	20248
890.995	20187
891.118	19986
891.241	20214
891.364	20259
891.488	20309
891.611	20187
891.734	20187
891.857	20301
891.98	20301
892.103	20119
892.226	20142
892.349	20122
892.471	20031
892.594	20084
892.717	20100
892.839	19967
892.962	19951
893.085	20107
893.207	19967
893.33	20008
893.452	19955
893.575	20130
893.697	20020
893.819	20145
893.941	20225
894.064	20191
894.186	19959
894.308	20172
894.43	20157
894.552	20278
894.674	20126
894.796	19986
894.918	20012
895.04	20088
895.161	20119
895.283	19944
895.405	20119
895.526	20069
895.648	20050
895.769	20046
895.891	20138
896.012	20084
896.134	20115
896.255	20043
896.376	20012
896.498	20077
896.619	20073
896.74	19967
896.861	20100
896.982	20526
897.103	20564
897.224	20412
897.345	20275
897.466	20111
897.587	20290
897.708	20431
897.828	20389
897.949	20214
898.07	20130
898.19	20157
898.311	20442
898.431	20263
898.552	20214
898.672	20317
898.792	20332
898.913	20240
899.033	20145
899.153	20138
899.273	19852
899.393	20035
899.513	20103
899.633	20073
899.753	20069
899.873	19928
899.993	20081
900.113	20069
900.232	20039
900.352	19986
900.472	19871
900.591	19765
900.711	19788
900.83	19791
900.95	19864
901.069	19852
901.189	19681
901.308	19601
901.427	19521
901.546	19392
901.665	19445
901.784	19369
901.904	19411
902.023	19084
902.141	19065
902.26	18951
902.379	18920
902.498	18928
902.617	18848
902.735	19038
902.854	18825
902.973	18829
903.091	18593
903.21	18483
903.328	18532
903.446	18585
903.565	18353
903.683	18414
903.801	18357
903.919	18304
904.038	18327
904.156	18159
904.274	18186
904.392	18136
904.51	18194
904.627	18098
904.745	18178
904.863	18125
904.981	17977
905.098	17805
905.216	17836
905.334	17832
905.451	17859
905.569	17718
905.686	17866
905.803	17817
905.921	17627
906.038	17608
906.155	17543
906.272	17493
906.389	17703
906.506	17315
906.623	17436
906.74	17376
906.857	17254
906.974	17356
907.091	17471
907.208	17406
907.324	17311
907.441	17284
907.557	17109
907.674	17056
907.79	16927
907.907	17079
908.023	17079
908.139	17067
908.256	17045
908.372	16892
908.488	16972
908.604	16820
908.72	16828
908.836	16843
908.952	16820
909.068	16923
909.184	16869
909.3	16824
909.415	16850
909.531	16759
909.647	16569
909.762	16523
909.878	16443
909.993	16424
910.108	16455
910.224	16371
910.339	16436
910.454	16493
910.57	16246
910.685	16223
910.8	16508
910.915	16443
911.03	16344
911.145	16116
911.259	16029
911.374	16120
911.489	16154
911.604	15911
911.718	15831
911.833	15899
911.947	15770
912.062	15637
912.176	15846
912.291	15789
912.405	15770
912.519	15987
912.633	16017
912.748	15888
912.862	15861
912.976	15614
913.09	15511
913.204	15629
913.318	15633
913.431	15755
913.545	15705
913.659	15720
913.772	15614
913.886	15469
914	15488
914.113	15584
914.226	15584
914.34	15641
914.453	15367
914.566	15393
914.68	15412
914.793	15363
914.906	15104
915.019	15142
915.132	15123
915.245	15138
915.358	15081
915.47	15047
915.583	14933
915.696	15131
915.809	15116
915.921	15146
916.034	14952
916.146	14948
916.259	14914
916.371	15017
916.483	14971
916.595	14902
916.708	14952
916.82	14975
916.932	14830
917.044	14872
917.156	14845
917.268	14735
917.38	14819
917.491	14792
917.603	14670
917.715	14849
917.826	14948
917.938	14598
918.049	14476
918.161	14727
918.272	14765
918.384	14777
918.495	14590
918.606	14415
918.717	14328
918.828	14549
918.939	14454
919.05	14408
919.161	14415
919.272	14183
919.383	14324
919.494	14613
919.604	14762
919.715	14492
919.826	14393
919.936	14492
920.047	14568
920.157	14404
920.267	14648
920.378	14476
920.488	14362
920.598	14625
920.708	14663
920.818	14587
920.928	14526
921.038	14743
921.148	14720
921.258	14457
921.368	14256
921.477	14180
921.587	14164
921.697	14008
921.806	14115
921.916	14035
922.025	13871
922.134	13803
922.244	13761
922.353	13856
922.462	13677
922.571	13537
922.68	13441
922.789	13426
922.898	13529
923.007	13476
923.116	13548
923.224	13438
923.333	13483
923.442	13327
923.55	13278
923.659	13331
923.767	13331
923.876	13270
923.984	13392
924.092	13141
924.201	13270
924.309	13274
924.417	13168
924.525	13088
924.633	13099
924.741	13883
924.849	12901
924.956	13145
925.064	12901
925.172	12719
925.279	12916
925.387	12856
925.494	12844
925.602	12993
925.709	12901
925.816	12726
925.924	12856
926.031	12970
926.138	12905
926.245	12859
926.352	12768
926.459	12825
926.566	12905
926.673	12776
926.779	12601
926.886	12654
926.993	12471
927.099	12422
927.206	12395
927.312	12407
927.419	12563
927.525	12365
927.631	12353
927.737	12388
927.843	12311
927.95	12213
928.056	12243
928.162	12258
928.267	12350
928.373	12894
928.479	12357
928.585	12186
928.69	12209
928.796	12308
928.901	12148
929.007	12053
929.112	12068
929.218	12152
929.323	12072
929.428	11969
929.533	12087
929.638	11893
929.743	11946
929.848	11912
929.953	11984
930.058	11840
930.163	11642
930.267	11718
930.372	11840
930.477	11642
930.581	11828
930.685	11760
930.79	11528
930.894	11573
930.998	11440
931.103	11741
931.207	11326
931.311	11292
931.415	11075
931.519	11045
931.623	10972
