Data from test_V78500241_1625.txt Node
Date: Fri Mar 25 15:21:10 CST 2022
User: usil
Spectrometer: V785-0024
Trigger mode: 0
Integration Time (sec): 4.000000E-1
Scans to average: 1
Nonlinearity correction enabled: false
Boxcar width: 0
Storing dark spectrum: false
XAxis mode: Wavelengths
Number of Pixels in Spectrum: 1024
>>>>>Begin Spectral Data<<<<<
801.071	27850
801.214	27926
801.356	27728
801.499	27709
801.641	27397
801.783	27519
801.926	27488
802.068	27408
802.211	27515
802.353	27443
802.496	27138
802.638	27142
802.78	27119
802.923	27058
803.065	27066
803.208	27264
803.35	27195
803.492	27252
803.635	27378
803.777	27233
803.919	27332
804.061	27705
804.204	27344
804.346	27374
804.488	27173
804.63	27230
804.773	27435
804.915	27363
805.057	27485
805.199	27382
805.341	27504
805.483	27412
805.626	27416
805.768	27313
805.91	27363
806.052	27477
806.194	27367
806.336	27599
806.478	27610
806.62	27504
806.762	27576
806.904	27709
807.046	28013
807.188	27998
807.33	27884
807.472	27956
807.614	27804
807.756	27831
807.898	27774
808.04	27720
808.182	27713
808.324	27739
808.465	27774
808.607	27991
808.749	28086
808.891	28200
809.033	28200
809.174	28105
809.316	27968
809.458	28082
809.6	28116
809.741	28101
809.883	28344
810.025	28318
810.166	28230
810.308	28424
810.45	28348
810.591	28261
810.733	28207
810.875	28044
811.016	28025
811.158	27991
811.299	28287
811.441	28204
811.582	28261
811.724	28067
811.865	28120
812.007	28055
812.148	28124
812.29	28166
812.431	28219
812.573	28466
812.714	28561
812.855	28630
812.997	28611
813.138	28904
813.279	28797
813.421	28607
813.562	28538
813.703	28401
813.845	28246
813.986	28032
814.127	27949
814.268	27625
814.41	27785
814.551	27846
814.692	27880
814.833	27770
814.974	27797
815.115	27838
815.256	27770
815.397	27686
815.539	27648
815.68	27511
815.821	27542
815.962	27477
816.103	27496
816.244	27485
816.385	27397
816.526	27336
816.666	27188
816.807	27104
816.948	27218
817.089	27157
817.23	27241
817.371	27066
817.512	27154
817.653	27131
817.793	27032
817.934	27043
818.075	27135
818.216	27074
818.356	27058
818.497	26925
818.638	26826
818.778	26804
818.919	26963
819.06	26804
819.2	26868
819.341	27043
819.481	27203
819.622	27055
819.762	27298
819.903	27386
820.043	27279
820.184	27226
820.324	27310
820.465	27218
820.605	27332
820.746	27135
820.886	26952
821.026	27173
821.167	27039
821.307	27161
821.447	27062
821.588	27074
821.728	26883
821.868	26606
822.008	26545
822.149	26499
822.289	26613
822.429	26366
822.569	26195
822.709	26187
822.849	26172
822.99	26096
823.13	25909
823.27	25932
823.41	25864
823.55	25852
823.69	25883
823.83	25868
823.97	25841
824.11	25601
824.25	25674
824.389	25605
824.529	25719
824.669	25757
824.809	25890
824.949	25852
825.089	25856
825.228	25700
825.368	25590
825.508	25518
825.648	25506
825.787	25495
825.927	25708
826.067	25506
826.206	25453
826.346	25514
826.485	25510
826.625	25457
826.765	25597
826.904	25472
827.044	25430
827.183	25346
827.323	25228
827.462	25377
827.601	25293
827.741	25278
827.88	25358
828.02	25259
828.159	25190
828.298	25225
828.437	25335
828.577	25354
828.716	25449
828.855	25107
828.994	25031
829.134	24890
829.273	25061
829.412	24821
829.551	24916
829.69	24973
829.829	24894
829.968	25088
830.107	25065
830.246	25038
830.385	24966
830.524	24856
830.663	24867
830.802	24635
830.941	24547
831.08	24604
831.219	24772
831.357	24700
831.496	24798
831.635	24578
831.774	24642
831.913	24334
832.051	24410
832.19	24330
832.329	24365
832.467	24311
832.606	24121
832.744	24228
832.883	24266
833.022	24243
833.16	24369
833.299	24239
833.437	24213
833.576	24323
833.714	24330
833.852	24251
833.991	24342
834.129	24403
834.267	24296
834.406	24224
834.544	24391
834.682	24353
834.821	24243
834.959	24559
835.097	24266
835.235	24353
835.373	24334
835.511	24102
835.65	24235
835.788	24209
835.926	24068
836.064	23999
836.202	23961
836.34	24201
836.478	24197
836.615	24030
836.753	24057
836.891	24144
837.029	24163
837.167	24136
837.305	24053
837.443	23893
837.58	24018
837.718	24106
837.856	24125
837.993	23843
838.131	23904
838.269	23832
838.406	23977
838.544	23859
838.681	23562
838.819	23748
838.956	23642
839.094	23539
839.231	23493
839.369	23672
839.506	23802
839.643	23619
839.781	23505
839.918	23444
840.055	23482
840.193	23482
840.33	23376
840.467	23467
840.604	23353
840.742	23436
840.879	23151
841.016	23258
841.153	23193
841.29	23497
841.427	23387
841.564	23524
841.701	23299
841.838	23254
841.975	23200
842.112	23208
842.249	23159
842.385	22965
842.522	23337
842.659	23307
842.796	23025
842.933	23143
843.069	23025
843.206	23136
843.343	23193
843.479	23162
843.616	23140
843.752	22980
843.889	23056
844.025	22911
844.162	22866
844.298	22995
844.435	22915
844.571	22850
844.708	23014
844.844	23090
844.98	23083
845.117	23037
845.253	22839
845.389	22828
845.525	22797
845.661	22698
845.798	22622
845.934	22679
846.07	22580
846.206	22584
846.342	22755
846.478	22557
846.614	22493
846.75	22295
846.886	22314
847.022	22436
847.158	22421
847.294	22398
847.429	22409
847.565	22455
847.701	22561
847.837	22177
847.972	22063
848.108	22204
848.244	22185
848.379	21949
848.515	22021
848.65	21930
848.786	22029
848.921	21998
849.057	22166
849.192	21983
849.328	21930
849.463	22013
849.598	21895
849.734	21823
849.869	21778
850.004	21751
850.14	21728
850.275	21755
850.41	21648
850.545	21884
850.68	21641
850.815	21781
850.95	21743
851.085	21842
851.22	21895
851.355	21793
851.49	21705
851.625	21641
851.76	21466
851.895	21679
852.03	21603
852.165	21690
852.299	21717
852.434	21797
852.569	21766
852.703	21743
852.838	21759
852.973	21698
853.107	21926
853.242	21603
853.376	21690
853.511	21485
853.645	21473
853.78	21644
853.914	21557
854.048	21572
854.183	21534
854.317	21587
854.451	21751
854.585	21587
854.72	21500
854.854	21713
854.988	21454
855.122	21416
855.256	21382
855.39	21542
855.524	21583
855.658	21542
855.792	21652
855.926	21564
856.06	21606
856.194	21660
856.327	21523
856.461	21386
856.595	21408
856.729	21469
856.862	21568
856.996	21690
857.13	21507
857.263	21652
857.397	21690
857.53	21545
857.664	21542
857.797	21534
857.931	21713
858.064	21534
858.197	21679
858.331	21523
858.464	21424
858.597	21382
858.731	21469
858.864	21526
858.997	21606
859.13	21530
859.263	21488
859.396	21614
859.529	21504
859.662	21561
859.795	21507
859.928	21587
860.061	21724
860.194	21701
860.327	21523
860.46	21488
860.592	21663
860.725	21705
860.858	21679
860.99	21557
861.123	21496
861.256	21481
861.388	21545
861.521	22158
861.653	21496
861.786	21382
861.918	21382
862.05	21462
862.183	21397
862.315	21492
862.447	21473
862.58	21412
862.712	21176
862.844	21077
862.976	21241
863.108	21393
863.24	21713
863.372	21131
863.504	21272
863.636	21279
863.768	21165
863.9	21180
864.032	21218
864.164	21195
864.296	21321
864.428	21283
864.559	21192
864.691	21249
864.823	21325
864.954	21313
865.086	21192
865.217	21207
865.349	21096
865.48	21093
865.612	21157
865.743	21157
865.875	21192
866.006	21070
866.137	21184
866.269	21089
866.4	21241
866.531	21013
866.662	21093
866.793	21104
866.924	21058
867.055	21142
867.186	21112
867.317	20876
867.448	21005
867.579	21070
867.71	20902
867.841	20952
867.972	21074
868.103	21081
868.233	21005
868.364	21077
868.495	21173
868.625	21310
868.756	21355
868.886	21184
869.017	21393
869.147	21420
869.278	21481
869.408	21325
869.539	21344
869.669	21511
869.799	21348
869.929	21405
870.06	21374
870.19	21656
870.32	21671
870.45	21633
870.58	21686
870.71	21781
870.84	21915
870.97	21667
871.1	21736
871.23	21899
871.36	21949
871.489	21854
871.619	21876
871.749	21880
871.879	21964
872.008	22055
872.138	21983
872.267	21888
872.397	21762
872.526	21816
872.656	21724
872.785	21827
872.915	21964
873.044	21983
873.173	21937
873.303	21865
873.432	21934
873.561	21972
873.69	22025
873.819	21857
873.948	21983
874.077	21774
874.206	21778
874.335	21903
874.464	22120
874.593	22048
874.722	22109
874.851	22120
874.979	22158
875.108	22337
875.237	22135
875.365	22207
875.494	22169
875.623	22204
875.751	22036
875.88	22128
876.008	22154
876.136	22322
876.265	22455
876.393	22687
876.521	22653
876.65	22641
876.778	22405
876.906	22394
877.034	22417
877.162	22687
877.29	22500
877.418	22493
877.546	22546
877.674	22489
877.802	22459
877.93	22531
878.058	22443
878.185	22348
878.313	22386
878.441	22497
878.568	22204
878.696	22375
878.824	22706
878.951	22634
879.079	22489
879.206	22812
879.333	22637
879.461	22519
879.588	22702
879.715	22622
879.842	22740
879.97	22527
880.097	22382
880.224	22284
880.351	22382
880.478	22337
880.605	22325
880.732	22341
880.859	22500
880.986	22333
881.112	22230
881.239	22257
881.366	22040
881.493	21949
881.619	21975
881.746	21888
881.872	21865
881.999	21865
882.125	21781
882.252	21975
882.378	21751
882.505	21949
882.631	21690
882.757	21538
882.883	21595
883.01	21568
883.136	21572
883.262	21515
883.388	21378
883.514	21599
883.64	21576
883.766	21549
883.892	21291
884.018	21469
884.143	21557
884.269	21625
884.395	21291
884.52	21317
884.646	21249
884.772	21237
884.897	21211
885.023	21142
885.148	21294
885.274	21348
885.399	21272
885.524	21222
885.65	21294
885.775	21089
885.9	21211
886.025	21313
886.15	21203
886.275	21199
886.4	21043
886.525	21138
886.65	21074
886.775	21222
886.9	21374
887.025	21348
887.149	21104
887.274	20914
887.399	21017
887.523	20979
887.648	20880
887.773	20925
887.897	21013
888.021	21043
888.146	20918
888.27	21043
888.395	21001
888.519	21055
888.643	21020
888.767	21085
888.891	20838
889.015	20762
889.139	20845
889.263	20781
889.387	20880
889.511	20956
889.635	20891
889.759	20746
889.883	20750
890.006	20800
890.13	20826
890.254	20697
890.377	20758
890.501	20568
890.624	20423
890.748	20686
890.871	20320
890.995	20298
891.118	20237
891.241	20526
891.364	20339
891.488	20461
891.611	20282
891.734	20381
891.857	20465
891.98	20377
892.103	20438
892.226	20275
892.349	20252
892.471	20145
892.594	20374
892.717	20252
892.839	20248
892.962	20282
893.085	20202
893.207	20294
893.33	20252
893.452	20206
893.575	20328
893.697	20199
893.819	20351
893.941	20271
894.064	20396
894.186	20195
894.308	20111
894.43	20404
894.552	20339
894.674	20248
894.796	20084
894.918	20176
895.04	20138
895.161	20313
895.283	20206
895.405	20218
895.526	20267
895.648	20225
895.769	20282
895.891	20313
896.012	20362
896.134	20229
896.255	20256
896.376	20256
896.498	20263
896.619	20305
896.74	20263
896.861	20366
896.982	20659
897.103	20724
897.224	20541
897.345	20484
897.466	20400
897.587	20461
897.708	20507
897.828	20442
897.949	20431
898.07	20271
898.19	20263
898.311	20621
898.431	20507
898.552	20492
898.672	20442
898.792	20457
898.913	20575
899.033	20237
899.153	20282
899.273	20195
899.393	20130
899.513	20324
899.633	20214
899.753	20145
899.873	20088
899.993	20229
900.113	20168
900.232	20168
900.352	20130
900.472	20054
900.591	19967
900.711	20054
900.83	19837
900.95	19978
901.069	20062
901.189	19894
901.308	19556
901.427	19533
901.546	19594
901.665	19586
901.784	19537
901.904	19419
902.023	19251
902.141	19160
902.26	19122
902.379	19118
902.498	19061
902.617	19209
902.735	19050
902.854	19091
902.973	18985
903.091	18734
903.21	18726
903.328	18745
903.446	18608
903.565	18608
903.683	18612
903.801	18433
903.919	18490
904.038	18429
904.156	18243
904.274	18422
904.392	18296
904.51	18235
904.627	18197
904.745	18369
904.863	18319
904.981	18110
905.098	17904
905.216	17973
905.334	18011
905.451	17988
905.569	17901
905.686	17954
905.803	17954
905.921	17733
906.038	17805
906.155	17771
906.272	17668
906.389	17748
906.506	17509
906.623	17592
906.74	17505
906.857	17402
906.974	17566
907.091	17528
907.208	17703
907.324	17532
907.441	17425
907.557	17315
907.674	17341
907.79	17246
907.907	17254
908.023	17208
908.139	17197
908.256	17227
908.372	17086
908.488	17124
908.604	17006
908.72	16869
908.836	17022
908.952	16919
909.068	16987
909.184	17067
909.3	16976
909.415	16911
909.531	16885
909.647	16774
909.762	16744
909.878	16717
909.993	16649
910.108	16626
910.224	16611
910.339	16660
910.454	16588
910.57	16451
910.685	16462
910.8	16694
910.915	16630
911.03	16348
911.145	16371
911.259	16192
911.374	16177
911.489	16211
911.604	16090
911.718	15945
911.833	15960
911.947	15926
912.062	15895
912.176	15991
912.291	15975
912.405	15960
912.519	16181
912.633	16192
912.748	15949
912.862	16013
912.976	15835
913.09	15667
913.204	15876
913.318	15857
913.431	16002
913.545	15876
913.659	15892
913.772	15797
913.886	15572
914	15671
914.113	15705
914.226	15785
914.34	15591
914.453	15504
914.566	15614
914.68	15530
914.793	15401
914.906	15230
915.019	15195
915.132	15199
915.245	15214
915.358	15241
915.47	15161
915.583	15192
915.696	15325
915.809	15332
915.921	15408
916.034	15051
916.146	15066
916.259	15058
916.371	15119
916.483	15138
916.595	14990
916.708	15097
916.82	15055
916.932	15062
917.044	15032
917.156	14998
917.268	14937
917.38	14857
917.491	14743
917.603	14815
917.715	14887
917.826	14937
917.938	14773
918.049	14708
918.161	14788
918.272	14864
918.384	14910
918.495	14853
918.606	14594
918.717	14621
918.828	14556
918.939	14575
919.05	14412
919.161	14712
919.272	14320
919.383	14537
919.494	14610
919.604	14864
919.715	14636
919.826	14522
919.936	14644
920.047	14682
920.157	14625
920.267	14845
920.378	14564
920.488	14511
920.598	14693
920.708	14861
920.818	14743
920.928	14610
921.038	14811
921.148	14765
921.258	14545
921.368	14473
921.477	14396
921.587	14267
921.697	14103
921.806	14282
921.916	14145
922.025	13986
922.134	13898
922.244	13868
922.353	13967
922.462	13856
922.571	13723
922.68	13685
922.789	13696
922.898	13620
923.007	13586
923.116	13715
923.224	13601
923.333	13655
923.442	13468
923.55	13449
923.659	13419
923.767	13487
923.876	13301
923.984	13434
924.092	13301
924.201	13362
924.309	13324
924.417	13373
924.525	13297
924.633	13259
924.741	14267
924.849	13076
924.956	13282
925.064	13046
925.172	13046
925.279	13065
925.387	13042
925.494	12989
925.602	13156
925.709	13023
925.816	12928
925.924	12939
926.031	13084
926.138	12920
926.245	12943
926.352	12821
926.459	12970
926.566	13069
926.673	12924
926.779	12810
926.886	12760
926.993	12574
927.099	12635
927.206	12437
927.312	12490
927.419	12662
927.525	12559
927.631	12559
927.737	12391
927.843	12399
927.95	12277
928.056	12361
928.162	12403
928.267	12448
928.373	13000
928.479	12502
928.585	12296
928.69	12292
928.796	12384
928.901	12239
929.007	12129
929.112	12235
929.218	12258
929.323	12159
929.428	12057
929.533	12277
929.638	12060
929.743	12091
929.848	12098
929.953	12030
930.058	11904
930.163	11828
930.267	11878
930.372	11950
930.477	11760
930.581	12015
930.685	11859
930.79	11668
930.894	11653
930.998	11649
931.103	11832
931.207	11524
931.311	11402
931.415	11334
931.519	11075
931.623	11075
