Data from test_V78500241_2429.txt Node
Date: Fri Mar 25 15:26:46 CST 2022
User: usil
Spectrometer: V785-0024
Trigger mode: 0
Integration Time (sec): 4.000000E-1
Scans to average: 1
Nonlinearity correction enabled: false
Boxcar width: 0
Storing dark spectrum: false
XAxis mode: Wavelengths
Number of Pixels in Spectrum: 1024
>>>>>Begin Spectral Data<<<<<
801.071	27154
801.214	27089
801.356	26933
801.499	26746
801.641	26667
801.783	26606
801.926	26720
802.068	26739
802.211	26556
802.353	26587
802.496	26412
802.638	26332
802.78	26313
802.923	26317
803.065	26206
803.208	26126
803.35	26313
803.492	26427
803.635	26423
803.777	26351
803.919	26526
804.061	26807
804.204	26514
804.346	26442
804.488	26343
804.63	26492
804.773	26393
804.915	26404
805.057	26537
805.199	26423
805.341	26499
805.483	26640
805.626	26583
805.768	26415
805.91	26648
806.052	26598
806.194	26522
806.336	26727
806.478	26602
806.62	26511
806.762	26743
806.904	26971
807.046	26994
807.188	26986
807.33	26963
807.472	27100
807.614	27066
807.756	26868
807.898	26834
808.04	26857
808.182	26727
808.324	26807
808.465	26754
808.607	27096
808.749	27062
808.891	27237
809.033	27302
809.174	27180
809.316	27116
809.458	27249
809.6	27127
809.741	27268
809.883	27195
810.025	27397
810.166	27325
810.308	27367
810.45	27412
810.591	27184
810.733	27222
810.875	27085
811.016	26891
811.158	27116
811.299	27150
811.441	27161
811.582	27230
811.724	27161
811.865	27009
812.007	27180
812.148	27154
812.29	27325
812.431	27268
812.573	27416
812.714	27534
812.855	27739
812.997	27629
813.138	27975
813.279	27781
813.421	27591
813.562	27633
813.703	27447
813.845	27336
813.986	27039
814.127	26925
814.268	26842
814.41	26758
814.551	26708
814.692	26804
814.833	26796
814.974	26705
815.115	26819
815.256	26697
815.397	26670
815.539	26663
815.68	26533
815.821	26492
815.962	26571
816.103	26629
816.244	26431
816.385	26366
816.526	26370
816.666	26161
816.807	26012
816.948	26210
817.089	26298
817.23	26157
817.371	26092
817.512	26073
817.653	25951
817.793	26081
817.934	25875
818.075	26134
818.216	26096
818.356	25978
818.497	25955
818.638	25769
818.778	25841
818.919	25761
819.06	25871
819.2	25818
819.341	26035
819.481	25966
819.622	26221
819.762	26374
819.903	26290
820.043	26153
820.184	26195
820.324	26172
820.465	26172
820.605	26149
820.746	26065
820.886	26043
821.026	26130
821.167	26073
821.307	26100
821.447	26077
821.588	25909
821.728	25784
821.868	25628
822.008	25441
822.149	25605
822.289	25479
822.429	25274
822.569	25255
822.709	25133
822.849	25031
822.99	24973
823.13	24932
823.27	24970
823.41	24802
823.55	24734
823.69	24806
823.83	24795
823.97	24669
824.11	24631
824.25	24692
824.389	24681
824.529	24776
824.669	24612
824.809	24840
824.949	24829
825.089	24802
825.228	24783
825.368	24559
825.508	24490
825.648	24525
825.787	24604
825.927	24578
826.067	24479
826.206	24521
826.346	24563
826.485	24604
826.625	24509
826.765	24688
826.904	24639
827.044	24350
827.183	24178
827.323	24182
827.462	24292
827.601	24289
827.741	24239
827.88	24209
828.02	24148
828.159	24144
828.298	24243
828.437	24292
828.577	24121
828.716	24224
828.855	24133
828.994	23946
829.134	23904
829.273	23939
829.412	23946
829.551	23874
829.69	23893
829.829	23969
829.968	24045
830.107	24083
830.246	23878
830.385	23973
830.524	23908
830.663	23703
830.802	23710
830.941	23573
831.08	23634
831.219	23592
831.357	23756
831.496	23729
831.635	23623
831.774	23486
831.913	23395
832.051	23364
832.19	23258
832.329	23406
832.467	23254
832.606	23121
832.744	23174
832.883	23128
833.022	23223
833.16	23143
833.299	23235
833.437	23200
833.576	23353
833.714	23486
833.852	23318
833.991	23307
834.129	23421
834.267	23337
834.406	23326
834.544	23341
834.682	23360
834.821	23292
834.959	23474
835.097	23315
835.235	23322
835.373	23334
835.511	23311
835.65	23094
835.788	23162
835.926	23018
836.064	22946
836.202	22984
836.34	23105
836.478	23269
836.615	23105
836.753	23200
836.891	23181
837.029	23174
837.167	23102
837.305	23136
837.443	23041
837.58	23037
837.718	23014
837.856	23044
837.993	22999
838.131	23044
838.269	22923
838.406	23052
838.544	22778
838.681	22672
838.819	22672
838.956	22569
839.094	22470
839.231	22470
839.369	22736
839.506	22850
839.643	22721
839.781	22470
839.918	22478
840.055	22508
840.193	22375
840.33	22478
840.467	22428
840.604	22519
840.742	22637
840.879	22325
841.016	22329
841.153	22428
841.29	22481
841.427	22322
841.564	22466
841.701	22303
841.838	22386
841.975	22188
842.112	22390
842.249	22257
842.385	22120
842.522	22352
842.659	22223
842.796	22074
842.933	22265
843.069	22238
843.206	22029
843.343	22226
843.479	22268
843.616	22200
843.752	21945
843.889	21960
844.025	22048
844.162	21945
844.298	22021
844.435	21888
844.571	21869
844.708	22139
844.844	22173
844.98	22150
845.117	22135
845.253	21884
845.389	21819
845.525	21915
845.661	21743
845.798	21587
845.934	21686
846.07	21751
846.206	21679
846.342	21762
846.478	21595
846.614	21389
846.75	21355
846.886	21348
847.022	21564
847.158	21420
847.294	21534
847.429	21439
847.565	21374
847.701	21660
847.837	21150
847.972	21089
848.108	21355
848.244	21279
848.379	21154
848.515	20982
848.65	20971
848.786	21085
848.921	20971
849.057	21116
849.192	21199
849.328	21184
849.463	21024
849.598	21020
849.734	20937
849.869	20880
850.004	20807
850.14	20746
850.275	20826
850.41	20769
850.545	20811
850.68	20826
850.815	20727
850.95	20762
851.085	20937
851.22	20781
851.355	20830
851.49	20815
851.625	20857
851.76	20788
851.895	20682
852.03	20670
852.165	20727
852.299	20651
852.434	20823
852.569	20857
852.703	20720
852.838	20788
852.973	21024
853.107	20826
853.242	20693
853.376	20682
853.511	20454
853.645	20602
853.78	20670
853.914	20613
854.048	20552
854.183	20640
854.317	20667
854.451	20792
854.585	20579
854.72	20598
854.854	20777
854.988	20606
855.122	20644
855.256	20549
855.39	20560
855.524	20689
855.658	20609
855.792	20670
855.926	20659
856.06	20621
856.194	20674
856.327	20613
856.461	20533
856.595	20598
856.729	20511
856.862	20746
856.996	20632
857.13	20720
857.263	20674
857.397	20773
857.53	20537
857.664	20609
857.797	20762
857.931	20727
858.064	20606
858.197	20716
858.331	20575
858.464	20583
858.597	20522
858.731	20552
858.864	20575
858.997	20583
859.13	20552
859.263	20587
859.396	20720
859.529	20602
859.662	20606
859.795	20537
859.928	20522
860.061	20838
860.194	20971
860.327	20564
860.46	20609
860.592	20629
860.725	20750
860.858	20785
860.99	20594
861.123	20560
861.256	20507
861.388	20655
861.521	21112
861.653	20499
861.786	20438
861.918	20484
862.05	20480
862.183	20537
862.315	20560
862.447	20648
862.58	20533
862.712	20393
862.844	20358
862.976	20393
863.108	20484
863.24	20758
863.372	20092
863.504	20199
863.636	20271
863.768	20351
863.9	20381
864.032	20248
864.164	20180
864.296	20313
864.428	20518
864.559	20400
864.691	20442
864.823	20225
864.954	20423
865.086	20351
865.217	20347
865.349	20191
865.48	20229
865.612	20214
865.743	20370
865.875	20275
866.006	20153
866.137	20374
866.269	20122
866.4	20240
866.531	20130
866.662	20100
866.793	20016
866.924	20187
867.055	20332
867.186	20157
867.317	20122
867.448	19986
867.579	20122
867.71	19993
867.841	20145
867.972	20054
868.103	20077
868.233	20138
868.364	20153
868.495	20317
868.625	20275
868.756	20507
868.886	20419
869.017	20488
869.147	20579
869.278	20507
869.408	20419
869.539	20511
869.669	20461
869.799	20423
869.929	20606
870.06	20484
870.19	20701
870.32	20625
870.45	20823
870.58	20781
870.71	20853
870.84	20982
870.97	20792
871.1	20804
871.23	20986
871.36	21093
871.489	20857
871.619	20998
871.749	20948
871.879	21077
872.008	21119
872.138	20956
872.267	20872
872.397	20891
872.526	20933
872.656	20902
872.785	20781
872.915	21043
873.044	21146
873.173	21024
873.303	20937
873.432	21081
873.561	21127
873.69	20986
873.819	21077
873.948	21096
874.077	21017
874.206	21005
874.335	21001
874.464	21119
874.593	21287
874.722	21245
874.851	21317
874.979	21249
875.108	21405
875.237	21378
875.365	21275
875.494	21279
875.623	21378
875.751	21306
875.88	21287
876.008	21439
876.136	21408
876.265	21557
876.393	21876
876.521	21850
876.65	21785
876.778	21633
876.906	21648
877.034	21637
877.162	21648
877.29	21466
877.418	21644
877.546	21736
877.674	21648
877.802	21523
877.93	21656
878.058	21599
878.185	21606
878.313	21614
878.441	21576
878.568	21511
878.696	21523
878.824	21713
878.951	21789
879.079	21762
879.206	21816
879.333	21698
879.461	21671
879.588	21713
879.715	21778
879.842	21827
879.97	21732
880.097	21462
880.224	21397
880.351	21435
880.478	21561
880.605	21439
880.732	21424
880.859	21644
880.986	21469
881.112	21538
881.239	21447
881.366	21249
881.493	21192
881.619	21062
881.746	21165
881.872	21127
881.999	21058
882.125	20887
882.252	21009
882.378	20982
882.505	21245
882.631	20925
882.757	20788
882.883	20941
883.01	20796
883.136	20712
883.262	20625
883.388	20674
883.514	20792
883.64	20762
883.766	20682
883.892	20560
884.018	20473
884.143	20674
884.269	20769
884.395	20495
884.52	20408
884.646	20317
884.772	20446
884.897	20294
885.023	20423
885.148	20469
885.274	20552
885.399	20480
885.524	20476
885.65	20473
885.775	20457
885.9	20499
886.025	20530
886.15	20526
886.275	20339
886.4	20263
886.525	20377
886.65	20244
886.775	20404
886.9	20530
887.025	20571
887.149	20271
887.274	20142
887.399	20092
887.523	20062
887.648	20252
887.773	20199
887.897	20225
888.021	20180
888.146	20153
888.27	20389
888.395	20343
888.519	20259
888.643	20214
888.767	20229
888.891	20069
889.015	20062
889.139	20081
889.263	19970
889.387	20043
889.511	20111
889.635	20142
889.759	19993
889.883	19947
890.006	19909
890.13	20046
890.254	19852
890.377	19811
890.501	19674
890.624	19791
890.748	19772
890.871	19590
890.995	19670
891.118	19449
891.241	19712
891.364	19597
891.488	19556
891.611	19499
891.734	19628
891.857	19651
891.98	19556
892.103	19613
892.226	19529
892.349	19453
892.471	19324
892.594	19445
892.717	19590
892.839	19483
892.962	19483
893.085	19449
893.207	19464
893.33	19354
893.452	19434
893.575	19639
893.697	19335
893.819	19723
893.941	19734
894.064	19719
894.186	19426
894.308	19396
894.43	19639
894.552	19647
894.674	19590
894.796	19426
894.918	19354
895.04	19426
895.161	19597
895.283	19537
895.405	19441
895.526	19502
895.648	19419
895.769	19441
895.891	19491
896.012	19449
896.134	19464
896.255	19480
896.376	19491
896.498	19506
896.619	19540
896.74	19533
896.861	19449
896.982	19902
897.103	20100
897.224	19742
897.345	19712
897.466	19742
897.587	19696
897.708	19868
897.828	19833
897.949	19712
898.07	19510
898.19	19727
898.311	19750
898.431	19643
898.552	19742
898.672	19807
898.792	19811
898.913	19765
899.033	19635
899.153	19483
899.273	19346
899.393	19438
899.513	19480
899.633	19483
899.753	19483
899.873	19445
899.993	19567
900.113	19373
900.232	19502
900.352	19430
900.472	19282
900.591	19198
900.711	19228
900.83	19156
900.95	19339
901.069	19377
901.189	19107
901.308	19038
901.427	18886
901.546	18863
901.665	18905
901.784	18981
901.904	18753
902.023	18673
902.141	18502
902.26	18479
902.379	18452
902.498	18407
902.617	18289
902.735	18357
902.854	18304
902.973	18285
903.091	18163
903.21	18041
903.328	18022
903.446	17939
903.565	17965
903.683	17897
903.801	17790
903.919	17771
904.038	17699
904.156	17726
904.274	17703
904.392	17596
904.51	17672
904.627	17657
904.745	17718
904.863	17680
904.981	17463
905.098	17330
905.216	17322
905.334	17376
905.451	17265
905.569	17242
905.686	17398
905.803	17303
905.921	17143
906.038	17193
906.155	17060
906.272	16987
906.389	16908
906.506	16854
906.623	16965
906.74	16854
906.857	16782
906.974	16710
907.091	16885
907.208	16900
907.324	16752
907.441	16752
907.557	16656
907.674	16592
907.79	16459
907.907	16519
908.023	16580
908.139	16565
908.256	16504
908.372	16432
908.488	16363
908.604	16329
908.72	16253
908.836	16344
908.952	16196
909.068	16341
909.184	16394
909.3	16249
909.415	16295
909.531	16249
909.647	16101
909.762	16051
909.878	16048
909.993	16086
910.108	16002
910.224	15991
910.339	15998
910.454	15842
910.57	15892
910.685	15797
910.8	15964
910.915	15998
911.03	15720
911.145	15641
911.259	15591
911.374	15629
911.489	15439
911.604	15515
911.718	15382
911.833	15355
911.947	15249
912.062	15176
912.176	15367
912.291	15310
912.405	15310
912.519	15481
912.633	15408
912.748	15454
912.862	15367
912.976	15093
913.09	15135
913.204	15127
913.318	15154
913.431	15214
913.545	15306
913.659	15264
913.772	15135
913.886	14998
914	15036
914.113	15154
914.226	15150
914.34	15036
914.453	14857
914.566	14979
914.68	14864
914.793	14804
914.906	14754
915.019	14564
915.132	14552
915.245	14594
915.358	14621
915.47	14564
915.583	14655
915.696	14533
915.809	14712
915.921	14697
916.034	14640
916.146	14526
916.259	14415
916.371	14629
916.483	14674
916.595	14385
916.708	14442
916.82	14400
916.932	14427
917.044	14457
917.156	14415
917.268	14351
917.38	14252
917.491	14271
917.603	14419
917.715	14389
917.826	14355
917.938	14202
918.049	14164
918.161	14183
918.272	14389
918.384	14336
918.495	14202
918.606	14012
918.717	13970
918.828	14062
918.939	14088
919.05	13890
919.161	13986
919.272	13841
919.383	13856
919.494	14111
919.604	14229
919.715	14012
919.826	13989
919.936	13887
920.047	14054
920.157	14024
920.267	14324
920.378	14111
920.488	13909
920.598	14172
920.708	14370
920.818	14145
920.928	14202
921.038	14358
921.148	14298
921.258	14062
921.368	13871
921.477	13871
921.587	13780
921.697	13689
921.806	13746
921.916	13651
922.025	13381
922.134	13476
922.244	13324
922.353	13441
922.462	13274
922.571	13202
922.68	13129
922.789	13110
922.898	13141
923.007	13034
923.116	13156
923.224	13076
923.333	13129
923.442	12951
923.55	12722
923.659	13000
923.767	13038
923.876	12890
923.984	12913
924.092	12749
924.201	12852
924.309	12871
924.417	12791
924.525	12749
924.633	12852
924.741	13662
924.849	12536
924.956	12753
925.064	12563
925.172	12513
925.279	12525
925.387	12551
925.494	12464
925.602	12662
925.709	12563
925.816	12441
925.924	12502
926.031	12498
926.138	12391
926.245	12544
926.352	12338
926.459	12483
926.566	12517
926.673	12407
926.779	12232
926.886	12281
926.993	12133
927.099	12136
927.206	12068
927.312	12057
927.419	12072
927.525	12087
927.631	12079
927.737	11992
927.843	11939
927.95	11923
928.056	11977
928.162	11950
928.267	11961
928.373	12639
928.479	12007
928.585	11786
928.69	11950
928.796	11958
928.901	11866
929.007	11684
929.112	11771
929.218	11737
929.323	11684
929.428	11726
929.533	11813
929.638	11657
929.743	11611
929.848	11653
929.953	11703
930.058	11467
930.163	11303
930.267	11368
930.372	11440
930.477	11315
930.581	11600
930.685	11395
930.79	11315
930.894	11250
930.998	11239
931.103	11417
931.207	11022
931.311	10892
931.415	10831
931.519	10729
931.623	10672
