Data from test_V78500241_838.txt Node
Date: Fri Mar 25 15:15:41 CST 2022
User: usil
Spectrometer: V785-0024
Trigger mode: 0
Integration Time (sec): 4.000000E-1
Scans to average: 1
Nonlinearity correction enabled: false
Boxcar width: 0
Storing dark spectrum: false
XAxis mode: Wavelengths
Number of Pixels in Spectrum: 1024
>>>>>Begin Spectral Data<<<<<
801.071	28207
801.214	28188
801.356	27762
801.499	27857
801.641	27861
801.783	27789
801.926	27850
802.068	27899
802.211	27766
802.353	27743
802.496	27542
802.638	27549
802.78	27348
802.923	27534
803.065	27378
803.208	27424
803.35	27488
803.492	27561
803.635	27724
803.777	27439
803.919	27709
804.061	27941
804.204	27766
804.346	27713
804.488	27603
804.63	27580
804.773	27637
804.915	27732
805.057	27899
805.199	27724
805.341	27743
805.483	27960
805.626	27781
805.768	27686
805.91	27732
806.052	27850
806.194	27808
806.336	28002
806.478	27892
806.62	27865
806.762	28036
806.904	28101
807.046	28291
807.188	28295
807.33	28329
807.472	28192
807.614	28306
807.756	28382
807.898	28173
808.04	28029
808.182	28051
808.324	28017
808.465	28131
808.607	28440
808.749	28428
808.891	28706
809.033	28622
809.174	28523
809.316	28447
809.458	28489
809.6	28493
809.741	28645
809.883	28668
810.025	28869
810.166	28835
810.308	28793
810.45	28774
810.591	28774
810.733	28710
810.875	28493
811.016	28303
811.158	28405
811.299	28645
811.441	28717
811.582	28535
811.724	28459
811.865	28519
812.007	28542
812.148	28462
812.29	28588
812.431	28767
812.573	28850
812.714	28942
812.855	29025
812.997	29235
813.138	29315
813.279	29330
813.421	29052
813.562	28980
813.703	28957
813.845	28843
813.986	28622
814.127	28398
814.268	28333
814.41	28162
814.551	28219
814.692	28394
814.833	28230
814.974	28082
815.115	28154
815.256	28280
815.397	28207
815.539	28082
815.68	28063
815.821	28051
815.962	28021
816.103	28002
816.244	28070
816.385	28029
816.526	27762
816.666	27652
816.807	27447
816.948	27694
817.089	27614
817.23	27660
817.371	27496
817.512	27679
817.653	27473
817.793	27458
817.934	27561
818.075	27663
818.216	27637
818.356	27553
818.497	27500
818.638	27279
818.778	27302
818.919	27325
819.06	27355
819.2	27637
819.341	27660
819.481	27507
819.622	27618
819.762	27888
819.903	27789
820.043	27724
820.184	27804
820.324	27709
820.465	27736
820.605	27622
820.746	27591
820.886	27367
821.026	27663
821.167	27519
821.307	27667
821.447	27644
821.588	27488
821.728	27443
821.868	27272
822.008	26948
822.149	27081
822.289	26921
822.429	26708
822.569	26807
822.709	26701
822.849	26522
822.99	26621
823.13	26396
823.27	26446
823.41	26278
823.55	26362
823.69	26442
823.83	26286
823.97	26267
824.11	26294
824.25	26248
824.389	26111
824.529	26298
824.669	26229
824.809	26237
824.949	26210
825.089	26271
825.228	26347
825.368	26088
825.508	25986
825.648	26103
825.787	26225
825.927	26096
826.067	26027
826.206	26119
826.346	26046
826.485	26172
826.625	26054
826.765	26172
826.904	26202
827.044	25883
827.183	25757
827.323	25746
827.462	25871
827.601	25693
827.741	25662
827.88	25864
828.02	25700
828.159	25837
828.298	25734
828.437	25841
828.577	25784
828.716	25913
828.855	25685
828.994	25476
829.134	25365
829.273	25529
829.412	25529
829.551	25396
829.69	25415
829.829	25430
829.968	25613
830.107	25605
830.246	25441
830.385	25316
830.524	25400
830.663	25198
830.802	25148
830.941	25069
831.08	24939
831.219	25270
831.357	25133
831.496	25324
831.635	25148
831.774	24992
831.913	24939
832.051	24985
832.19	24928
832.329	24928
832.467	24894
832.606	24696
832.744	24627
832.883	24707
833.022	24654
833.16	24787
833.299	24871
833.437	24738
833.576	24817
833.714	24757
833.852	24814
833.991	24806
834.129	24882
834.267	24897
834.406	24722
834.544	24878
834.682	24783
834.821	24798
834.959	24973
835.097	24738
835.235	24897
835.373	24650
835.511	24749
835.65	24703
835.788	24620
835.926	24559
836.064	24540
836.202	24563
836.34	24620
836.478	24665
836.615	24654
836.753	24642
836.891	24635
837.029	24817
837.167	24570
837.305	24460
837.443	24563
837.58	24456
837.718	24604
837.856	24475
837.993	24391
838.131	24380
838.269	24357
838.406	24403
838.544	24311
838.681	24216
838.819	24152
838.956	24022
839.094	23958
839.231	24053
839.369	24091
839.506	24308
839.643	24174
839.781	24049
839.918	23992
840.055	23988
840.193	23950
840.33	23843
840.467	23828
840.604	23794
840.742	24083
840.879	23638
841.016	23665
841.153	23729
841.29	23908
841.427	23817
841.564	23958
841.701	23828
841.838	23805
841.975	23684
842.112	23817
842.249	23672
842.385	23604
842.522	23840
842.659	23718
842.796	23634
842.933	23642
843.069	23566
843.206	23516
843.343	23649
843.479	23520
843.616	23661
843.752	23398
843.889	23448
844.025	23611
844.162	23326
844.298	23436
844.435	23406
844.571	23269
844.708	23391
844.844	23615
844.98	23551
845.117	23630
845.253	23341
845.389	23315
845.525	23318
845.661	23284
845.798	23185
845.934	23170
846.07	23151
846.206	23079
846.342	23193
846.478	23109
846.614	22927
846.75	22740
846.886	22854
847.022	22881
847.158	22938
847.294	22797
847.429	22957
847.565	22698
847.701	22995
847.837	22577
847.972	22497
848.108	22683
848.244	22710
848.379	22459
848.515	22428
848.65	22322
848.786	22497
848.921	22504
849.057	22500
849.192	22478
849.328	22413
849.463	22455
849.598	22394
849.734	22325
849.869	22322
850.004	22230
850.14	22200
850.275	22200
850.41	22177
850.545	22207
850.68	22147
850.815	22318
850.95	22204
851.085	22428
851.22	22314
851.355	22181
851.49	22242
851.625	22219
851.76	22158
851.895	22299
852.03	22147
852.165	22318
852.299	22230
852.434	22280
852.569	22185
852.703	22226
852.838	22402
852.973	22230
853.107	22325
853.242	22078
853.376	21998
853.511	22025
853.645	21922
853.78	22090
853.914	21922
854.048	21915
854.183	21941
854.317	22150
854.451	22242
854.585	22105
854.72	21994
854.854	22070
854.988	21888
855.122	21987
855.256	21968
855.39	21850
855.524	21979
855.658	22128
855.792	22010
855.926	22055
856.06	22010
856.194	22124
856.327	22010
856.461	21945
856.595	21926
856.729	22082
856.862	22162
856.996	22032
857.13	22112
857.263	22044
857.397	22150
857.53	22017
857.664	21979
857.797	22067
857.931	22090
858.064	22044
858.197	22112
858.331	21960
858.464	22048
858.597	22040
858.731	22017
858.864	22017
858.997	21797
859.13	21953
859.263	22051
859.396	22207
859.529	21941
859.662	22029
859.795	22048
859.928	21964
860.061	22234
860.194	22211
860.327	22101
860.46	22055
860.592	22207
860.725	22143
860.858	22082
860.99	22055
861.123	21911
861.256	21781
861.388	22090
861.521	22801
861.653	21869
861.786	21770
861.918	21774
862.05	21975
862.183	21975
862.315	21968
862.447	21903
862.58	21960
862.712	21770
862.844	21603
862.976	21785
863.108	21751
863.24	22070
863.372	21549
863.504	21709
863.636	21717
863.768	21762
863.9	21736
864.032	21701
864.164	21709
864.296	21720
864.428	21842
864.559	21812
864.691	21808
864.823	21701
864.954	21663
865.086	21614
865.217	21583
865.349	21447
865.48	21492
865.612	21614
865.743	21785
865.875	21576
866.006	21561
866.137	21648
866.269	21580
866.4	21606
866.531	21481
866.662	21542
866.793	21477
866.924	21530
867.055	21500
867.186	21511
867.317	21500
867.448	21466
867.579	21477
867.71	21420
867.841	21504
867.972	21473
868.103	21466
868.233	21481
868.364	21564
868.495	21599
868.625	21633
868.756	21831
868.886	21804
869.017	21656
869.147	21884
869.278	21846
869.408	21778
869.539	21838
869.669	21812
869.799	21842
869.929	21895
870.06	21857
870.19	22074
870.32	22109
870.45	22078
870.58	22219
870.71	22329
870.84	22211
870.97	22192
871.1	22154
871.23	22303
871.36	22310
871.489	22382
871.619	22284
871.749	22352
871.879	22371
872.008	22485
872.138	22299
872.267	22299
872.397	22291
872.526	22169
872.656	22219
872.785	22188
872.915	22432
873.044	22360
873.173	22421
873.303	22344
873.432	22325
873.561	22459
873.69	22424
873.819	22421
873.948	22485
874.077	22459
874.206	22249
874.335	22303
874.464	22417
874.593	22672
874.722	22599
874.851	22615
874.979	22599
875.108	22584
875.237	22485
875.365	22413
875.494	22561
875.623	22607
875.751	22508
875.88	22462
876.008	22759
876.136	22843
876.265	22949
876.393	23003
876.521	23090
876.65	22938
876.778	22892
876.906	22919
877.034	22919
877.162	22854
877.29	22908
877.418	22953
877.546	22972
877.674	22835
877.802	22980
877.93	22930
878.058	22809
878.185	22736
878.313	22938
878.441	22984
878.568	22710
878.696	22733
878.824	22927
878.951	23052
879.079	23109
879.206	23288
879.333	23109
879.461	23052
879.588	22991
879.715	23113
879.842	23166
879.97	22911
880.097	22691
880.224	22748
880.351	22854
880.478	22767
880.605	22797
880.732	22786
880.859	22847
880.986	22805
881.112	22710
881.239	22634
881.366	22561
881.493	22443
881.619	22242
881.746	22284
881.872	22284
881.999	22310
882.125	22310
882.252	22280
882.378	22344
882.505	22382
882.631	22116
882.757	21972
882.883	22097
883.01	22044
883.136	21979
883.262	21804
883.388	21850
883.514	21987
883.64	22040
883.766	21892
883.892	21663
884.018	21823
884.143	22010
884.269	22025
884.395	21778
884.52	21652
884.646	21648
884.772	21507
884.897	21431
885.023	21644
885.148	21838
885.274	21785
885.399	21770
885.524	21667
885.65	21599
885.775	21526
885.9	21679
886.025	21694
886.15	21762
886.275	21515
886.4	21500
886.525	21743
886.65	21538
886.775	21481
886.9	21759
887.025	21793
887.149	21599
887.274	21401
887.399	21534
887.523	21462
887.648	21416
887.773	21313
887.897	21401
888.021	21431
888.146	21374
888.27	21485
888.395	21515
888.519	21428
888.643	21401
888.767	21435
888.891	21268
889.015	21195
889.139	21203
889.263	21119
889.387	21367
889.511	21439
889.635	21382
889.759	21169
889.883	21123
890.006	21241
890.13	21142
890.254	21138
890.377	21070
890.501	20998
890.624	20956
890.748	21043
890.871	20845
890.995	20613
891.118	20796
891.241	20777
891.364	20750
891.488	20906
891.611	20743
891.734	20868
891.857	20807
891.98	20781
892.103	20743
892.226	20708
892.349	20716
892.471	20564
892.594	20724
892.717	20708
892.839	20731
892.962	20678
893.085	20758
893.207	20735
893.33	20484
893.452	20587
893.575	20636
893.697	20682
893.819	20781
893.941	20777
894.064	20678
894.186	20552
894.308	20556
894.43	20739
894.552	20849
894.674	20705
894.796	20579
894.918	20613
895.04	20613
895.161	20792
895.283	20621
895.405	20530
895.526	20625
895.648	20689
895.769	20663
895.891	20689
896.012	20632
896.134	20659
896.255	20727
896.376	20594
896.498	20720
896.619	20754
896.74	20594
896.861	20674
896.982	20963
897.103	21192
897.224	20956
897.345	20811
897.466	20762
897.587	20849
897.708	20963
897.828	20963
897.949	20792
898.07	20735
898.19	20887
898.311	20914
898.431	20762
898.552	20883
898.672	20872
898.792	21047
898.913	20792
899.033	20788
899.153	20568
899.273	20499
899.393	20621
899.513	20609
899.633	20541
899.753	20583
899.873	20575
899.993	20651
900.113	20598
900.232	20530
900.352	20442
900.472	20415
900.591	20438
900.711	20381
900.83	20252
900.95	20564
901.069	20473
901.189	20286
901.308	19993
901.427	19967
901.546	19868
901.665	19841
901.784	19947
901.904	19776
902.023	19807
902.141	19518
902.26	19552
902.379	19563
902.498	19388
902.617	19491
902.735	19487
902.854	19244
902.973	19304
903.091	19221
903.21	19057
903.328	19004
903.446	19038
903.565	18985
903.683	18947
903.801	18871
903.919	18753
904.038	18757
904.156	18719
904.274	18764
904.392	18654
904.51	18585
904.627	18574
904.745	18620
904.863	18711
904.981	18494
905.098	18319
905.216	18224
905.334	18494
905.451	18414
905.569	18319
905.686	18429
905.803	18270
905.921	18064
906.038	18300
906.155	18117
906.272	17977
906.389	18098
906.506	17805
906.623	17958
906.74	17836
906.857	17802
906.974	17805
907.091	17889
907.208	18011
907.324	17878
907.441	17817
907.557	17680
907.674	17619
907.79	17665
907.907	17501
908.023	17604
908.139	17505
908.256	17573
908.372	17410
908.488	17501
908.604	17345
908.72	17303
908.836	17379
908.952	17326
909.068	17318
909.184	17402
909.3	17212
909.415	17425
909.531	17216
909.647	16961
909.762	16991
909.878	16915
909.993	17033
910.108	16938
910.224	16942
910.339	16942
910.454	16877
910.57	16759
910.685	16778
910.8	16980
910.915	16847
911.03	16835
911.145	16691
911.259	16607
911.374	16694
911.489	16516
911.604	16398
911.718	16375
911.833	16310
911.947	16223
912.062	16215
912.176	16272
912.291	16360
912.405	16284
912.519	16432
912.633	16546
912.748	16356
912.862	16390
912.976	16090
913.09	16017
913.204	16067
913.318	16040
913.431	16249
913.545	16173
913.659	16284
913.772	16055
913.886	15915
914	15873
914.113	16074
914.226	16093
914.34	16006
914.453	15857
914.566	15945
914.68	15739
914.793	15694
914.906	15584
915.019	15515
915.132	15534
915.245	15462
915.358	15526
915.47	15466
915.583	15568
915.696	15603
915.809	15603
915.921	15660
916.034	15287
916.146	15424
916.259	15329
916.371	15401
916.483	15443
916.595	15298
916.708	15279
916.82	15359
916.932	15268
917.044	15154
917.156	15169
917.268	15245
917.38	15169
917.491	15154
917.603	15188
917.715	15249
917.826	15340
917.938	15058
918.049	15047
918.161	15195
918.272	15211
918.384	15226
918.495	15039
918.606	14998
918.717	14925
918.828	14929
918.939	14944
919.05	14800
919.161	14838
919.272	14758
919.383	14727
919.494	14906
919.604	15104
919.715	14895
919.826	14826
919.936	14792
920.047	14891
920.157	14895
920.267	14979
920.378	14819
920.488	14868
920.598	15081
920.708	15119
920.818	15020
920.928	14979
921.038	15112
921.148	15142
921.258	14830
921.368	14674
921.477	14670
921.587	14590
921.697	14442
921.806	14522
921.916	14320
922.025	14305
922.134	14199
922.244	14142
922.353	14172
922.462	14103
922.571	13982
922.68	13803
922.789	13883
922.898	13883
923.007	13849
923.116	13917
923.224	13883
923.333	13845
923.442	13761
923.55	13681
923.659	13658
923.767	13791
923.876	13613
923.984	13643
924.092	13613
924.201	13689
924.309	13620
924.417	13556
924.525	13495
924.633	13556
924.741	14473
924.849	13362
924.956	13430
925.064	13346
925.172	13228
925.279	13278
925.387	13327
925.494	13274
925.602	13362
925.709	13270
925.816	13175
925.924	13244
926.031	13278
926.138	13179
926.245	13179
926.352	12996
926.459	13221
926.566	13312
926.673	13057
926.779	12970
926.886	13072
926.993	12810
927.099	12833
927.206	12817
927.312	12715
927.419	12795
927.525	12703
927.631	12833
927.737	12760
927.843	12673
927.95	12559
928.056	12589
928.162	12631
928.267	12715
928.373	13217
928.479	12623
928.585	12604
928.69	12589
928.796	12749
928.901	12418
929.007	12296
929.112	12521
929.218	12517
929.323	12422
929.428	12346
929.533	12513
929.638	12311
929.743	12289
929.848	12395
929.953	12216
930.058	12251
930.163	12091
930.267	12034
930.372	12155
930.477	12038
930.581	12220
930.685	12072
930.79	11988
930.894	11908
930.998	11973
931.103	12030
931.207	11691
931.311	11520
931.415	11486
931.519	11246
931.623	11288
