Data from test_V78500241_296.txt Node
Date: Fri Mar 25 15:11:55 CST 2022
User: usil
Spectrometer: V785-0024
Trigger mode: 0
Integration Time (sec): 4.000000E-1
Scans to average: 1
Nonlinearity correction enabled: false
Boxcar width: 0
Storing dark spectrum: false
XAxis mode: Wavelengths
Number of Pixels in Spectrum: 1024
>>>>>Begin Spectral Data<<<<<
801.071	27739
801.214	27728
801.356	27542
801.499	27496
801.641	27321
801.783	27310
801.926	27386
802.068	27336
802.211	27306
802.353	27203
802.496	27047
802.638	27051
802.78	26876
802.923	26883
803.065	26743
803.208	26868
803.35	26948
803.492	26975
803.635	27066
803.777	26971
803.919	27116
804.061	27325
804.204	27214
804.346	26921
804.488	27005
804.63	26853
804.773	26971
804.915	27043
805.057	27157
805.199	26982
805.341	27081
805.483	27161
805.626	26986
805.768	26990
805.91	26975
806.052	27104
806.194	27051
806.336	27329
806.478	27085
806.62	27195
806.762	27142
806.904	27447
807.046	27667
807.188	27530
807.33	27447
807.472	27622
807.614	27458
807.756	27492
807.898	27302
808.04	27180
808.182	27279
808.324	27367
808.465	27427
808.607	27549
808.749	27698
808.891	27854
809.033	28063
809.174	27819
809.316	27603
809.458	27686
809.6	27686
809.741	27671
809.883	27781
810.025	27960
810.166	27941
810.308	28078
810.45	27846
810.591	27914
810.733	27861
810.875	27618
811.016	27633
811.158	27447
811.299	27812
811.441	27816
811.582	27869
811.724	27671
811.865	27644
812.007	27720
812.148	27557
812.29	27709
812.431	27865
812.573	28040
812.714	27979
812.855	28070
812.997	28337
813.138	28451
813.279	28341
813.421	28295
813.562	28105
813.703	28105
813.845	28063
813.986	27504
814.127	27454
814.268	27283
814.41	27367
814.551	27222
814.692	27283
814.833	27321
814.974	27211
815.115	27332
815.256	27100
815.397	27131
815.539	27123
815.68	27138
815.821	27096
815.962	27211
816.103	27123
816.244	26918
816.385	26834
816.526	26842
816.666	26621
816.807	26549
816.948	26648
817.089	26655
817.23	26579
817.371	26678
817.512	26427
817.653	26571
817.793	26461
817.934	26560
818.075	26556
818.216	26511
818.356	26389
818.497	26495
818.638	26195
818.778	26206
818.919	26157
819.06	26244
819.2	26313
819.341	26465
819.481	26469
819.622	26636
819.762	26804
819.903	26731
820.043	26609
820.184	26587
820.324	26613
820.465	26644
820.605	26606
820.746	26579
820.886	26412
821.026	26526
821.167	26533
821.307	26518
821.447	26686
821.588	26556
821.728	26187
821.868	26233
822.008	25959
822.149	25887
822.289	25966
822.429	25723
822.569	25537
822.709	25799
822.849	25434
822.99	25483
823.13	25419
823.27	25430
823.41	25126
823.55	25091
823.69	25206
823.83	25206
823.97	25129
824.11	24951
824.25	25164
824.389	25053
824.529	25221
824.669	25118
824.809	25042
824.949	25164
825.089	25069
825.228	25080
825.368	24776
825.508	24894
825.648	24913
825.787	24871
825.927	25000
826.067	24863
826.206	24798
826.346	24951
826.485	25019
826.625	24810
826.765	25012
826.904	24882
827.044	24654
827.183	24627
827.323	24566
827.462	24578
827.601	24608
827.741	24601
827.88	24544
828.02	24536
828.159	24601
828.298	24589
828.437	24650
828.577	24486
828.716	24692
828.855	24483
828.994	24239
829.134	24216
829.273	24437
829.412	24281
829.551	24171
829.69	24311
829.829	24369
829.968	24403
830.107	24258
830.246	24270
830.385	24182
830.524	24152
830.663	24015
830.802	24007
830.941	23931
831.08	23707
831.219	23996
831.357	23988
831.496	24106
831.635	23847
831.774	23805
831.913	23676
832.051	23703
832.19	23737
832.329	23752
832.467	23642
832.606	23417
832.744	23516
832.883	23596
833.022	23433
833.16	23634
833.299	23619
833.437	23482
833.576	23630
833.714	23543
833.852	23714
833.991	23676
834.129	23714
834.267	23547
834.406	23566
834.544	23642
834.682	23577
834.821	23543
834.959	23764
835.097	23539
835.235	23642
835.373	23619
835.511	23600
835.65	23566
835.788	23448
835.926	23239
836.064	23231
836.202	23235
836.34	23356
836.478	23562
836.615	23368
836.753	23406
836.891	23516
837.029	23379
837.167	23330
837.305	23364
837.443	23261
837.58	23231
837.718	23220
837.856	23261
837.993	23140
838.131	23193
838.269	23044
838.406	23174
838.544	23174
838.681	22892
838.819	22847
838.956	22809
839.094	22729
839.231	22740
839.369	22869
839.506	23102
839.643	23037
839.781	22713
839.918	22664
840.055	22706
840.193	22592
840.33	22641
840.467	22615
840.604	22691
840.742	22930
840.879	22504
841.016	22489
841.153	22542
841.29	22740
841.427	22508
841.564	22603
841.701	22615
841.838	22557
841.975	22500
842.112	22561
842.249	22428
842.385	22363
842.522	22599
842.659	22386
842.796	22432
842.933	22447
843.069	22386
843.206	22379
843.343	22409
843.479	22314
843.616	22451
843.752	22173
843.889	22177
844.025	22303
844.162	21941
844.298	22325
844.435	22074
844.571	22154
844.708	22215
844.844	22223
844.98	22204
845.117	22257
845.253	22032
845.389	21975
845.525	22074
845.661	21884
845.798	21918
845.934	21991
846.07	21785
846.206	21816
846.342	21998
846.478	21983
846.614	21835
846.75	21519
846.886	21610
847.022	21595
847.158	21610
847.294	21686
847.429	21644
847.565	21656
847.701	21743
847.837	21393
847.972	21264
848.108	21393
848.244	21412
848.379	21146
848.515	21135
848.65	21195
848.786	21272
848.921	21188
849.057	21165
849.192	21222
849.328	21317
849.463	21176
849.598	21051
849.734	21131
849.869	21066
850.004	21009
850.14	21028
850.275	20925
850.41	20842
850.545	20910
850.68	20880
850.815	20872
850.95	20906
851.085	21077
851.22	21005
851.355	21013
851.49	20849
851.625	20838
851.76	20956
851.895	20815
852.03	20868
852.165	20826
852.299	20902
852.434	20891
852.569	20899
852.703	21013
852.838	21055
852.973	21043
853.107	21020
853.242	20781
853.376	20731
853.511	20609
853.645	20632
853.78	21017
853.914	20800
854.048	20678
854.183	20655
854.317	20758
854.451	21005
854.585	20594
854.72	20716
854.854	20883
854.988	20613
855.122	20720
855.256	20640
855.39	20743
855.524	20735
855.658	20811
855.792	20727
855.926	20739
856.06	20746
856.194	20826
856.327	20697
856.461	20621
856.595	20682
856.729	20731
856.862	20887
856.996	20804
857.13	20880
857.263	20857
857.397	20826
857.53	20758
857.664	20777
857.797	20838
857.931	20872
858.064	20727
858.197	20826
858.331	20792
858.464	20697
858.597	20450
858.731	20769
858.864	20678
858.997	20724
859.13	20629
859.263	20739
859.396	20758
859.529	20632
859.662	20689
859.795	20648
859.928	20716
860.061	20804
860.194	20819
860.327	20678
860.46	20750
860.592	20701
860.725	20807
860.858	20849
860.99	20743
861.123	20663
861.256	20697
861.388	20720
861.521	21283
861.653	20480
861.786	20499
861.918	20648
862.05	20712
862.183	20651
862.315	20739
862.447	20823
862.58	20602
862.712	20423
862.844	20408
862.976	20465
863.108	20370
863.24	20880
863.372	20328
863.504	20412
863.636	20324
863.768	20412
863.9	20438
864.032	20370
864.164	20336
864.296	20442
864.428	20492
864.559	20564
864.691	20377
864.823	20320
864.954	20336
865.086	20324
865.217	20423
865.349	20161
865.48	20427
865.612	20332
865.743	20537
865.875	20263
866.006	20370
866.137	20374
866.269	20294
866.4	20370
866.531	20317
866.662	20309
866.793	20366
866.924	20294
867.055	20389
867.186	20096
867.317	20252
867.448	20206
867.579	20149
867.71	20286
867.841	20267
867.972	20271
868.103	20210
868.233	20240
868.364	20229
868.495	20263
868.625	20495
868.756	20609
868.886	20298
869.017	20450
869.147	20590
869.278	20518
869.408	20473
869.539	20484
869.669	20492
869.799	20636
869.929	20629
870.06	20625
870.19	20781
870.32	20754
870.45	20746
870.58	20906
870.71	21112
870.84	20952
870.97	20956
871.1	20967
871.23	21028
871.36	21058
871.489	21039
871.619	21058
871.749	21100
871.879	21081
872.008	21203
872.138	21150
872.267	21154
872.397	20933
872.526	20861
872.656	20842
872.785	20887
872.915	21039
873.044	21180
873.173	20986
873.303	21157
873.432	21169
873.561	21199
873.69	21077
873.819	21104
873.948	21188
874.077	21161
874.206	21108
874.335	21169
874.464	21195
874.593	21443
874.722	21264
874.851	21397
874.979	21408
875.108	21351
875.237	21332
875.365	21329
875.494	21241
875.623	21386
875.751	21268
875.88	21340
876.008	21382
876.136	21561
876.265	21701
876.393	21922
876.521	21823
876.65	21762
876.778	21656
876.906	21751
877.034	21629
877.162	21774
877.29	21663
877.418	21732
877.546	21701
877.674	21762
877.802	21709
877.93	21808
878.058	21663
878.185	21644
878.313	21682
878.441	21701
878.568	21504
878.696	21545
878.824	21652
878.951	21778
879.079	21987
879.206	22013
879.333	21907
879.461	21778
879.588	21728
879.715	21819
879.842	21895
879.97	21736
880.097	21534
880.224	21477
880.351	21656
880.478	21458
880.605	21435
880.732	21557
880.859	21797
880.986	21587
881.112	21519
881.239	21485
881.366	21218
881.493	21180
881.619	21180
881.746	21203
881.872	21062
881.999	21074
882.125	20960
882.252	21169
882.378	20902
882.505	21294
882.631	20906
882.757	20849
882.883	20857
883.01	20864
883.136	20838
883.262	20613
883.388	20682
883.514	20895
883.64	20902
883.766	20762
883.892	20629
884.018	20640
884.143	20689
884.269	20823
884.395	20648
884.52	20461
884.646	20644
884.772	20404
884.897	20351
885.023	20366
885.148	20564
885.274	20648
885.399	20579
885.524	20438
885.65	20404
885.775	20450
885.9	20412
886.025	20552
886.15	20522
886.275	20427
886.4	20294
886.525	20393
886.65	20343
886.775	20317
886.9	20564
887.025	20636
887.149	20457
887.274	20332
887.399	20221
887.523	20237
887.648	20286
887.773	20058
887.897	20332
888.021	20282
888.146	20164
888.27	20218
888.395	20362
888.519	20351
888.643	20225
888.767	20206
888.891	20084
889.015	19951
889.139	20161
889.263	20084
889.387	20149
889.511	20256
889.635	20115
889.759	20008
889.883	20092
890.006	19993
890.13	20073
890.254	19887
890.377	19955
890.501	19765
890.624	19830
890.748	19871
890.871	19594
890.995	19624
891.118	19578
891.241	19578
891.364	19567
891.488	19670
891.611	19582
891.734	19647
891.857	19658
891.98	19548
892.103	19662
892.226	19681
892.349	19525
892.471	19480
892.594	19639
892.717	19666
892.839	19495
892.962	19472
893.085	19571
893.207	19567
893.33	19430
893.452	19381
893.575	19571
893.697	19407
893.819	19582
893.941	19708
894.064	19712
894.186	19453
894.308	19518
894.43	19483
894.552	19666
894.674	19578
894.796	19491
894.918	19411
895.04	19476
895.161	19548
895.283	19544
895.405	19472
895.526	19483
895.648	19438
895.769	19552
895.891	19594
896.012	19571
896.134	19556
896.255	19575
896.376	19434
896.498	19472
896.619	19624
896.74	19601
896.861	19571
896.982	19784
897.103	19906
897.224	19811
897.345	19830
897.466	19693
897.587	19849
897.708	19826
897.828	19677
897.949	19708
898.07	19597
898.19	19830
898.311	19868
898.431	19757
898.552	19780
898.672	19769
898.792	19788
898.913	19788
899.033	19651
899.153	19540
899.273	19480
899.393	19540
899.513	19502
899.633	19468
899.753	19445
899.873	19434
899.993	19419
900.113	19346
900.232	19411
900.352	19365
900.472	19358
900.591	19278
900.711	19274
900.83	19316
900.95	19365
901.069	19343
901.189	19107
901.308	18924
901.427	18791
901.546	18738
901.665	18935
901.784	18901
901.904	18707
902.023	18654
902.141	18513
902.26	18346
902.379	18464
902.498	18410
902.617	18323
902.735	18346
902.854	18418
902.973	18330
903.091	18121
903.21	18030
903.328	17996
903.446	17961
903.565	17786
903.683	17950
903.801	17733
903.919	17859
904.038	17843
904.156	17619
904.274	17779
904.392	17562
904.51	17714
904.627	17642
904.745	17623
904.863	17699
904.981	17433
905.098	17322
905.216	17379
905.334	17318
905.451	17406
905.569	17269
905.686	17353
905.803	17292
905.921	17105
906.038	17162
906.155	17140
906.272	17113
906.389	17033
906.506	16862
906.623	16885
906.74	16801
906.857	16725
906.974	16733
907.091	16835
907.208	16911
907.324	16816
907.441	16702
907.557	16588
907.674	16516
907.79	16550
907.907	16455
908.023	16550
908.139	16573
908.256	16573
908.372	16390
908.488	16459
908.604	16318
908.72	16287
908.836	16272
908.952	16188
909.068	16280
909.184	16348
909.3	16303
909.415	16318
909.531	16287
909.647	16021
909.762	15960
909.878	15945
909.993	16017
910.108	15941
910.224	15979
910.339	16059
910.454	15808
910.57	15907
910.685	15682
910.8	16002
910.915	15987
911.03	15812
911.145	15610
911.259	15618
911.374	15584
911.489	15473
911.604	15477
911.718	15313
911.833	15321
911.947	15226
912.062	15047
912.176	15325
912.291	15279
912.405	15298
912.519	15488
912.633	15428
912.748	15298
912.862	15264
912.976	15081
913.09	15062
913.204	15062
913.318	15108
913.431	15135
913.545	15211
913.659	15192
913.772	15173
913.886	14982
914	14933
914.113	14982
914.226	15093
914.34	15013
914.453	14834
914.566	15028
914.68	14826
914.793	14823
914.906	14659
915.019	14602
915.132	14579
915.245	14560
915.358	14629
915.47	14530
915.583	14587
915.696	14556
915.809	14617
915.921	14689
916.034	14568
916.146	14442
916.259	14484
916.371	14648
916.483	14473
916.595	14423
916.708	14473
916.82	14473
916.932	14347
917.044	14393
917.156	14336
917.268	14278
917.38	14221
917.491	14309
917.603	14267
917.715	14218
917.826	14347
917.938	14183
918.049	14012
918.161	14100
918.272	14389
918.384	14366
918.495	14259
918.606	14084
918.717	14046
918.828	14005
918.939	14031
919.05	13970
919.161	13902
919.272	13803
919.383	13864
919.494	14111
919.604	14183
919.715	13997
919.826	13989
919.936	13940
920.047	14012
920.157	14031
920.267	14210
920.378	14008
920.488	13967
920.598	14096
920.708	14294
920.818	14157
920.928	14069
921.038	14263
921.148	14244
921.258	13967
921.368	13772
921.477	13769
921.587	13731
921.697	13540
921.806	13685
921.916	13628
922.025	13407
922.134	13491
922.244	13415
922.353	13483
922.462	13263
922.571	13091
922.68	13012
922.789	13000
922.898	13015
923.007	12932
923.116	13031
923.224	13053
923.333	13031
923.442	12871
923.55	12905
923.659	12798
923.767	12939
923.876	12814
923.984	12821
924.092	12779
924.201	12844
924.309	12681
924.417	12722
924.525	12662
924.633	12779
924.741	13483
924.849	12422
924.956	12559
925.064	12536
925.172	12426
925.279	12433
925.387	12448
925.494	12426
925.602	12570
925.709	12471
925.816	12365
925.924	12319
926.031	12479
926.138	12426
926.245	12384
926.352	12330
926.459	12464
926.566	12471
926.673	12372
926.779	12243
926.886	12186
926.993	12038
927.099	12072
927.206	11946
927.312	11996
927.419	12087
927.525	12026
927.631	12064
927.737	11923
927.843	11912
927.95	11798
928.056	11863
928.162	11931
928.267	11863
928.373	12464
928.479	11977
928.585	11619
928.69	11805
928.796	11954
928.901	11714
929.007	11619
929.112	11710
929.218	11726
929.323	11638
929.428	11619
929.533	11752
929.638	11532
929.743	11558
929.848	11558
929.953	11562
930.058	11547
930.163	11212
930.267	11398
930.372	11459
930.477	11208
930.581	11467
930.685	11315
930.79	11121
930.894	11201
930.998	11185
931.103	11311
931.207	10953
931.311	10881
931.415	10763
931.519	10500
931.623	10531
