Data from test_V78500241_66.txt Node
Date: Fri Mar 25 15:10:19 CST 2022
User: usil
Spectrometer: V785-0024
Trigger mode: 0
Integration Time (sec): 4.000000E-1
Scans to average: 1
Nonlinearity correction enabled: false
Boxcar width: 0
Storing dark spectrum: false
XAxis mode: Wavelengths
Number of Pixels in Spectrum: 1024
>>>>>Begin Spectral Data<<<<<
801.071	28820
801.214	28679
801.356	28546
801.499	28428
801.641	28333
801.783	28200
801.926	28219
802.068	28162
802.211	28139
802.353	28124
802.496	27964
802.638	27857
802.78	27945
802.923	27797
803.065	27800
803.208	27835
803.35	27835
803.492	27960
803.635	28150
803.777	27800
803.919	28090
804.061	28246
804.204	28147
804.346	27861
804.488	28090
804.63	27812
804.773	27728
804.915	27960
805.057	28032
805.199	27914
805.341	27991
805.483	28040
805.626	28032
805.768	27956
805.91	28029
806.052	28055
806.194	27804
806.336	28226
806.478	28078
806.62	27934
806.762	28135
806.904	28131
807.046	28462
807.188	28421
807.33	28280
807.472	28447
807.614	28333
807.756	28398
807.898	28147
808.04	28211
808.182	28101
808.324	28204
808.465	28223
808.607	28455
808.749	28379
808.891	28542
809.033	28466
809.174	28550
809.316	28474
809.458	28596
809.6	28379
809.741	28653
809.883	28626
810.025	28622
810.166	28702
810.308	28755
810.45	28603
810.591	28626
810.733	28428
810.875	28527
811.016	28322
811.158	28360
811.299	28371
811.441	28478
811.582	28432
811.724	28440
811.865	28413
812.007	28398
812.148	28432
812.29	28512
812.431	28717
812.573	28835
812.714	28877
812.855	28721
812.997	29033
813.138	29086
813.279	28965
813.421	28995
813.562	28934
813.703	28603
813.845	28634
813.986	28363
814.127	28188
814.268	28010
814.41	28025
814.551	28040
814.692	28112
814.833	28044
814.974	27987
815.115	27892
815.256	27983
815.397	27949
815.539	27873
815.68	27690
815.821	27751
815.962	27739
816.103	27778
816.244	27648
816.385	27568
816.526	27538
816.666	27291
816.807	27195
816.948	27351
817.089	27313
817.23	27154
817.371	27173
817.512	27123
817.653	27070
817.793	27039
817.934	27222
818.075	27241
818.216	26940
818.356	27100
818.497	27138
818.638	26857
818.778	26880
818.919	26902
819.06	26952
819.2	26880
819.341	27070
819.481	27074
819.622	27291
819.762	27317
819.903	27313
820.043	27119
820.184	27104
820.324	27180
820.465	27161
820.605	27241
820.746	27142
820.886	26971
821.026	27070
821.167	27066
821.307	27180
821.447	27104
821.588	26750
821.728	26861
821.868	26689
822.008	26613
822.149	26526
822.289	26571
822.429	26259
822.569	26206
822.709	26180
822.849	25978
822.99	25856
823.13	25963
823.27	25978
823.41	25738
823.55	25814
823.69	25738
823.83	25677
823.97	25769
824.11	25586
824.25	25506
824.389	25575
824.529	25643
824.669	25540
824.809	25666
824.949	25666
825.089	25613
825.228	25559
825.368	25293
825.508	25343
825.648	25419
825.787	25339
825.927	25449
826.067	25472
826.206	25297
826.346	25350
826.485	25396
826.625	25289
826.765	25525
826.904	25324
827.044	25072
827.183	24920
827.323	24962
827.462	25145
827.601	25015
827.741	25027
827.88	25179
828.02	24901
828.159	24943
828.298	25012
828.437	25034
828.577	25050
828.716	25198
828.855	24947
828.994	24703
829.134	24570
829.273	24745
829.412	24620
829.551	24677
829.69	24661
829.829	24544
829.968	24711
830.107	24635
830.246	24715
830.385	24505
830.524	24650
830.663	24502
830.802	24395
830.941	24216
831.08	24224
831.219	24281
831.357	24251
831.496	24452
831.635	24197
831.774	24133
831.913	24072
832.051	23950
832.19	23988
832.329	24083
832.467	23939
832.606	23729
832.744	23855
832.883	23733
833.022	23802
833.16	23840
833.299	23790
833.437	23992
833.576	23977
833.714	24015
833.852	23863
833.991	24041
834.129	23855
834.267	23832
834.406	23851
834.544	23863
834.682	23783
834.821	23798
834.959	23863
835.097	23893
835.235	23893
835.373	23885
835.511	23718
835.65	23642
835.788	23691
835.926	23539
836.064	23353
836.202	23520
836.34	23596
836.478	23703
836.615	23585
836.753	23570
836.891	23630
837.029	23646
837.167	23493
837.305	23665
837.443	23604
837.58	23570
837.718	23570
837.856	23486
837.993	23448
838.131	23543
838.269	23459
838.406	23417
838.544	23337
838.681	23200
838.819	23155
838.956	23022
839.094	22873
839.231	22889
839.369	22999
839.506	23364
839.643	23136
839.781	22847
839.918	22702
840.055	22873
840.193	22831
840.33	22847
840.467	22782
840.604	22778
840.742	22968
840.879	22702
841.016	22763
841.153	22649
841.29	22896
841.427	22831
841.564	22869
841.701	22793
841.838	22752
841.975	22615
842.112	22710
842.249	22596
842.385	22565
842.522	22675
842.659	22447
842.796	22474
842.933	22611
843.069	22318
843.206	22424
843.343	22561
843.479	22611
843.616	22500
843.752	22268
843.889	22215
844.025	22481
844.162	22150
844.298	22333
844.435	22200
844.571	22166
844.708	22192
844.844	22405
844.98	22390
845.117	22325
845.253	22067
845.389	21945
845.525	22177
845.661	22135
845.798	21949
845.934	21922
846.07	21907
846.206	22074
846.342	22013
846.478	21941
846.614	21690
846.75	21667
846.886	21614
847.022	21720
847.158	21698
847.294	21679
847.429	21663
847.565	21679
847.701	21819
847.837	21428
847.972	21329
848.108	21420
848.244	21370
848.379	21233
848.515	21233
848.65	21142
848.786	21188
848.921	21195
849.057	21325
849.192	21283
849.328	21230
849.463	21249
849.598	21085
849.734	21017
849.869	20982
850.004	21055
850.14	20929
850.275	21017
850.41	20918
850.545	20914
850.68	21001
850.815	20929
850.95	20902
851.085	21074
851.22	21051
851.355	20807
851.49	20902
851.625	20800
851.76	20887
851.895	20777
852.03	20724
852.165	20758
852.299	20921
852.434	21001
852.569	20902
852.703	20880
852.838	21009
852.973	21043
853.107	20952
853.242	20792
853.376	20785
853.511	20629
853.645	20655
853.78	20811
853.914	20720
854.048	20674
854.183	20594
854.317	20644
854.451	20773
854.585	20678
854.72	20670
854.854	20788
854.988	20693
855.122	20769
855.256	20571
855.39	20689
855.524	20857
855.658	20750
855.792	20823
855.926	20769
856.06	20705
856.194	20754
856.327	20640
856.461	20682
856.595	20571
856.729	20765
856.862	20743
856.996	20785
857.13	20716
857.263	20834
857.397	20762
857.53	20632
857.664	20663
857.797	20853
857.931	20777
858.064	20807
858.197	20758
858.331	20617
858.464	20632
858.597	20556
858.731	20750
858.864	20602
858.997	20590
859.13	20625
859.263	20625
859.396	20724
859.529	20514
859.662	20564
859.795	20575
859.928	20689
860.061	20788
860.194	20792
860.327	20640
860.46	20571
860.592	20697
860.725	20678
860.858	20655
860.99	20613
861.123	20537
861.256	20495
861.388	20621
861.521	21207
861.653	20484
861.786	20469
861.918	20495
862.05	20552
862.183	20735
862.315	20765
862.447	20800
862.58	20750
862.712	20400
862.844	20309
862.976	20423
863.108	20583
863.24	20720
863.372	20237
863.504	20282
863.636	20240
863.768	20412
863.9	20195
864.032	20202
864.164	20252
864.296	20313
864.428	20511
864.559	20412
864.691	20313
864.823	20320
864.954	20301
865.086	20206
865.217	20259
865.349	20149
865.48	20244
865.612	20271
865.743	20355
865.875	20301
866.006	20290
866.137	20225
866.269	20191
866.4	20206
866.531	20115
866.662	20058
866.793	20081
866.924	20195
867.055	20271
867.186	20195
867.317	20122
867.448	20069
867.579	20164
867.71	20187
867.841	19997
867.972	20172
868.103	20248
868.233	20069
868.364	20157
868.495	20282
868.625	20389
868.756	20366
868.886	20385
869.017	20366
869.147	20343
869.278	20465
869.408	20454
869.539	20355
869.669	20389
869.799	20431
869.929	20473
870.06	20503
870.19	20632
870.32	20632
870.45	20674
870.58	20933
870.71	20842
870.84	20781
870.97	20765
871.1	20830
871.23	20963
871.36	21017
871.489	20921
871.619	20914
871.749	20975
871.879	21028
872.008	21070
872.138	20998
872.267	20994
872.397	20826
872.526	20724
872.656	20857
872.785	20655
872.915	21096
873.044	21005
873.173	20998
873.303	21043
873.432	20956
873.561	21066
873.69	21017
873.819	20963
873.948	21138
874.077	20994
874.206	20952
874.335	20994
874.464	21077
874.593	21317
874.722	21233
874.851	21408
874.979	21131
875.108	21336
875.237	21188
875.365	21173
875.494	21291
875.623	21306
875.751	21146
875.88	21370
876.008	21492
876.136	21378
876.265	21564
876.393	21827
876.521	21770
876.65	21690
876.778	21648
876.906	21523
877.034	21515
877.162	21648
877.29	21606
877.418	21583
877.546	21713
877.674	21515
877.802	21595
877.93	21504
878.058	21488
878.185	21500
878.313	21576
878.441	21477
878.568	21462
878.696	21431
878.824	21698
878.951	21663
879.079	21778
879.206	21857
879.333	21793
879.461	21705
879.588	21648
879.715	21739
879.842	21823
879.97	21667
880.097	21401
880.224	21336
880.351	21485
880.478	21412
880.605	21355
880.732	21382
880.859	21717
880.986	21370
881.112	21382
881.239	21332
881.366	21188
881.493	21230
881.619	21047
881.746	21074
881.872	20952
881.999	20910
882.125	20990
882.252	21024
882.378	20979
882.505	21104
882.631	20872
882.757	20804
882.883	20918
883.01	20781
883.136	20705
883.262	20621
883.388	20579
883.514	20830
883.64	20712
883.766	20537
883.892	20564
884.018	20587
884.143	20678
884.269	20769
884.395	20499
884.52	20381
884.646	20533
884.772	20301
884.897	20324
885.023	20431
885.148	20408
885.274	20564
885.399	20560
885.524	20393
885.65	20366
885.775	20366
885.9	20313
886.025	20442
886.15	20488
886.275	20393
886.4	20294
886.525	20328
886.65	20214
886.775	20176
886.9	20404
887.025	20552
887.149	20408
887.274	20225
887.399	20153
887.523	20088
887.648	20035
887.773	19959
887.897	20119
888.021	20107
888.146	20073
888.27	20267
888.395	20180
888.519	20096
888.643	20142
888.767	20180
888.891	20016
889.015	19856
889.139	20043
889.263	19894
889.387	19955
889.511	19940
889.635	20088
889.759	19864
889.883	19974
890.006	19909
890.13	20008
890.254	19852
890.377	19917
890.501	19704
890.624	19601
890.748	19693
890.871	19586
890.995	19407
891.118	19362
891.241	19445
891.364	19514
891.488	19624
891.611	19578
891.734	19537
891.857	19540
891.98	19605
892.103	19578
892.226	19556
892.349	19548
892.471	19297
892.594	19472
892.717	19491
892.839	19411
892.962	19434
893.085	19518
893.207	19544
893.33	19247
893.452	19358
893.575	19502
893.697	19472
893.819	19506
893.941	19632
894.064	19499
894.186	19327
894.308	19373
894.43	19468
894.552	19548
894.674	19529
894.796	19316
894.918	19441
895.04	19316
895.161	19407
895.283	19460
895.405	19388
895.526	19343
895.648	19350
895.769	19419
895.891	19472
896.012	19495
896.134	19457
896.255	19506
896.376	19495
896.498	19419
896.619	19483
896.74	19422
896.861	19628
896.982	19822
897.103	19959
897.224	19723
897.345	19757
897.466	19662
897.587	19807
897.708	19769
897.828	19723
897.949	19693
898.07	19438
898.19	19480
898.311	19818
898.431	19552
898.552	19590
898.672	19784
898.792	19719
898.913	19677
899.033	19472
899.153	19434
899.273	19285
899.393	19460
899.513	19354
899.633	19415
899.753	19438
899.873	19285
899.993	19255
900.113	19324
900.232	19278
900.352	19320
900.472	19171
900.591	19107
900.711	19339
900.83	19099
900.95	19156
901.069	19206
901.189	19088
901.308	18882
901.427	18863
901.546	18745
901.665	18734
901.784	18798
901.904	18582
902.023	18547
902.141	18281
902.26	18281
902.379	18399
902.498	18308
902.617	18232
902.735	18327
902.854	18201
902.973	18155
903.091	17950
903.21	18022
903.328	17935
903.446	17828
903.565	17802
903.683	17790
903.801	17646
903.919	17680
904.038	17668
904.156	17562
904.274	17680
904.392	17414
904.51	17505
904.627	17512
904.745	17539
904.863	17539
904.981	17341
905.098	17083
905.216	17212
905.334	17189
905.451	17227
905.569	17098
905.686	17239
905.803	17109
905.921	16980
906.038	17090
906.155	16972
906.272	16892
906.389	16881
906.506	16729
906.623	16710
906.74	16752
906.857	16653
906.974	16630
907.091	16797
907.208	16915
907.324	16675
907.441	16596
907.557	16504
907.674	16421
907.79	16371
907.907	16386
908.023	16459
908.139	16363
908.256	16428
908.372	16284
908.488	16272
908.604	16196
908.72	16055
908.836	16169
908.952	16063
909.068	16071
909.184	16109
909.3	16131
909.415	16063
909.531	16082
909.647	15842
909.762	15793
909.878	15698
909.993	15804
910.108	15918
910.224	15800
910.339	15857
910.454	15660
910.57	15580
910.685	15576
910.8	15857
910.915	15675
911.03	15530
911.145	15351
911.259	15287
911.374	15412
911.489	15348
911.604	15157
911.718	15055
911.833	15100
911.947	15066
912.062	14971
912.176	15154
912.291	15226
912.405	15116
912.519	15233
912.633	15264
912.748	15165
912.862	15123
912.976	14998
913.09	14804
913.204	14819
913.318	14910
913.431	15081
913.545	14921
913.659	15055
913.772	14883
913.886	14811
914	14762
914.113	14883
914.226	14853
914.34	14838
914.453	14663
914.566	14868
914.68	14701
914.793	14575
914.906	14438
915.019	14412
915.132	14351
915.245	14511
915.358	14423
915.47	14492
915.583	14336
915.696	14450
915.809	14526
915.921	14442
916.034	14317
916.146	14351
916.259	14301
916.371	14248
916.483	14332
916.595	14237
916.708	14320
916.82	14267
916.932	14161
917.044	14218
917.156	14100
917.268	14119
917.38	14111
917.491	14043
917.603	14012
917.715	14054
917.826	14168
917.938	13993
918.049	13932
918.161	14001
918.272	14221
918.384	14191
918.495	13932
918.606	13826
918.717	13799
918.828	13826
918.939	13833
919.05	13761
919.161	13807
919.272	13655
919.383	13685
919.494	13932
919.604	13963
919.715	13799
919.826	13715
919.936	13822
920.047	13788
920.157	13765
920.267	14012
920.378	13791
920.488	13765
920.598	13940
920.708	14096
920.818	13970
920.928	13947
921.038	14069
921.148	13951
921.258	13712
921.368	13750
921.477	13525
921.587	13472
921.697	13365
921.806	13559
921.916	13365
922.025	13358
922.134	13209
922.244	13137
922.353	13190
922.462	12989
922.571	12966
922.68	12905
922.789	12951
922.898	12901
923.007	12692
923.116	12878
923.224	12757
923.333	12677
923.442	12631
923.55	12642
923.659	12711
923.767	12700
923.876	12646
923.984	12719
924.092	12494
924.201	12623
924.309	12498
924.417	12597
924.525	12502
924.633	12346
924.741	13255
924.849	12273
924.956	12490
925.064	12281
925.172	12254
925.279	12292
925.387	12266
925.494	12277
925.602	12391
925.709	12338
925.816	12194
925.924	12232
926.031	12300
926.138	12213
926.245	12292
926.352	12114
926.459	12247
926.566	12251
926.673	12163
926.779	12140
926.886	11893
926.993	11954
927.099	11840
927.206	11813
927.312	11771
927.419	11847
927.525	11878
927.631	11920
927.737	11745
927.843	11718
927.95	11615
928.056	11665
928.162	11798
928.267	11756
928.373	12380
928.479	11764
928.585	11554
928.69	11600
928.796	11672
928.901	11558
929.007	11356
929.112	11516
929.218	11501
929.323	11421
929.428	11429
929.533	11532
929.638	11277
929.743	11322
929.848	11395
929.953	11444
930.058	11239
930.163	11064
930.267	11181
930.372	11208
930.477	11075
930.581	11265
930.685	11147
930.79	10968
930.894	10991
930.998	11037
931.103	11147
931.207	10668
931.311	10710
931.415	10554
931.519	10398
931.623	10348
