Data from test_V78500241_1175.txt Node
Date: Fri Mar 25 15:18:02 CST 2022
User: usil
Spectrometer: V785-0024
Trigger mode: 0
Integration Time (sec): 4.000000E-1
Scans to average: 1
Nonlinearity correction enabled: false
Boxcar width: 0
Storing dark spectrum: false
XAxis mode: Wavelengths
Number of Pixels in Spectrum: 1024
>>>>>Begin Spectral Data<<<<<
801.071	28162
801.214	27987
801.356	27892
801.499	27675
801.641	27591
801.783	27591
801.926	27625
802.068	27656
802.211	27564
802.353	27450
802.496	27192
802.638	27336
802.78	27176
802.923	27283
803.065	27298
803.208	27279
803.35	27203
803.492	27336
803.635	27473
803.777	27427
803.919	27595
804.061	27705
804.204	27523
804.346	27462
804.488	27477
804.63	27488
804.773	27492
804.915	27622
805.057	27583
805.199	27431
805.341	27561
805.483	27808
805.626	27660
805.768	27701
805.91	27599
806.052	27675
806.194	27481
806.336	27800
806.478	27473
806.62	27762
806.762	27709
806.904	27876
807.046	28230
807.188	28128
807.33	28169
807.472	28097
807.614	28013
807.756	28006
807.898	27884
808.04	27865
808.182	27880
808.324	28051
808.465	28101
808.607	28021
808.749	28242
808.891	28379
809.033	28401
809.174	28280
809.316	28230
809.458	28299
809.6	28238
809.741	28341
809.883	28382
810.025	28611
810.166	28519
810.308	28577
810.45	28443
810.591	28497
810.733	28303
810.875	28398
811.016	28177
811.158	28169
811.299	28299
811.441	28538
811.582	28538
811.724	28379
811.865	28375
812.007	28249
812.148	28196
812.29	28257
812.431	28375
812.573	28653
812.714	28599
812.855	28843
812.997	28812
813.138	29010
813.279	28820
813.421	28900
813.562	28801
813.703	28679
813.845	28577
813.986	28344
814.127	28109
814.268	28021
814.41	28070
814.551	28055
814.692	28048
814.833	28086
814.974	27964
815.115	28017
815.256	27838
815.397	27816
815.539	27793
815.68	27793
815.821	27713
815.962	27956
816.103	27838
816.244	27679
816.385	27606
816.526	27545
816.666	27462
816.807	27283
816.948	27389
817.089	27416
817.23	27416
817.371	27325
817.512	27344
817.653	27363
817.793	27321
817.934	27325
818.075	27393
818.216	27378
818.356	27317
818.497	27249
818.638	27119
818.778	27062
818.919	26948
819.06	27218
819.2	27302
819.341	27230
819.481	27332
819.622	27378
819.762	27603
819.903	27622
820.043	27481
820.184	27500
820.324	27507
820.465	27458
820.605	27511
820.746	27405
820.886	27245
821.026	27477
821.167	27348
821.307	27435
821.447	27332
821.588	27275
821.728	26990
821.868	26925
822.008	26880
822.149	26708
822.289	26739
822.429	26579
822.569	26431
822.709	26404
822.849	26275
822.99	26389
823.13	26263
823.27	26320
823.41	26077
823.55	26020
823.69	26282
823.83	26233
823.97	26031
824.11	26024
824.25	25879
824.389	26005
824.529	26043
824.669	25833
824.809	26081
824.949	25966
825.089	25974
825.228	25989
825.368	25731
825.508	25830
825.648	25932
825.787	25959
825.927	25818
826.067	25845
826.206	25772
826.346	25765
826.485	25856
826.625	25849
826.765	25921
826.904	25868
827.044	25670
827.183	25613
827.323	25457
827.462	25632
827.601	25537
827.741	25457
827.88	25613
828.02	25464
828.159	25483
828.298	25628
828.437	25620
828.577	25647
828.716	25674
828.855	25476
828.994	25194
829.134	25278
829.273	25194
829.412	25171
829.551	25202
829.69	25335
829.829	25270
829.968	25297
830.107	25331
830.246	25278
830.385	25164
830.524	25244
830.663	25217
830.802	24859
830.941	24947
831.08	24802
831.219	25038
831.357	24939
831.496	25107
831.635	24878
831.774	24665
831.913	24677
832.051	24783
832.19	24745
832.329	24734
832.467	24677
832.606	24544
832.744	24551
832.883	24502
833.022	24665
833.16	24654
833.299	24745
833.437	24525
833.576	24631
833.714	24715
833.852	24719
833.991	24745
834.129	24787
834.267	24844
834.406	24616
834.544	24620
834.682	24684
834.821	24646
834.959	24787
835.097	24540
835.235	24696
835.373	24544
835.511	24582
835.65	24471
835.788	24505
835.926	24460
836.064	24361
836.202	24327
836.34	24505
836.478	24513
836.615	24410
836.753	24551
836.891	24547
837.029	24544
837.167	24369
837.305	24376
837.443	24369
837.58	24266
837.718	24365
837.856	24350
837.993	24315
838.131	24281
838.269	24148
838.406	24235
838.544	24098
838.681	23958
838.819	24030
838.956	23847
839.094	23824
839.231	23756
839.369	24007
839.506	24136
839.643	23965
839.781	23840
839.918	23771
840.055	23745
840.193	23748
840.33	23805
840.467	23790
840.604	23748
840.742	24091
840.879	23615
841.016	23619
841.153	23611
841.29	23790
841.427	23642
841.564	23832
841.701	23691
841.838	23600
841.975	23581
842.112	23691
842.249	23535
842.385	23455
842.522	23707
842.659	23528
842.796	23520
842.933	23573
843.069	23345
843.206	23474
843.343	23543
843.479	23505
843.616	23326
843.752	23204
843.889	23200
844.025	23379
844.162	23223
844.298	23311
844.435	23136
844.571	23269
844.708	23277
844.844	23398
844.98	23269
845.117	23429
845.253	23258
845.389	23174
845.525	23128
845.661	23124
845.798	22991
845.934	23124
846.07	22889
846.206	22965
846.342	23124
846.478	22995
846.614	22771
846.75	22618
846.886	22736
847.022	22820
847.158	22702
847.294	22702
847.429	22752
847.565	22721
847.701	22782
847.837	22360
847.972	22379
848.108	22535
848.244	22512
848.379	22299
848.515	22291
848.65	22394
848.786	22230
848.921	22306
849.057	22455
849.192	22363
849.328	22272
849.463	22360
849.598	22181
849.734	22181
849.869	22051
850.004	22101
850.14	22059
850.275	22112
850.41	21968
850.545	21941
850.68	21991
850.815	22109
850.95	22055
851.085	22284
851.22	22158
851.355	22078
851.49	22017
851.625	21987
851.76	21911
851.895	21975
852.03	22006
852.165	22078
852.299	22090
852.434	22211
852.569	22051
852.703	22025
852.838	22226
852.973	22177
853.107	22120
853.242	21998
853.376	21903
853.511	21770
853.645	21812
853.78	21945
853.914	21835
854.048	21739
854.183	21819
854.317	21827
854.451	22078
854.585	21838
854.72	21800
854.854	22006
854.988	21823
855.122	21937
855.256	21778
855.39	21819
855.524	21899
855.658	21907
855.792	21888
855.926	21937
856.06	22025
856.194	21861
856.327	21838
856.461	21808
856.595	21759
856.729	21812
856.862	21979
856.996	21895
857.13	22002
857.263	21960
857.397	21983
857.53	21823
857.664	21854
857.797	22006
857.931	21869
858.064	21854
858.197	21869
858.331	21778
858.464	21907
858.597	21827
858.731	21759
858.864	21823
858.997	21831
859.13	21915
859.263	21831
859.396	21869
859.529	21907
859.662	21808
859.795	21800
859.928	21842
860.061	22013
860.194	22067
860.327	22029
860.46	21903
860.592	22097
860.725	21934
860.858	21945
860.99	21873
861.123	21701
861.256	21793
861.388	21968
861.521	22672
861.653	21713
861.786	21713
861.918	21755
862.05	21778
862.183	21739
862.315	21774
862.447	21861
862.58	21762
862.712	21637
862.844	21534
862.976	21625
863.108	21644
863.24	21975
863.372	21610
863.504	21549
863.636	21530
863.768	21652
863.9	21610
864.032	21504
864.164	21504
864.296	21633
864.428	21739
864.559	21644
864.691	21663
864.823	21561
864.954	21557
865.086	21542
865.217	21507
865.349	21405
865.48	21485
865.612	21397
865.743	21587
865.875	21603
866.006	21454
866.137	21428
866.269	21416
866.4	21519
866.531	21389
866.662	21226
866.793	21485
866.924	21408
867.055	21408
867.186	21401
867.317	21355
867.448	21302
867.579	21317
867.71	21245
867.841	21332
867.972	21447
868.103	21310
868.233	21405
868.364	21515
868.495	21386
868.625	21671
868.756	21850
868.886	21564
869.017	21652
869.147	21679
869.278	21682
869.408	21618
869.539	21641
869.669	21557
869.799	21682
869.929	21694
870.06	21720
870.19	21934
870.32	21922
870.45	21964
870.58	22086
870.71	22143
870.84	21998
870.97	22082
871.1	21968
871.23	22177
871.36	22131
871.489	22150
871.619	22192
871.749	22169
871.879	22188
872.008	22390
872.138	22196
872.267	22196
872.397	22086
872.526	21972
872.656	21953
872.785	21972
872.915	22219
873.044	22204
873.173	22276
873.303	22272
873.432	22337
873.561	22333
873.69	22219
873.819	22265
873.948	22371
874.077	22173
874.206	22173
874.335	22204
874.464	22341
874.593	22493
874.722	22341
874.851	22500
874.979	22538
875.108	22386
875.237	22451
875.365	22405
875.494	22485
875.623	22580
875.751	22413
875.88	22417
876.008	22512
876.136	22660
876.265	22778
876.393	22995
876.521	22790
876.65	22877
876.778	22771
876.906	22831
877.034	22767
877.162	22820
877.29	22740
877.418	22801
877.546	22908
877.674	22763
877.802	22885
877.93	22831
878.058	22683
878.185	22622
878.313	22759
878.441	22755
878.568	22622
878.696	22630
878.824	22767
878.951	22892
879.079	22934
879.206	23094
879.333	22991
879.461	22812
879.588	22801
879.715	22987
879.842	22991
879.97	22793
880.097	22573
880.224	22580
880.351	22645
880.478	22500
880.605	22512
880.732	22592
880.859	22850
880.986	22584
881.112	22679
881.239	22436
881.366	22424
881.493	22253
881.619	22154
881.746	22188
881.872	22265
881.999	22101
882.125	21937
882.252	22234
882.378	22101
882.505	22303
882.631	22044
882.757	21960
882.883	21960
883.01	21945
883.136	21895
883.262	21755
883.388	21675
883.514	21838
883.64	21895
883.766	21861
883.892	21720
884.018	21447
884.143	21778
884.269	21907
884.395	21709
884.52	21542
884.646	21568
884.772	21473
884.897	21412
885.023	21549
885.148	21686
885.274	21660
885.399	21618
885.524	21667
885.65	21488
885.775	21614
885.9	21549
886.025	21629
886.15	21618
886.275	21439
886.4	21473
886.525	21454
886.65	21408
886.775	21458
886.9	21610
887.025	21682
887.149	21580
887.274	21325
887.399	21401
887.523	21313
887.648	21180
887.773	21081
887.897	21298
888.021	21211
888.146	21260
888.27	21439
888.395	21374
888.519	21161
888.643	21298
888.767	21287
888.891	21199
889.015	21024
889.139	21085
889.263	21036
889.387	21256
889.511	21214
889.635	21123
889.759	21024
889.883	21093
890.006	21127
890.13	21188
890.254	20986
890.377	20864
890.501	20861
890.624	20811
890.748	20800
890.871	20788
890.995	20648
891.118	20568
891.241	20629
891.364	20590
891.488	20686
891.611	20606
891.734	20689
891.857	20640
891.98	20648
892.103	20750
892.226	20765
892.349	20598
892.471	20408
892.594	20507
892.717	20492
892.839	20541
892.962	20602
893.085	20625
893.207	20473
893.33	20434
893.452	20423
893.575	20507
893.697	20469
893.819	20727
893.941	20731
894.064	20746
894.186	20579
894.308	20461
894.43	20655
894.552	20632
894.674	20530
894.796	20434
894.918	20457
895.04	20431
895.161	20571
895.283	20568
895.405	20503
895.526	20549
895.648	20434
895.769	20446
895.891	20727
896.012	20594
896.134	20594
896.255	20522
896.376	20492
896.498	20389
896.619	20473
896.74	20480
896.861	20511
896.982	20777
897.103	20941
897.224	20705
897.345	20651
897.466	20560
897.587	20693
897.708	20895
897.828	20781
897.949	20606
898.07	20621
898.19	20712
898.311	20788
898.431	20659
898.552	20629
898.672	20769
898.792	20788
898.913	20606
899.033	20708
899.153	20518
899.273	20431
899.393	20454
899.513	20488
899.633	20476
899.753	20358
899.873	20438
899.993	20476
900.113	20351
900.232	20343
900.352	20301
900.472	20214
900.591	20172
900.711	20191
900.83	20214
900.95	20317
901.069	20324
901.189	20126
901.308	19830
901.427	19791
901.546	19780
901.665	19864
901.784	19761
901.904	19712
902.023	19567
902.141	19506
902.26	19358
902.379	19407
902.498	19331
902.617	19247
902.735	19384
902.854	19282
902.973	19194
903.091	18905
903.21	19088
903.328	19046
903.446	18837
903.565	18916
903.683	18772
903.801	18715
903.919	18700
904.038	18745
904.156	18471
904.274	18612
904.392	18429
904.51	18521
904.627	18547
904.745	18521
904.863	18498
904.981	18323
905.098	18110
905.216	18216
905.334	18270
905.451	18224
905.569	18251
905.686	18292
905.803	18254
905.921	18064
906.038	18072
906.155	18045
906.272	17954
906.389	17916
906.506	17684
906.623	17722
906.74	17687
906.857	17661
906.974	17623
907.091	17859
907.208	17866
907.324	17824
907.441	17718
907.557	17505
907.674	17604
907.79	17425
907.907	17433
908.023	17429
908.139	17444
908.256	17410
908.372	17318
908.488	17349
908.604	17284
908.72	17132
908.836	17185
908.952	17193
909.068	17197
909.184	17299
909.3	17334
909.415	17166
909.531	17246
909.647	16923
909.762	16873
909.878	16904
909.993	16965
910.108	16877
910.224	16809
910.339	16816
910.454	16645
910.57	16618
910.685	16637
910.8	16828
910.915	16873
911.03	16801
911.145	16523
911.259	16523
911.374	16474
911.489	16466
911.604	16382
911.718	16177
911.833	16280
911.947	16097
912.062	16116
912.176	16166
912.291	16242
912.405	16177
912.519	16432
912.633	16356
912.748	16284
912.862	16219
912.976	16021
913.09	16036
913.204	15850
913.318	16078
913.431	16192
913.545	16090
913.659	16067
913.772	15903
913.886	15804
914	15857
914.113	15869
914.226	15937
914.34	15918
914.453	15644
914.566	15930
914.68	15770
914.793	15675
914.906	15568
915.019	15416
915.132	15317
915.245	15272
915.358	15496
915.47	15496
915.583	15374
915.696	15443
915.809	15408
915.921	15500
916.034	15378
916.146	15462
916.259	15420
916.371	15412
916.483	15264
916.595	15245
916.708	15222
916.82	15313
916.932	15230
917.044	15199
917.156	15112
917.268	14998
917.38	14990
917.491	15070
917.603	15070
917.715	15173
917.826	15161
917.938	14887
918.049	14891
918.161	15043
918.272	15074
918.384	15135
918.495	14941
918.606	14853
918.717	14773
918.828	14883
918.939	14830
919.05	14758
919.161	14792
919.272	14659
919.383	14670
919.494	14902
919.604	15055
919.715	14902
919.826	14682
919.936	14648
920.047	14804
920.157	14807
920.267	14914
920.378	14735
920.488	14743
920.598	14960
920.708	14994
920.818	14906
920.928	14971
921.038	15032
921.148	14982
921.258	14648
921.368	14663
921.477	14610
921.587	14446
921.697	14377
921.806	14503
921.916	14290
922.025	14145
922.134	14180
922.244	14119
922.353	14172
922.462	13970
922.571	13940
922.68	13868
922.789	13769
922.898	13830
923.007	13731
923.116	13791
923.224	13696
923.333	13693
923.442	13636
923.55	13544
923.659	13643
923.767	13556
923.876	13559
923.984	13674
924.092	13453
924.201	13552
924.309	13487
924.417	13510
924.525	13377
924.633	13407
924.741	14389
924.849	13198
924.956	13403
925.064	13171
925.172	13168
925.279	13122
925.387	13251
925.494	13190
925.602	13285
925.709	13266
925.816	13183
925.924	13156
926.031	13228
926.138	13145
926.245	13301
926.352	12954
926.459	13259
926.566	13126
926.673	13038
926.779	12970
926.886	12985
926.993	12745
927.099	12840
927.206	12741
927.312	12669
927.419	12787
927.525	12620
927.631	12726
927.737	12574
927.843	12620
927.95	12517
928.056	12616
928.162	12448
928.267	12726
928.373	13122
928.479	12646
928.585	12426
928.69	12551
928.796	12616
928.901	12388
929.007	12327
929.112	12486
929.218	12308
929.323	12296
929.428	12197
929.533	12334
929.638	12155
929.743	12266
929.848	12243
929.953	12251
930.058	12167
930.163	11977
930.267	11961
930.372	12159
930.477	11927
930.581	12110
930.685	12053
930.79	11855
930.894	11824
930.998	11786
931.103	11954
931.207	11649
931.311	11490
931.415	11406
931.519	11269
931.623	11201
