Data from test_V78500241_925.txt Node
Date: Fri Mar 25 15:16:17 CST 2022
User: usil
Spectrometer: V785-0024
Trigger mode: 0
Integration Time (sec): 4.000000E-1
Scans to average: 1
Nonlinearity correction enabled: false
Boxcar width: 0
Storing dark spectrum: false
XAxis mode: Wavelengths
Number of Pixels in Spectrum: 1024
>>>>>Begin Spectral Data<<<<<
801.071	28105
801.214	28093
801.356	27736
801.499	27671
801.641	27591
801.783	27690
801.926	27739
802.068	27656
802.211	27618
802.353	27473
802.496	27332
802.638	27291
802.78	27302
802.923	27256
803.065	27252
803.208	27192
803.35	27252
803.492	27424
803.635	27344
803.777	27397
803.919	27576
804.061	27797
804.204	27519
804.346	27329
804.488	27481
804.63	27511
804.773	27504
804.915	27583
805.057	27469
805.199	27511
805.341	27648
805.483	27523
805.626	27637
805.768	27492
805.91	27530
806.052	27557
806.194	27519
806.336	27831
806.478	27701
806.62	27622
806.762	27865
806.904	27774
807.046	28029
807.188	28025
807.33	27842
807.472	28044
807.614	27964
807.756	27895
807.898	27899
808.04	27835
808.182	27865
808.324	27835
808.465	27934
808.607	28059
808.749	28276
808.891	28310
809.033	28295
809.174	28310
809.316	28173
809.458	28382
809.6	28215
809.741	28261
809.883	28318
810.025	28554
810.166	28516
810.308	28622
810.45	28516
810.591	28470
810.733	28215
810.875	28299
811.016	28204
811.158	28226
811.299	28287
811.441	28424
811.582	28253
811.724	28272
811.865	28200
812.007	28356
812.148	28303
812.29	28238
812.431	28390
812.573	28687
812.714	28634
812.855	28801
812.997	28896
813.138	29147
813.279	28930
813.421	28877
813.562	28774
813.703	28550
813.845	28565
813.986	28276
814.127	28055
814.268	28013
814.41	27983
814.551	27816
814.692	28166
814.833	27953
814.974	28021
815.115	28029
815.256	27857
815.397	27895
815.539	27823
815.68	27679
815.821	27781
815.962	27793
816.103	27800
816.244	27736
816.385	27618
816.526	27545
816.666	27302
816.807	27321
816.948	27466
817.089	27523
817.23	27393
817.371	27450
817.512	27302
817.653	27291
817.793	27211
817.934	27325
818.075	27325
818.216	27454
818.356	27173
818.497	27214
818.638	27017
818.778	26937
818.919	27089
819.06	27104
819.2	27173
819.341	27218
819.481	27222
819.622	27427
819.762	27583
819.903	27724
820.043	27599
820.184	27458
820.324	27405
820.465	27389
820.605	27507
820.746	27473
820.886	27188
821.026	27526
821.167	27450
821.307	27481
821.447	27313
821.588	27199
821.728	27055
821.868	27051
822.008	26773
822.149	26845
822.289	26522
822.429	26461
822.569	26396
822.709	26374
822.849	26278
822.99	26301
823.13	26381
823.27	26229
823.41	26084
823.55	26001
823.69	26100
823.83	26161
823.97	25944
824.11	25890
824.25	25909
824.389	25974
824.529	25959
824.669	25936
824.809	26119
824.949	26043
825.089	26054
825.228	25925
825.368	25765
825.508	25860
825.648	25738
825.787	26024
825.927	25955
826.067	25913
826.206	25879
826.346	25887
826.485	25818
826.625	25784
826.765	25883
826.904	25883
827.044	25609
827.183	25472
827.323	25624
827.462	25715
827.601	25464
827.741	25495
827.88	25575
828.02	25499
828.159	25472
828.298	25632
828.437	25586
828.577	25514
828.716	25708
828.855	25434
828.994	25289
829.134	25206
829.273	25244
829.412	25183
829.551	25202
829.69	25225
829.829	25194
829.968	25373
830.107	25274
830.246	25095
830.385	25206
830.524	25202
830.663	25031
830.802	25000
830.941	24905
831.08	24844
831.219	24886
831.357	24989
831.496	25202
831.635	24840
831.774	24707
831.913	24814
832.051	24620
832.19	24692
832.329	24566
832.467	24517
832.606	24486
832.744	24544
832.883	24452
833.022	24410
833.16	24536
833.299	24570
833.437	24517
833.576	24658
833.714	24509
833.852	24764
833.991	24536
834.129	24700
834.267	24593
834.406	24486
834.544	24498
834.682	24555
834.821	24559
834.959	24814
835.097	24551
835.235	24635
835.373	24513
835.511	24551
835.65	24559
835.788	24441
835.926	24327
836.064	24186
836.202	24292
836.34	24456
836.478	24471
836.615	24388
836.753	24471
836.891	24490
837.029	24559
837.167	24300
837.305	24323
837.443	24319
837.58	24315
837.718	24323
837.856	24285
837.993	24190
838.131	24315
838.269	24140
838.406	24159
838.544	24057
838.681	23973
838.819	23855
838.956	23611
839.094	23646
839.231	23760
839.369	23847
839.506	24243
839.643	23992
839.781	23851
839.918	23592
840.055	23733
840.193	23623
840.33	23684
840.467	23520
840.604	23703
840.742	23885
840.879	23512
841.016	23539
841.153	23554
841.29	23817
841.427	23581
841.564	23779
841.701	23665
841.838	23604
841.975	23478
842.112	23623
842.249	23520
842.385	23414
842.522	23676
842.659	23505
842.796	23524
842.933	23406
843.069	23410
843.206	23398
843.343	23455
843.479	23455
843.616	23467
843.752	23322
843.889	23246
844.025	23356
844.162	23166
844.298	23216
844.435	23136
844.571	23143
844.708	23162
844.844	23326
844.98	23284
845.117	23250
845.253	23048
845.389	23109
845.525	23044
845.661	23071
845.798	22995
845.934	23048
846.07	22919
846.206	22934
846.342	23056
846.478	22866
846.614	22828
846.75	22531
846.886	22634
847.022	22790
847.158	22736
847.294	22729
847.429	22782
847.565	22740
847.701	22873
847.837	22390
847.972	22322
848.108	22348
848.244	22500
848.379	22154
848.515	22215
848.65	22325
848.786	22310
848.921	22223
849.057	22333
849.192	22379
849.328	22246
849.463	22253
849.598	22188
849.734	22234
849.869	22063
850.004	21975
850.14	22086
850.275	21979
850.41	21873
850.545	22070
850.68	21937
850.815	22105
850.95	22021
851.085	22147
851.22	22120
851.355	22143
851.49	21861
851.625	22147
851.76	22025
851.895	21907
852.03	21937
852.165	22059
852.299	21979
852.434	22044
852.569	22048
852.703	22036
852.838	22147
852.973	22181
853.107	22177
853.242	21915
853.376	21835
853.511	21671
853.645	21778
853.78	21930
853.914	21888
854.048	21808
854.183	21899
854.317	21888
854.451	22025
854.585	21808
854.72	21854
854.854	21876
854.988	21732
855.122	21831
855.256	21770
855.39	21838
855.524	21755
855.658	21956
855.792	21838
855.926	21739
856.06	21808
856.194	21926
856.327	21774
856.461	21736
856.595	21675
856.729	21736
856.862	21873
856.996	21762
857.13	21838
857.263	21941
857.397	21888
857.53	21808
857.664	21838
857.797	21895
857.931	21991
858.064	21926
858.197	21892
858.331	21930
858.464	21717
858.597	21713
858.731	21732
858.864	21793
858.997	21671
859.13	21808
859.263	21789
859.396	21911
859.529	21895
859.662	21827
859.795	21823
859.928	21778
860.061	21972
860.194	22029
860.327	21819
860.46	21842
860.592	21911
860.725	21987
860.858	22063
860.99	21953
861.123	21739
861.256	21774
861.388	21838
861.521	22436
861.653	21675
861.786	21705
861.918	21606
862.05	21682
862.183	21713
862.315	21701
862.447	21789
862.58	21831
862.712	21694
862.844	21530
862.976	21732
863.108	21599
863.24	21800
863.372	21386
863.504	21568
863.636	21572
863.768	21511
863.9	21466
864.032	21439
864.164	21500
864.296	21523
864.428	21614
864.559	21663
864.691	21504
864.823	21447
864.954	21553
865.086	21549
865.217	21397
865.349	21382
865.48	21496
865.612	21481
865.743	21477
865.875	21568
866.006	21252
866.137	21420
866.269	21382
866.4	21359
866.531	21268
866.662	21283
866.793	21306
866.924	21435
867.055	21523
867.186	21397
867.317	21173
867.448	21294
867.579	21195
867.71	21192
867.841	21249
867.972	21405
868.103	21374
868.233	21249
868.364	21389
868.495	21625
868.625	21629
868.756	21728
868.886	21511
869.017	21580
869.147	21641
869.278	21698
869.408	21583
869.539	21545
869.669	21663
869.799	21591
869.929	21751
870.06	21622
870.19	21842
870.32	21785
870.45	21960
870.58	21975
870.71	22017
870.84	22044
870.97	22040
871.1	22029
871.23	22226
871.36	22185
871.489	22112
871.619	22147
871.749	22265
871.879	22154
872.008	22284
872.138	22032
872.267	22147
872.397	21956
872.526	22013
872.656	22017
872.785	21934
872.915	22101
873.044	22318
873.173	22177
873.303	22242
873.432	22234
873.561	22341
873.69	22265
873.819	22261
873.948	22215
874.077	22185
874.206	22196
874.335	22131
874.464	22257
874.593	22341
874.722	22451
874.851	22512
874.979	22394
875.108	22516
875.237	22409
875.365	22318
875.494	22405
875.623	22538
875.751	22348
875.88	22428
876.008	22584
876.136	22569
876.265	22812
876.393	22953
876.521	22904
876.65	22911
876.778	22752
876.906	22805
877.034	22740
877.162	22778
877.29	22668
877.418	22664
877.546	22763
877.674	22702
877.802	22786
877.93	22755
878.058	22698
878.185	22596
878.313	22679
878.441	22641
878.568	22504
878.696	22637
878.824	22809
878.951	22767
879.079	22942
879.206	23010
879.333	22999
879.461	22862
879.588	22847
879.715	22847
879.842	23025
879.97	22816
880.097	22603
880.224	22634
880.351	22672
880.478	22649
880.605	22459
880.732	22443
880.859	22744
880.986	22508
881.112	22672
881.239	22462
881.366	22204
881.493	22204
881.619	22070
881.746	22067
881.872	22086
881.999	22124
882.125	22032
882.252	22124
882.378	22032
882.505	22181
882.631	22059
882.757	21842
882.883	21934
883.01	21804
883.136	21823
883.262	21781
883.388	21701
883.514	21880
883.64	21831
883.766	21869
883.892	21542
884.018	21564
884.143	21660
884.269	21831
884.395	21523
884.52	21591
884.646	21450
884.772	21336
884.897	21401
885.023	21447
885.148	21511
885.274	21652
885.399	21675
885.524	21553
885.65	21496
885.775	21439
885.9	21408
886.025	21599
886.15	21462
886.275	21397
886.4	21302
886.525	21374
886.65	21306
886.775	21439
886.9	21622
887.025	21785
887.149	21439
887.274	21344
887.399	21294
887.523	21294
887.648	21138
887.773	21081
887.897	21207
888.021	21298
888.146	21184
888.27	21340
888.395	21283
888.519	21211
888.643	21233
888.767	21298
888.891	21157
889.015	20990
889.139	21013
889.263	20994
889.387	21157
889.511	21237
889.635	21051
889.759	21051
889.883	20975
890.006	21043
890.13	21150
890.254	20811
890.377	21032
890.501	20864
890.624	20716
890.748	20830
890.871	20712
890.995	20533
891.118	20590
891.241	20644
891.364	20632
891.488	20720
891.611	20541
891.734	20549
891.857	20549
891.98	20609
892.103	20533
892.226	20602
892.349	20480
892.471	20526
892.594	20499
892.717	20480
892.839	20545
892.962	20507
893.085	20488
893.207	20457
893.33	20431
893.452	20374
893.575	20545
893.697	20507
893.819	20682
893.941	20571
894.064	20556
894.186	20385
894.308	20446
894.43	20549
894.552	20568
894.674	20598
894.796	20366
894.918	20583
895.04	20450
895.161	20507
895.283	20465
895.405	20469
895.526	20469
895.648	20560
895.769	20480
895.891	20454
896.012	20545
896.134	20427
896.255	20370
896.376	20423
896.498	20522
896.619	20469
896.74	20415
896.861	20438
896.982	20651
897.103	20800
897.224	20739
897.345	20697
897.466	20625
897.587	20678
897.708	20788
897.828	20883
897.949	20556
898.07	20499
898.19	20606
898.311	20826
898.431	20587
898.552	20632
898.672	20773
898.792	20857
898.913	20667
899.033	20511
899.153	20541
899.273	20305
899.393	20434
899.513	20564
899.633	20507
899.753	20461
899.873	20393
899.993	20419
900.113	20339
900.232	20332
900.352	20427
900.472	20271
900.591	20313
900.711	20195
900.83	20206
900.95	20202
901.069	20290
901.189	20008
901.308	19852
901.427	19791
901.546	19704
901.665	19746
901.784	19788
901.904	19746
902.023	19601
902.141	19392
902.26	19308
902.379	19430
902.498	19270
902.617	19137
902.735	19304
902.854	19365
902.973	19046
903.091	19034
903.21	18966
903.328	18981
903.446	18810
903.565	18776
903.683	18776
903.801	18760
903.919	18776
904.038	18646
904.156	18506
904.274	18654
904.392	18414
904.51	18490
904.627	18490
904.745	18448
904.863	18467
904.981	18342
905.098	18300
905.216	18205
905.334	18266
905.451	18285
905.569	18057
905.686	18224
905.803	18171
905.921	18045
906.038	18060
906.155	18015
906.272	17885
906.389	17923
906.506	17764
906.623	17870
906.74	17748
906.857	17714
906.974	17615
907.091	17756
907.208	17828
907.324	17672
907.441	17684
907.557	17444
907.674	17467
907.79	17414
907.907	17398
908.023	17436
908.139	17448
908.256	17509
908.372	17372
908.488	17326
908.604	17143
908.72	17128
908.836	17159
908.952	17056
909.068	17246
909.184	17185
909.3	17193
909.415	17140
909.531	17220
909.647	16965
909.762	16854
909.878	16839
909.993	16949
910.108	16744
910.224	16752
910.339	16904
910.454	16694
910.57	16698
910.685	16618
910.8	16919
910.915	16706
911.03	16710
911.145	16535
911.259	16440
911.374	16398
911.489	16299
911.604	16272
911.718	16337
911.833	16185
911.947	16109
912.062	16078
912.176	16234
912.291	16242
912.405	16219
912.519	16367
912.633	16382
912.748	16268
912.862	16150
912.976	16063
913.09	15937
913.204	16059
913.318	15922
913.431	16150
913.545	16006
913.659	16196
913.772	15941
913.886	15857
914	15762
914.113	15899
914.226	16040
914.34	15857
914.453	15526
914.566	15823
914.68	15705
914.793	15675
914.906	15469
915.019	15473
915.132	15424
915.245	15408
915.358	15473
915.47	15310
915.583	15374
915.696	15443
915.809	15526
915.921	15462
916.034	15298
916.146	15325
916.259	15329
916.371	15332
916.483	15344
916.595	15180
916.708	15252
916.82	15211
916.932	15138
917.044	15142
917.156	15100
917.268	15108
917.38	15093
917.491	14941
917.603	15005
917.715	15146
917.826	15131
917.938	14914
918.049	14838
918.161	14906
918.272	15032
918.384	14963
918.495	15093
918.606	14826
918.717	14731
918.828	14853
918.939	14933
919.05	14625
919.161	14731
919.272	14686
919.383	14655
919.494	14899
919.604	14998
919.715	14777
919.826	14625
919.936	14781
920.047	14861
920.157	14724
920.267	14975
920.378	14750
920.488	14708
920.598	14902
920.708	15100
920.818	14876
920.928	14765
921.038	15066
921.148	14971
921.258	14788
921.368	14583
921.477	14518
921.587	14499
921.697	14461
921.806	14438
921.916	14328
922.025	14202
922.134	14142
922.244	14035
922.353	14100
922.462	13989
922.571	13898
922.68	13791
922.789	13723
922.898	13837
923.007	13791
923.116	13791
923.224	13696
923.333	13750
923.442	13655
923.55	13586
923.659	13594
923.767	13681
923.876	13544
923.984	13582
924.092	13460
924.201	13514
924.309	13464
924.417	13449
924.525	13415
924.633	13400
924.741	14434
924.849	13206
924.956	13384
925.064	13278
925.172	13091
925.279	13137
925.387	13164
925.494	13198
925.602	13278
925.709	13179
925.816	13084
925.924	13046
926.031	13183
926.138	13061
926.245	13164
926.352	13012
926.459	13187
926.566	13110
926.673	13000
926.779	12867
926.886	12973
926.993	12833
927.099	12726
927.206	12662
927.312	12669
927.419	12696
927.525	12772
927.631	12795
927.737	12612
927.843	12528
927.95	12483
928.056	12513
928.162	12574
928.267	12498
928.373	13152
928.479	12612
928.585	12376
928.69	12566
928.796	12540
928.901	12437
929.007	12270
929.112	12391
929.218	12407
929.323	12239
929.428	12262
929.533	12380
929.638	12106
929.743	12186
929.848	12311
929.953	12228
930.058	12129
930.163	11965
930.267	11939
930.372	12182
930.477	11836
930.581	12106
930.685	11973
930.79	11931
930.894	11821
930.998	11802
931.103	11946
931.207	11558
931.311	11562
931.415	11486
931.519	11216
931.623	11311
