Data from test_V78500241_1045.txt Node
Date: Fri Mar 25 15:17:08 CST 2022
User: usil
Spectrometer: V785-0024
Trigger mode: 0
Integration Time (sec): 4.000000E-1
Scans to average: 1
Nonlinearity correction enabled: false
Boxcar width: 0
Storing dark spectrum: false
XAxis mode: Wavelengths
Number of Pixels in Spectrum: 1024
>>>>>Begin Spectral Data<<<<<
801.071	28401
801.214	28253
801.356	28120
801.499	27953
801.641	27785
801.783	28006
801.926	28040
802.068	27918
802.211	27979
802.353	27720
802.496	27641
802.638	27469
802.78	27618
802.923	27458
803.065	27511
803.208	27599
803.35	27618
803.492	27637
803.635	27743
803.777	27603
803.919	27728
804.061	28162
804.204	27907
804.346	27774
804.488	27743
804.63	27762
804.773	27564
804.915	27835
805.057	27930
805.199	27941
805.341	27953
805.483	28013
805.626	27956
805.768	27831
805.91	28055
806.052	27892
806.194	27759
806.336	28078
806.478	28120
806.62	28036
806.762	28017
806.904	28200
807.046	28360
807.188	28325
807.33	28314
807.472	28337
807.614	28310
807.756	28428
807.898	28333
808.04	28207
808.182	28234
808.324	28265
808.465	28379
808.607	28398
808.749	28702
808.891	28607
809.033	28752
809.174	28725
809.316	28550
809.458	28493
809.6	28736
809.741	28774
809.883	28729
810.025	28984
810.166	28915
810.308	28911
810.45	28858
810.591	28702
810.733	28584
810.875	28577
811.016	28615
811.158	28432
811.299	28786
811.441	28850
811.582	28797
811.724	28527
811.865	28519
812.007	28653
812.148	28630
812.29	28740
812.431	28888
812.573	29098
812.714	29079
812.855	29132
812.997	29140
813.138	29512
813.279	29318
813.421	29368
813.562	29162
813.703	28987
813.845	28911
813.986	28713
814.127	28538
814.268	28390
814.41	28398
814.551	28348
814.692	28440
814.833	28287
814.974	28333
815.115	28333
815.256	28211
815.397	28177
815.539	28204
815.68	28280
815.821	28177
815.962	28314
816.103	28082
816.244	28021
816.385	27914
816.526	27770
816.666	27827
816.807	27728
816.948	27720
817.089	27876
817.23	27606
817.371	27743
817.512	27671
817.653	27504
817.793	27591
817.934	27682
818.075	27603
818.216	27698
818.356	27774
818.497	27606
818.638	27336
818.778	27447
818.919	27485
819.06	27412
819.2	27545
819.341	27720
819.481	27694
819.622	27774
819.762	28040
819.903	27914
820.043	27781
820.184	27762
820.324	27819
820.465	27804
820.605	27876
820.746	27812
820.886	27732
821.026	27755
821.167	27739
821.307	27778
821.447	27572
821.588	27473
821.728	27523
821.868	27408
822.008	27268
822.149	27135
822.289	27116
822.429	26940
822.569	26796
822.709	26788
822.849	26579
822.99	26765
823.13	26598
823.27	26476
823.41	26495
823.55	26393
823.69	26518
823.83	26556
823.97	26396
824.11	26374
824.25	26328
824.389	26187
824.529	26259
824.669	26328
824.809	26522
824.949	26427
825.089	26461
825.228	26370
825.368	26229
825.508	26221
825.648	26313
825.787	26244
825.927	26301
826.067	26183
826.206	26259
826.346	26210
826.485	26206
826.625	26157
826.765	26195
826.904	26244
827.044	25875
827.183	25871
827.323	25868
827.462	25887
827.601	25963
827.741	25799
827.88	25959
828.02	25822
828.159	25974
828.298	25860
828.437	26024
828.577	26035
828.716	26039
828.855	25719
828.994	25658
829.134	25670
829.273	25715
829.412	25651
829.551	25540
829.69	25578
829.829	25723
829.968	25613
830.107	25757
830.246	25635
830.385	25632
830.524	25548
830.663	25407
830.802	25301
830.941	25221
831.08	25228
831.219	25362
831.357	25426
831.496	25601
831.635	25213
831.774	25137
831.913	25152
832.051	25164
832.19	25031
832.329	25015
832.467	25008
832.606	24958
832.744	24833
832.883	24875
833.022	24958
833.16	24882
833.299	24924
833.437	24882
833.576	24951
833.714	24973
833.852	25118
833.991	25050
834.129	25076
834.267	25080
834.406	25118
834.544	25012
834.682	24909
834.821	25019
834.959	25099
835.097	24943
835.235	24970
835.373	24951
835.511	24890
835.65	24852
835.788	25008
835.926	24700
836.064	24635
836.202	24738
836.34	24764
836.478	24833
836.615	24829
836.753	24749
836.891	24886
837.029	24924
837.167	24844
837.305	24738
837.443	24749
837.58	24669
837.718	24829
837.856	24722
837.993	24612
838.131	24719
838.269	24464
838.406	24448
838.544	24376
838.681	24346
838.819	24330
838.956	24201
839.094	24079
839.231	24030
839.369	24296
839.506	24536
839.643	24399
839.781	24197
839.918	24110
840.055	24117
840.193	24186
840.33	24060
840.467	24136
840.604	23977
840.742	24323
840.879	23908
841.016	23973
841.153	23977
841.29	24136
841.427	23977
841.564	24102
841.701	24098
841.838	24003
841.975	23958
842.112	23912
842.249	23790
842.385	23684
842.522	24098
842.659	23843
842.796	23745
842.933	23817
843.069	23684
843.206	23710
843.343	23912
843.479	23851
843.616	23752
843.752	23592
843.889	23547
844.025	23748
844.162	23562
844.298	23642
844.435	23497
844.571	23573
844.708	23573
844.844	23828
844.98	23680
845.117	23615
845.253	23509
845.389	23452
845.525	23410
845.661	23482
845.798	23356
845.934	23383
846.07	23368
846.206	23277
846.342	23459
846.478	23250
846.614	23132
846.75	23018
846.886	22995
847.022	23151
847.158	23109
847.294	23033
847.429	22987
847.565	23056
847.701	23280
847.837	22675
847.972	22656
848.108	22976
848.244	22885
848.379	22691
848.515	22733
848.65	22618
848.786	22634
848.921	22588
849.057	22786
849.192	22869
849.328	22660
849.463	22679
849.598	22603
849.734	22630
849.869	22481
850.004	22382
850.14	22470
850.275	22333
850.41	22303
850.545	22257
850.68	22360
850.815	22352
850.95	22466
851.085	22497
851.22	22519
851.355	22478
851.49	22413
851.625	22462
851.76	22402
851.895	22306
852.03	22287
852.165	22367
852.299	22478
852.434	22531
852.569	22447
852.703	22485
852.838	22375
852.973	22561
853.107	22493
853.242	22394
853.376	22192
853.511	22120
853.645	22322
853.78	22580
853.914	22249
854.048	22158
854.183	22181
854.317	22253
854.451	22405
854.585	22268
854.72	22295
854.854	22375
854.988	22158
855.122	22226
855.256	22162
855.39	22268
855.524	22375
855.658	22325
855.792	22234
855.926	22234
856.06	22405
856.194	22352
856.327	22204
856.461	22268
856.595	22246
856.729	22219
856.862	22352
856.996	22265
857.13	22306
857.263	22261
857.397	22291
857.53	22219
857.664	22310
857.797	22291
857.931	22341
858.064	22295
858.197	22386
858.331	22173
858.464	22188
858.597	22097
858.731	22169
858.864	22150
858.997	22177
859.13	22280
859.263	22268
859.396	22322
859.529	22135
859.662	22147
859.795	22177
859.928	22303
860.061	22371
860.194	22451
860.327	22226
860.46	22219
860.592	22436
860.725	22398
860.858	22257
860.99	22234
861.123	22173
861.256	22166
861.388	22185
861.521	22858
861.653	21991
861.786	22074
861.918	22070
862.05	22139
862.183	22147
862.315	22116
862.447	22207
862.58	22238
862.712	22063
862.844	21998
862.976	21960
863.108	22048
863.24	22379
863.372	21888
863.504	21956
863.636	21880
863.768	21945
863.9	21972
864.032	21861
864.164	21789
864.296	21907
864.428	21987
864.559	21937
864.691	21937
864.823	21979
864.954	21873
865.086	21975
865.217	21937
865.349	21644
865.48	21816
865.612	21819
865.743	21994
865.875	21926
866.006	21816
866.137	21812
866.269	21781
866.4	21819
866.531	21690
866.662	21732
866.793	21709
866.924	21686
867.055	21728
867.186	21705
867.317	21759
867.448	21709
867.579	21629
867.71	21618
867.841	21625
867.972	21671
868.103	21705
868.233	21800
868.364	21850
868.495	21827
868.625	22059
868.756	22109
868.886	21873
869.017	21930
869.147	22029
869.278	22105
869.408	21846
869.539	22055
869.669	22086
869.799	22051
869.929	22211
870.06	22131
870.19	22310
870.32	22344
870.45	22348
870.58	22360
870.71	22371
870.84	22386
870.97	22314
871.1	22272
871.23	22455
871.36	22500
871.489	22535
871.619	22478
871.749	22577
871.879	22637
872.008	22687
872.138	22542
872.267	22607
872.397	22523
872.526	22360
872.656	22462
872.785	22341
872.915	22618
873.044	22599
873.173	22729
873.303	22622
873.432	22649
873.561	22668
873.69	22493
873.819	22592
873.948	22592
874.077	22489
874.206	22588
874.335	22649
874.464	22630
874.593	22831
874.722	22706
874.851	22877
874.979	22812
875.108	22706
875.237	22797
875.365	22672
875.494	22801
875.623	22873
875.751	22809
875.88	22900
876.008	22953
876.136	23003
876.265	23193
876.393	23353
876.521	23227
876.65	23311
876.778	23155
876.906	23140
877.034	23220
877.162	23102
877.29	23162
877.418	23197
877.546	23109
877.674	23094
877.802	23079
877.93	23105
878.058	23067
878.185	23029
878.313	23117
878.441	23208
878.568	22824
878.696	23041
878.824	23178
878.951	23242
879.079	23181
879.206	23360
879.333	23113
879.461	23231
879.588	23254
879.715	23296
879.842	23440
879.97	23193
880.097	23060
880.224	22866
880.351	22957
880.478	22854
880.605	22831
880.732	22900
880.859	23083
880.986	22976
881.112	23006
881.239	22748
881.366	22790
881.493	22618
881.619	22569
881.746	22531
881.872	22538
881.999	22561
882.125	22394
882.252	22519
882.378	22584
882.505	22584
882.631	22337
882.757	22352
882.883	22394
883.01	22215
883.136	22067
883.262	22128
883.388	22029
883.514	22173
883.64	22230
883.766	22211
883.892	22025
884.018	21994
884.143	22120
884.269	22287
884.395	21793
884.52	21869
884.646	21861
884.772	21922
884.897	21686
885.023	21850
885.148	21911
885.274	21934
885.399	21819
885.524	21884
885.65	21797
885.775	21892
885.9	21865
886.025	21892
886.15	21827
886.275	21876
886.4	21686
886.525	21720
886.65	21732
886.775	21686
886.9	21903
887.025	21968
887.149	21781
887.274	21671
887.399	21576
887.523	21682
887.648	21481
887.773	21557
887.897	21679
888.021	21660
888.146	21545
888.27	21671
888.395	21644
888.519	21599
888.643	21606
888.767	21663
888.891	21496
889.015	21363
889.139	21424
889.263	21416
889.387	21473
889.511	21549
889.635	21610
889.759	21374
889.883	21272
890.006	21374
890.13	21408
890.254	21393
890.377	21203
890.501	21169
890.624	21123
890.748	21230
890.871	20952
890.995	20918
891.118	20975
891.241	20944
891.364	20963
891.488	20998
891.611	20952
891.734	21055
891.857	21017
891.98	21036
892.103	20963
892.226	20891
892.349	20918
892.471	20861
892.594	20849
892.717	20883
892.839	20739
892.962	20788
893.085	20902
893.207	20887
893.33	20636
893.452	20697
893.575	20876
893.697	20830
893.819	21017
893.941	21070
894.064	21009
894.186	20819
894.308	20686
894.43	20933
894.552	20906
894.674	20815
894.796	20727
894.918	20853
895.04	20834
895.161	20899
895.283	20853
895.405	20769
895.526	20777
895.648	20754
895.769	20765
895.891	20815
896.012	20948
896.134	20849
896.255	20777
896.376	20807
896.498	20811
896.619	20876
896.74	20708
896.861	20979
896.982	21104
897.103	21180
897.224	21184
897.345	20960
897.466	20910
897.587	21036
897.708	21043
897.828	21020
897.949	20941
898.07	20804
898.19	20800
898.311	20925
898.431	20853
898.552	20971
898.672	21058
898.792	20990
898.913	20952
899.033	20906
899.153	20648
899.273	20579
899.393	20731
899.513	20838
899.633	20819
899.753	20849
899.873	20644
899.993	20785
900.113	20625
900.232	20739
900.352	20640
900.472	20511
900.591	20461
900.711	20423
900.83	20461
900.95	20629
901.069	20522
901.189	20419
901.308	20233
901.427	20096
901.546	20119
901.665	20084
901.784	19978
901.904	19894
902.023	19940
902.141	19750
902.26	19582
902.379	19772
902.498	19525
902.617	19521
902.735	19605
902.854	19491
902.973	19521
903.091	19263
903.21	19228
903.328	19282
903.446	19244
903.565	19088
903.683	19099
903.801	18993
903.919	19122
904.038	18928
904.156	18829
904.274	18947
904.392	18787
904.51	18859
904.627	18745
904.745	18867
904.863	18806
904.981	18658
905.098	18623
905.216	18517
905.334	18471
905.451	18585
905.569	18475
905.686	18589
905.803	18445
905.921	18273
906.038	18353
906.155	18262
906.272	18247
906.389	18220
906.506	18133
906.623	18102
906.74	18098
906.857	17931
906.974	17931
907.091	18011
907.208	18102
907.324	17923
907.441	17939
907.557	17726
907.674	17745
907.79	17573
907.907	17699
908.023	17722
908.139	17638
908.256	17718
908.372	17642
908.488	17665
908.604	17337
908.72	17353
908.836	17433
908.952	17391
909.068	17478
909.184	17570
909.3	17501
909.415	17493
909.531	17330
909.647	17189
909.762	17189
909.878	17132
909.993	17174
910.108	17086
910.224	17140
910.339	17079
910.454	17029
910.57	16953
910.685	16961
910.8	17140
910.915	17071
911.03	16919
911.145	16793
911.259	16752
911.374	16782
911.489	16653
911.604	16656
911.718	16451
911.833	16481
911.947	16360
912.062	16291
912.176	16504
912.291	16382
912.405	16447
912.519	16626
912.633	16626
912.748	16558
912.862	16325
912.976	16257
913.09	16249
913.204	16238
913.318	16291
913.431	16371
913.545	16280
913.659	16337
913.772	16109
913.886	16135
914	16116
914.113	16124
914.226	16204
914.34	16090
914.453	16006
914.566	16048
914.68	15945
914.793	15918
914.906	15701
915.019	15637
915.132	15591
915.245	15618
915.358	15599
915.47	15656
915.583	15724
915.696	15641
915.809	15663
915.921	15755
916.034	15690
916.146	15447
916.259	15637
916.371	15595
916.483	15625
916.595	15466
916.708	15393
916.82	15481
916.932	15412
917.044	15344
917.156	15416
917.268	15355
917.38	15367
917.491	15218
917.603	15146
917.715	15370
917.826	15450
917.938	15207
918.049	15081
918.161	15226
918.272	15302
918.384	15279
918.495	15252
918.606	15100
918.717	15043
918.828	15062
918.939	15043
919.05	14887
919.161	14944
919.272	14804
919.383	14811
919.494	15081
919.604	15298
919.715	14998
919.826	14921
919.936	15001
920.047	15047
920.157	14910
920.267	15222
920.378	15013
920.488	14941
920.598	15142
920.708	15207
920.818	15116
920.928	15112
921.038	15275
921.148	15169
921.258	14944
921.368	14834
921.477	14758
921.587	14716
921.697	14575
921.806	14670
921.916	14579
922.025	14431
922.134	14336
922.244	14252
922.353	14419
922.462	14214
922.571	14142
922.68	14005
922.789	14005
922.898	14027
923.007	13947
923.116	14027
923.224	14035
923.333	13868
923.442	13890
923.55	13856
923.659	13826
923.767	13757
923.876	13807
923.984	13780
924.092	13696
924.201	13750
924.309	13700
924.417	13696
924.525	13723
924.633	13578
924.741	14644
924.849	13324
924.956	13533
925.064	13506
925.172	13312
925.279	13388
925.387	13362
925.494	13358
925.602	13419
925.709	13388
925.816	13346
925.924	13304
926.031	13365
926.138	13289
926.245	13350
926.352	13285
926.459	13377
926.566	13426
926.673	13259
926.779	13099
926.886	13050
926.993	12932
927.099	13008
927.206	12905
927.312	12916
927.419	13023
927.525	12897
927.631	12901
927.737	12806
927.843	12753
927.95	12722
928.056	12738
928.162	12711
928.267	12791
928.373	13327
928.479	12852
928.585	12494
928.69	12654
928.796	12787
928.901	12650
929.007	12433
929.112	12547
929.218	12578
929.323	12460
929.428	12467
929.533	12627
929.638	12407
929.743	12361
929.848	12456
929.953	12353
930.058	12292
930.163	12121
930.267	12057
930.372	12216
930.477	12076
930.581	12308
930.685	12220
930.79	12079
930.894	12015
930.998	11999
931.103	12110
931.207	11737
931.311	11657
931.415	11543
931.519	11414
931.623	11334
