Data from test_V78500241_1432.txt Node
Date: Fri Mar 25 15:19:49 CST 2022
User: usil
Spectrometer: V785-0024
Trigger mode: 0
Integration Time (sec): 4.000000E-1
Scans to average: 1
Nonlinearity correction enabled: false
Boxcar width: 0
Storing dark spectrum: false
XAxis mode: Wavelengths
Number of Pixels in Spectrum: 1024
>>>>>Begin Spectral Data<<<<<
801.071	28078
801.214	27960
801.356	27717
801.499	27633
801.641	27701
801.783	27572
801.926	27644
802.068	27408
802.211	27652
802.353	27424
802.496	27260
802.638	27359
802.78	27161
802.923	27135
803.065	27116
803.208	27310
803.35	27157
803.492	27370
803.635	27420
803.777	27252
803.919	27351
804.061	27709
804.204	27367
804.346	27287
804.488	27310
804.63	27378
804.773	27336
804.915	27405
805.057	27561
805.199	27405
805.341	27469
805.483	27736
805.626	27488
805.768	27435
805.91	27500
806.052	27682
806.194	27466
806.336	27698
806.478	27690
806.62	27603
806.762	27827
806.904	27762
807.046	28093
807.188	27945
807.33	27972
807.472	27880
807.614	27873
807.756	27926
807.898	27804
808.04	27778
808.182	27686
808.324	27854
808.465	27857
808.607	28150
808.749	28242
808.891	28261
809.033	28322
809.174	28280
809.316	28371
809.458	28314
809.6	28333
809.741	28265
809.883	28409
810.025	28493
810.166	28459
810.308	28569
810.45	28527
810.591	28371
810.733	28447
810.875	28230
811.016	28002
811.158	28196
811.299	28230
811.441	28436
811.582	28284
811.724	28234
811.865	28204
812.007	28284
812.148	28154
812.29	28223
812.431	28352
812.573	28611
812.714	28599
812.855	28698
812.997	28999
813.138	28866
813.279	28869
813.421	28866
813.562	28793
813.703	28588
813.845	28451
813.986	28120
814.127	27975
814.268	27914
814.41	27945
814.551	27918
814.692	27960
814.833	27774
814.974	27994
815.115	27979
815.256	27892
815.397	27698
815.539	27865
815.68	27728
815.821	27572
815.962	27778
816.103	27637
816.244	27603
816.385	27610
816.526	27405
816.666	27287
816.807	27173
816.948	27264
817.089	27389
817.23	27283
817.371	27199
817.512	27218
817.653	27176
817.793	27260
817.934	27058
818.075	27176
818.216	27249
818.356	27211
818.497	27051
818.638	26979
818.778	27104
818.919	26998
819.06	27047
819.2	27135
819.341	27108
819.481	27298
819.622	27386
819.762	27477
819.903	27519
820.043	27283
820.184	27279
820.324	27233
820.465	27306
820.605	27294
820.746	27275
820.886	27165
821.026	27393
821.167	27233
821.307	27310
821.447	27184
821.588	27199
821.728	27104
821.868	26838
822.008	26792
822.149	26625
822.289	26678
822.429	26332
822.569	26415
822.709	26446
822.849	26218
822.99	26130
823.13	26210
823.27	26039
823.41	26107
823.55	25966
823.69	26065
823.83	26046
823.97	25921
824.11	25837
824.25	25822
824.389	25814
824.529	25917
824.669	25826
824.809	25982
824.949	25811
825.089	25932
825.228	25772
825.368	25731
825.508	25666
825.648	25780
825.787	25765
825.927	25814
826.067	25647
826.206	25613
826.346	25772
826.485	25772
826.625	25761
826.765	25826
826.904	25803
827.044	25521
827.183	25487
827.323	25396
827.462	25483
827.601	25396
827.741	25320
827.88	25411
828.02	25213
828.159	25297
828.298	25415
828.437	25491
828.577	25324
828.716	25354
828.855	25240
828.994	24989
829.134	25053
829.273	25251
829.412	25023
829.551	25080
829.69	25008
829.829	25190
829.968	25187
830.107	25050
830.246	25072
830.385	25008
830.524	24981
830.663	24935
830.802	24821
830.941	24833
831.08	24730
831.219	24738
831.357	24791
831.496	24958
831.635	24715
831.774	24745
831.913	24646
832.051	24559
832.19	24464
832.329	24574
832.467	24395
832.606	24315
832.744	24262
832.883	24350
833.022	24289
833.16	24384
833.299	24422
833.437	24513
833.576	24414
833.714	24429
833.852	24464
833.991	24456
834.129	24509
834.267	24452
834.406	24319
834.544	24525
834.682	24498
834.821	24346
834.959	24654
835.097	24319
835.235	24551
835.373	24464
835.511	24441
835.65	24292
835.788	24376
835.926	24083
836.064	24068
836.202	24140
836.34	24262
836.478	24490
836.615	24095
836.753	24273
836.891	24182
837.029	24323
837.167	24201
837.305	24041
837.443	24186
837.58	24159
837.718	24239
837.856	24098
837.993	24125
838.131	23973
838.269	23840
838.406	23961
838.544	23954
838.681	23726
838.819	23832
838.956	23665
839.094	23581
839.231	23668
839.369	23665
839.506	23847
839.643	23756
839.781	23493
839.918	23558
840.055	23684
840.193	23649
840.33	23505
840.467	23551
840.604	23592
840.742	23657
840.879	23512
841.016	23368
841.153	23398
841.29	23501
841.427	23398
841.564	23490
841.701	23429
841.838	23303
841.975	23417
842.112	23398
842.249	23296
842.385	23269
842.522	23429
842.659	23246
842.796	23296
842.933	23223
843.069	23239
843.206	23216
843.343	23345
843.479	23246
843.616	23299
843.752	23003
843.889	22965
844.025	23178
844.162	23117
844.298	23204
844.435	22942
844.571	22927
844.708	22980
844.844	23166
844.98	23124
845.117	23193
845.253	23022
845.389	22824
845.525	22911
845.661	22790
845.798	22706
845.934	22877
846.07	22740
846.206	22736
846.342	23003
846.478	22782
846.614	22569
846.75	22485
846.886	22466
847.022	22618
847.158	22405
847.294	22462
847.429	22409
847.565	22386
847.701	22755
847.837	22253
847.972	22150
848.108	22230
848.244	22386
848.379	22040
848.515	22188
848.65	21998
848.786	22063
848.921	22097
849.057	22219
849.192	22128
849.328	22169
849.463	22143
849.598	21941
849.734	21960
849.869	21873
850.004	21793
850.14	21781
850.275	21926
850.41	21778
850.545	21698
850.68	21857
850.815	21854
850.95	21816
851.085	22029
851.22	22021
851.355	21899
851.49	21838
851.625	21698
851.76	21797
851.895	21717
852.03	21701
852.165	21766
852.299	21819
852.434	21838
852.569	21907
852.703	21857
852.838	21804
852.973	21953
853.107	21968
853.242	21656
853.376	21641
853.511	21557
853.645	21625
853.78	21709
853.914	21690
854.048	21561
854.183	21641
854.317	21625
854.451	21850
854.585	21705
854.72	21572
854.854	21739
854.988	21690
855.122	21755
855.256	21606
855.39	21568
855.524	21667
855.658	21823
855.792	21667
855.926	21701
856.06	21816
856.194	21705
856.327	21583
856.461	21504
856.595	21557
856.729	21557
856.862	21728
856.996	21660
857.13	21675
857.263	21759
857.397	21671
857.53	21625
857.664	21656
857.797	21701
857.931	21789
858.064	21652
858.197	21717
858.331	21625
858.464	21599
858.597	21538
858.731	21564
858.864	21652
858.997	21591
859.13	21686
859.263	21698
859.396	21701
859.529	21568
859.662	21614
859.795	21523
859.928	21572
860.061	21717
860.194	21793
860.327	21713
860.46	21675
860.592	21705
860.725	21686
860.858	21770
860.99	21667
861.123	21534
861.256	21629
861.388	21675
861.521	22318
861.653	21477
861.786	21310
861.918	21572
862.05	21519
862.183	21603
862.315	21622
862.447	21648
862.58	21576
862.712	21287
862.844	21252
862.976	21374
863.108	21443
863.24	21694
863.372	21313
863.504	21287
863.636	21355
863.768	21420
863.9	21298
864.032	21359
864.164	21298
864.296	21298
864.428	21439
864.559	21397
864.691	21420
864.823	21439
864.954	21340
865.086	21256
865.217	21264
865.349	21157
865.48	21226
865.612	21348
865.743	21336
865.875	21241
866.006	21237
866.137	21192
866.269	21252
866.4	21173
866.531	21188
866.662	21192
866.793	21104
866.924	21237
867.055	21230
867.186	21119
867.317	21237
867.448	21077
867.579	21226
867.71	21150
867.841	21169
867.972	21096
868.103	21154
868.233	21173
868.364	21089
868.495	21313
868.625	21264
868.756	21466
868.886	21370
869.017	21393
869.147	21473
869.278	21576
869.408	21492
869.539	21367
869.669	21580
869.799	21435
869.929	21538
870.06	21538
870.19	21720
870.32	21732
870.45	21675
870.58	21823
870.71	21823
870.84	21953
870.97	21717
871.1	21854
871.23	22013
871.36	21987
871.489	21804
871.619	22074
871.749	21804
871.879	22002
872.008	22116
872.138	22051
872.267	22048
872.397	21861
872.526	21854
872.656	21766
872.785	21892
872.915	21991
873.044	22036
873.173	22044
873.303	22158
873.432	22067
873.561	22032
873.69	22101
873.819	22029
873.948	22025
874.077	22105
874.206	21956
874.335	21972
874.464	22059
874.593	22242
874.722	22173
874.851	22417
874.979	22360
875.108	22215
875.237	22276
875.365	22242
875.494	22268
875.623	22295
875.751	22299
875.88	22242
876.008	22386
876.136	22402
876.265	22508
876.393	22889
876.521	22698
876.65	22675
876.778	22626
876.906	22626
877.034	22656
877.162	22474
877.29	22523
877.418	22588
877.546	22607
877.674	22538
877.802	22592
877.93	22584
878.058	22618
878.185	22390
878.313	22504
878.441	22573
878.568	22402
878.696	22451
878.824	22668
878.951	22664
879.079	22740
879.206	22820
879.333	22828
879.461	22687
879.588	22664
879.715	22748
879.842	22850
879.97	22694
880.097	22417
880.224	22348
880.351	22512
880.478	22497
880.605	22462
880.732	22306
880.859	22611
880.986	22538
881.112	22451
881.239	22211
881.366	22131
881.493	22074
881.619	21926
881.746	22101
881.872	21945
881.999	21949
882.125	21953
882.252	21911
882.378	21945
882.505	22120
882.631	21899
882.757	21747
882.883	21751
883.01	21622
883.136	21618
883.262	21568
883.388	21519
883.514	21614
883.64	21622
883.766	21576
883.892	21526
884.018	21473
884.143	21610
884.269	21603
884.395	21496
884.52	21283
884.646	21298
884.772	21184
884.897	21275
885.023	21344
885.148	21420
885.274	21412
885.399	21473
885.524	21268
885.65	21226
885.775	21393
885.9	21283
886.025	21447
886.15	21412
886.275	21260
886.4	21272
886.525	21252
886.65	21241
886.775	21245
886.9	21405
887.025	21405
887.149	21241
887.274	21123
887.399	21062
887.523	21146
887.648	20956
887.773	20979
887.897	21226
888.021	21192
888.146	20948
888.27	21070
888.395	21150
888.519	21116
888.643	21123
888.767	21127
888.891	21001
889.015	20887
889.139	20929
889.263	20883
889.387	20982
889.511	20994
889.635	21074
889.759	20788
889.883	20872
890.006	20975
890.13	21017
890.254	20724
890.377	20727
890.501	20625
890.624	20537
890.748	20568
890.871	20575
890.995	20454
891.118	20362
891.241	20473
891.364	20476
891.488	20579
891.611	20457
891.734	20396
891.857	20484
891.98	20465
892.103	20545
892.226	20434
892.349	20305
892.471	20267
892.594	20290
892.717	20385
892.839	20271
892.962	20328
893.085	20290
893.207	20320
893.33	20229
893.452	20195
893.575	20362
893.697	20225
893.819	20374
893.941	20526
894.064	20450
894.186	20259
894.308	20161
894.43	20343
894.552	20400
894.674	20324
894.796	20233
894.918	20290
895.04	20301
895.161	20377
895.283	20400
895.405	20187
895.526	20282
895.648	20404
895.769	20324
895.891	20347
896.012	20400
896.134	20381
896.255	20317
896.376	20229
896.498	20305
896.619	20381
896.74	20248
896.861	20385
896.982	20655
897.103	20769
897.224	20754
897.345	20461
897.466	20370
897.587	20560
897.708	20613
897.828	20457
897.949	20457
898.07	20362
898.19	20480
898.311	20552
898.431	20355
898.552	20476
898.672	20511
898.792	20579
898.913	20594
899.033	20438
899.153	20374
899.273	20229
899.393	20210
899.513	20172
899.633	20267
899.753	20389
899.873	20210
899.993	20408
900.113	20157
900.232	20256
900.352	20176
900.472	20077
900.591	20065
900.711	20058
900.83	19989
900.95	20119
901.069	20092
901.189	19940
901.308	19742
901.427	19734
901.546	19605
901.665	19693
901.784	19628
901.904	19548
902.023	19422
902.141	19278
902.26	19145
902.379	19251
902.498	19156
902.617	19065
902.735	19110
902.854	19202
902.973	18989
903.091	18882
903.21	18753
903.328	18806
903.446	18639
903.565	18681
903.683	18635
903.801	18551
903.919	18593
904.038	18551
904.156	18289
904.274	18502
904.392	18350
904.51	18388
904.627	18388
904.745	18441
904.863	18486
904.981	18319
905.098	18121
905.216	18072
905.334	18125
905.451	18095
905.569	18079
905.686	18110
905.803	18068
905.921	17893
906.038	17980
906.155	17935
906.272	17775
906.389	17817
906.506	17524
906.623	17581
906.74	17657
906.857	17570
906.974	17539
907.091	17573
907.208	17767
907.324	17570
907.441	17356
907.557	17284
907.674	17337
907.79	17307
907.907	17227
908.023	17307
908.139	17220
908.256	17170
908.372	17132
908.488	17220
908.604	17105
908.72	17006
908.836	17029
908.952	17014
909.068	17124
909.184	17090
909.3	16942
909.415	16961
909.531	16984
909.647	16774
909.762	16809
909.878	16656
909.993	16729
910.108	16649
910.224	16603
910.339	16687
910.454	16592
910.57	16531
910.685	16516
910.8	16717
910.915	16675
911.03	16573
911.145	16348
911.259	16318
911.374	16333
911.489	16249
911.604	16192
911.718	16128
911.833	16048
911.947	15956
912.062	15949
912.176	15945
912.291	16131
912.405	16055
912.519	16200
912.633	16223
912.748	16090
912.862	16010
912.976	15922
913.09	15747
913.204	15907
913.318	15915
913.431	15964
913.545	15975
913.659	15953
913.772	15797
913.886	15789
914	15637
914.113	15762
914.226	15717
914.34	15739
914.453	15610
914.566	15679
914.68	15572
914.793	15511
914.906	15313
915.019	15325
915.132	15241
915.245	15321
915.358	15378
915.47	15302
915.583	15268
915.696	15256
915.809	15405
915.921	15420
916.034	15283
916.146	15123
916.259	15165
916.371	15302
916.483	15222
916.595	15116
916.708	15146
916.82	15062
916.932	15097
917.044	15005
917.156	15028
917.268	14872
917.38	14853
917.491	14899
917.603	14918
917.715	14971
917.826	15005
917.938	14960
918.049	14819
918.161	14876
918.272	15005
918.384	15036
918.495	14796
918.606	14739
918.717	14610
918.828	14613
918.939	14796
919.05	14549
919.161	14610
919.272	14492
919.383	14625
919.494	14739
919.604	14872
919.715	14602
919.826	14484
919.936	14587
920.047	14674
920.157	14670
920.267	14788
920.378	14686
920.488	14602
920.598	14731
920.708	14891
920.818	14773
920.928	14781
921.038	14838
921.148	14883
921.258	14644
921.368	14476
921.477	14415
921.587	14336
921.697	14214
921.806	14366
921.916	14210
922.025	14065
922.134	14039
922.244	13982
922.353	14008
922.462	13841
922.571	13795
922.68	13715
922.789	13689
922.898	13746
923.007	13582
923.116	13616
923.224	13601
923.333	13582
923.442	13483
923.55	13518
923.659	13575
923.767	13556
923.876	13464
923.984	13480
924.092	13438
924.201	13396
924.309	13449
924.417	13384
924.525	13312
924.633	13339
924.741	14081
924.849	13095
924.956	13263
925.064	13114
925.172	12973
925.279	13065
925.387	13091
925.494	13107
925.602	13225
925.709	13137
925.816	12890
925.924	13053
926.031	13042
926.138	13000
926.245	13057
926.352	12916
926.459	13091
926.566	13065
926.673	12947
926.779	12833
926.886	12817
926.993	12665
927.099	12662
927.206	12631
927.312	12570
927.419	12623
927.525	12604
927.631	12700
927.737	12574
927.843	12494
927.95	12289
928.056	12380
928.162	12502
928.267	12479
928.373	12916
928.479	12475
928.585	12311
928.69	12369
928.796	12395
928.901	12235
929.007	12163
929.112	12262
929.218	12216
929.323	12209
929.428	12186
929.533	12251
929.638	12049
929.743	12152
929.848	12171
929.953	12049
930.058	11999
930.163	11847
930.267	11847
930.372	11958
930.477	11767
930.581	12022
930.685	11973
930.79	11745
930.894	11752
930.998	11630
931.103	11832
931.207	11554
931.311	11353
931.415	11345
931.519	11140
931.623	11147
