Data from test_V78500241_211.txt Node
Date: Fri Mar 25 15:11:19 CST 2022
User: usil
Spectrometer: V785-0024
Trigger mode: 0
Integration Time (sec): 4.000000E-1
Scans to average: 1
Nonlinearity correction enabled: false
Boxcar width: 0
Storing dark spectrum: false
XAxis mode: Wavelengths
Number of Pixels in Spectrum: 1024
>>>>>Begin Spectral Data<<<<<
801.071	27949
801.214	27869
801.356	27732
801.499	27652
801.641	27481
801.783	27622
801.926	27572
802.068	27462
802.211	27294
802.353	27256
802.496	27093
802.638	27032
802.78	27001
802.923	26982
803.065	27036
803.208	27066
803.35	26967
803.492	27226
803.635	27070
803.777	27043
803.919	27233
804.061	27401
804.204	27020
804.346	27131
804.488	26979
804.63	27119
804.773	27096
804.915	27058
805.057	27070
805.199	27195
805.341	27070
805.483	27211
805.626	27264
805.768	27077
805.91	27344
806.052	27340
806.194	27116
806.336	27389
806.478	27233
806.62	27192
806.762	27233
806.904	27507
807.046	27641
807.188	27530
807.33	27736
807.472	27656
807.614	27481
807.756	27538
807.898	27313
808.04	27519
808.182	27359
808.324	27359
808.465	27462
808.607	27622
808.749	27694
808.891	27994
809.033	27998
809.174	27899
809.316	27637
809.458	27743
809.6	27652
809.741	27701
809.883	27991
810.025	28090
810.166	27983
810.308	28090
810.45	28109
810.591	27922
810.733	27675
810.875	27701
811.016	27728
811.158	27660
811.299	27671
811.441	27968
811.582	27838
811.724	27724
811.865	27553
812.007	27644
812.148	27549
812.29	27610
812.431	27869
812.573	27842
812.714	27983
812.855	28143
812.997	28242
813.138	28371
813.279	28478
813.421	28299
813.562	28105
813.703	27934
813.845	27861
813.986	27561
814.127	27545
814.268	27401
814.41	27355
814.551	27260
814.692	27469
814.833	27218
814.974	27291
815.115	27230
815.256	27157
815.397	27127
815.539	27112
815.68	26971
815.821	27184
815.962	27070
816.103	27036
816.244	26910
816.385	26796
816.526	26895
816.666	26636
816.807	26503
816.948	26514
817.089	26579
817.23	26541
817.371	26507
817.512	26442
817.653	26495
817.793	26389
817.934	26484
818.075	26522
818.216	26564
818.356	26514
818.497	26377
818.638	26218
818.778	26161
818.919	26115
819.06	26339
819.2	26225
819.341	26442
819.481	26480
819.622	26594
819.762	26842
819.903	26697
820.043	26781
820.184	26526
820.324	26476
820.465	26560
820.605	26503
820.746	26446
820.886	26389
821.026	26594
821.167	26495
821.307	26389
821.447	26419
821.588	26263
821.728	26183
821.868	26142
822.008	25894
822.149	25750
822.289	25921
822.429	25647
822.569	25613
822.709	25601
822.849	25441
822.99	25483
823.13	25422
823.27	25320
823.41	25126
823.55	25114
823.69	25141
823.83	25148
823.97	25141
824.11	25053
824.25	24951
824.389	25012
824.529	25038
824.669	24920
824.809	25187
824.949	25023
825.089	25015
825.228	25057
825.368	24806
825.508	24798
825.648	24829
825.787	24852
825.927	24798
826.067	24772
826.206	24757
826.346	24673
826.485	24901
826.625	24658
826.765	24886
826.904	24905
827.044	24517
827.183	24528
827.323	24448
827.462	24433
827.601	24353
827.741	24448
827.88	24369
828.02	24327
828.159	24505
828.298	24551
828.437	24456
828.577	24460
828.716	24616
828.855	24513
828.994	24201
829.134	24091
829.273	24334
829.412	24258
829.551	24136
829.69	24144
829.829	24289
829.968	24201
830.107	24106
830.246	24087
830.385	24095
830.524	23931
830.663	24114
830.802	23790
830.941	23771
831.08	23676
831.219	23802
831.357	23798
831.496	23859
831.635	23802
831.774	23680
831.913	23722
832.051	23547
832.19	23589
832.329	23699
832.467	23330
832.606	23474
832.744	23356
832.883	23547
833.022	23402
833.16	23501
833.299	23436
833.437	23398
833.576	23520
833.714	23444
833.852	23516
833.991	23501
834.129	23505
834.267	23554
834.406	23501
834.544	23566
834.682	23452
834.821	23448
834.959	23665
835.097	23345
835.235	23528
835.373	23486
835.511	23589
835.65	23299
835.788	23376
835.926	23105
836.064	23105
836.202	23143
836.34	23296
836.478	23311
836.615	23197
836.753	23307
836.891	23376
837.029	23235
837.167	23250
837.305	23303
837.443	23185
837.58	23185
837.718	23174
837.856	23094
837.993	23060
838.131	22968
838.269	23003
838.406	23025
838.544	22980
838.681	22752
838.819	22771
838.956	22573
839.094	22546
839.231	22634
839.369	22740
839.506	22934
839.643	22847
839.781	22569
839.918	22447
840.055	22577
840.193	22531
840.33	22538
840.467	22588
840.604	22504
840.742	22752
840.879	22371
841.016	22382
841.153	22447
841.29	22573
841.427	22497
841.564	22592
841.701	22375
841.838	22398
841.975	22344
842.112	22402
842.249	22314
842.385	22135
842.522	22344
842.659	22356
842.796	22295
842.933	22306
843.069	22177
843.206	22162
843.343	22257
843.479	22185
843.616	22029
843.752	22017
843.889	21956
844.025	22150
844.162	21941
844.298	22120
844.435	21953
844.571	21884
844.708	21949
844.844	22253
844.98	22109
845.117	22021
845.253	21926
845.389	21930
845.525	21869
845.661	21838
845.798	21682
845.934	21770
846.07	21679
846.206	21633
846.342	21762
846.478	21637
846.614	21469
846.75	21401
846.886	21367
847.022	21530
847.158	21492
847.294	21420
847.429	21370
847.565	21367
847.701	21682
847.837	21093
847.972	21112
848.108	21237
848.244	21123
848.379	21085
848.515	20986
848.65	20944
848.786	20967
848.921	20895
849.057	21100
849.192	21028
849.328	21058
849.463	21074
849.598	20925
849.734	20979
849.869	20948
850.004	20853
850.14	20705
850.275	20697
850.41	20682
850.545	20705
850.68	20705
850.815	20731
850.95	20735
851.085	20956
851.22	20944
851.355	20785
851.49	20769
851.625	20792
851.76	20697
851.895	20640
852.03	20560
852.165	20720
852.299	20823
852.434	20830
852.569	20712
852.703	20746
852.838	20750
852.973	20826
853.107	20868
853.242	20750
853.376	20556
853.511	20404
853.645	20457
853.78	20792
853.914	20583
854.048	20533
854.183	20549
854.317	20636
854.451	20735
854.585	20575
854.72	20465
854.854	20644
854.988	20484
855.122	20522
855.256	20492
855.39	20511
855.524	20731
855.658	20651
855.792	20545
855.926	20617
856.06	20511
856.194	20693
856.327	20492
856.461	20575
856.595	20450
856.729	20415
856.862	20720
856.996	20575
857.13	20522
857.263	20667
857.397	20636
857.53	20575
857.664	20571
857.797	20636
857.931	20533
858.064	20682
858.197	20644
858.331	20526
858.464	20541
858.597	20476
858.731	20533
858.864	20412
858.997	20469
859.13	20667
859.263	20682
859.396	20765
859.529	20446
859.662	20473
859.795	20446
859.928	20575
860.061	20674
860.194	20796
860.327	20495
860.46	20609
860.592	20644
860.725	20651
860.858	20678
860.99	20423
861.123	20396
861.256	20457
861.388	20492
861.521	21233
861.653	20480
861.786	20366
861.918	20374
862.05	20499
862.183	20514
862.315	20594
862.447	20613
862.58	20366
862.712	20248
862.844	20233
862.976	20328
863.108	20248
863.24	20727
863.372	20145
863.504	20275
863.636	20290
863.768	20244
863.9	20180
864.032	20138
864.164	20168
864.296	20145
864.428	20294
864.559	20263
864.691	20214
864.823	20206
864.954	20240
865.086	20233
865.217	20092
865.349	19967
865.48	20058
865.612	20111
865.743	20278
865.875	20142
866.006	20100
866.137	20145
866.269	20149
866.4	20054
866.531	20214
866.662	19989
866.793	20046
866.924	20035
867.055	20035
867.186	20062
867.317	19959
867.448	20008
867.579	19890
867.71	19997
867.841	19967
867.972	20054
868.103	19959
868.233	20016
868.364	20077
868.495	20244
868.625	20237
868.756	20476
868.886	20282
869.017	20240
869.147	20446
869.278	20377
869.408	20328
869.539	20305
869.669	20343
869.799	20358
869.929	20419
870.06	20442
870.19	20522
870.32	20495
870.45	20598
870.58	20682
870.71	20781
870.84	20819
870.97	20746
871.1	20754
871.23	20838
871.36	20819
871.489	20845
871.619	20887
871.749	20956
871.879	20941
872.008	21032
872.138	20925
872.267	20960
872.397	20807
872.526	20853
872.656	20632
872.785	20651
872.915	20910
873.044	21116
873.173	20929
873.303	20956
873.432	20918
873.561	21108
873.69	20986
873.819	21013
873.948	20941
874.077	21005
874.206	20937
874.335	20994
874.464	21001
874.593	21112
874.722	21043
874.851	21176
874.979	21256
875.108	21165
875.237	21218
875.365	21138
875.494	21154
875.623	21325
875.751	21062
875.88	21161
876.008	21424
876.136	21344
876.265	21481
876.393	21785
876.521	21549
876.65	21595
876.778	21530
876.906	21606
877.034	21439
877.162	21519
877.29	21538
877.418	21564
877.546	21507
877.674	21538
877.802	21538
877.93	21473
878.058	21530
878.185	21526
878.313	21454
878.441	21481
878.568	21279
878.696	21416
878.824	21496
878.951	21576
879.079	21724
879.206	21861
879.333	21568
879.461	21485
879.588	21538
879.715	21622
879.842	21800
879.97	21572
880.097	21389
880.224	21306
880.351	21397
880.478	21416
880.605	21256
880.732	21389
880.859	21675
880.986	21332
881.112	21283
881.239	21195
881.366	21017
881.493	21051
881.619	20902
881.746	20971
881.872	20929
881.999	20857
882.125	20872
882.252	21009
882.378	20864
882.505	20979
882.631	20830
882.757	20743
882.883	20720
883.01	20602
883.136	20629
883.262	20530
883.388	20552
883.514	20693
883.64	20530
883.766	20511
883.892	20374
884.018	20511
884.143	20594
884.269	20629
884.395	20377
884.52	20282
884.646	20278
884.772	20237
884.897	20157
885.023	20358
885.148	20476
885.274	20427
885.399	20370
885.524	20248
885.65	20278
885.775	20362
885.9	20301
886.025	20305
886.15	20400
886.275	20168
886.4	20157
886.525	20332
886.65	20229
886.775	20233
886.9	20278
887.025	20552
887.149	20317
887.274	20115
887.399	20027
887.523	20081
887.648	19978
887.773	19963
887.897	20088
888.021	20092
888.146	19989
888.27	20161
888.395	20191
888.519	20096
888.643	20084
888.767	20126
888.891	19909
889.015	19795
889.139	19860
889.263	19753
889.387	19902
889.511	20122
889.635	19894
889.759	19750
889.883	19887
890.006	19849
890.13	19970
890.254	19841
890.377	19772
890.501	19518
890.624	19518
890.748	19647
890.871	19533
890.995	19445
891.118	19285
891.241	19487
891.364	19476
891.488	19518
891.611	19343
891.734	19419
891.857	19419
891.98	19533
892.103	19529
892.226	19362
892.349	19415
892.471	19126
892.594	19369
892.717	19343
892.839	19388
892.962	19247
893.085	19468
893.207	19403
893.33	19198
893.452	19217
893.575	19400
893.697	19225
893.819	19464
893.941	19514
894.064	19483
894.186	19198
894.308	19343
894.43	19259
894.552	19377
894.674	19316
894.796	19350
894.918	19365
895.04	19316
895.161	19510
895.283	19392
895.405	19388
895.526	19441
895.648	19301
895.769	19365
895.891	19312
896.012	19358
896.134	19491
896.255	19460
896.376	19362
896.498	19403
896.619	19499
896.74	19521
896.861	19422
896.982	19677
897.103	19791
897.224	19685
897.345	19582
897.466	19624
897.587	19628
897.708	19757
897.828	19571
897.949	19620
898.07	19540
898.19	19480
898.311	19712
898.431	19487
898.552	19548
898.672	19601
898.792	19567
898.913	19655
899.033	19460
899.153	19335
899.273	19247
899.393	19316
899.513	19381
899.633	19438
899.753	19407
899.873	19263
899.993	19297
900.113	19221
900.232	19304
900.352	19282
900.472	19232
900.591	19217
900.711	19316
900.83	19156
900.95	19244
901.069	19168
901.189	18970
901.308	18825
901.427	18833
901.546	18859
901.665	18764
901.784	18669
901.904	18677
902.023	18521
902.141	18327
902.26	18239
902.379	18285
902.498	18190
902.617	18213
902.735	18289
902.854	18308
902.973	18110
903.091	17954
903.21	17988
903.328	17901
903.446	17859
903.565	17649
903.683	17722
903.801	17665
903.919	17775
904.038	17623
904.156	17562
904.274	17623
904.392	17619
904.51	17452
904.627	17406
904.745	17429
904.863	17440
904.981	17261
905.098	17124
905.216	17181
905.334	17349
905.451	17178
905.569	17124
905.686	17166
905.803	17060
905.921	16953
906.038	17090
906.155	16987
906.272	16847
906.389	16847
906.506	16763
906.623	16752
906.74	16755
906.857	16554
906.974	16637
907.091	16786
907.208	16801
907.324	16668
907.441	16577
907.557	16481
907.674	16379
907.79	16310
907.907	16360
908.023	16382
908.139	16367
908.256	16341
908.372	16341
908.488	16268
908.604	16204
908.72	16051
908.836	16105
908.952	16059
909.068	16177
909.184	16219
909.3	16044
909.415	16101
909.531	16059
909.647	15930
909.762	15812
909.878	15842
909.993	15793
910.108	15797
910.224	15762
910.339	15831
910.454	15682
910.57	15644
910.685	15545
910.8	15907
910.915	15770
911.03	15652
911.145	15454
911.259	15504
911.374	15401
911.489	15382
911.604	15325
911.718	15237
911.833	15279
911.947	15100
912.062	14971
912.176	15119
912.291	15180
912.405	15116
912.519	15272
912.633	15321
912.748	15157
912.862	15138
912.976	14925
913.09	14823
913.204	14857
913.318	15020
913.431	15108
913.545	15066
913.659	15070
913.772	15005
913.886	14861
914	14735
914.113	14899
914.226	14944
914.34	14914
914.453	14727
914.566	14899
914.68	14651
914.793	14545
914.906	14503
915.019	14514
915.132	14305
915.245	14396
915.358	14571
915.47	14377
915.583	14377
915.696	14461
915.809	14594
915.921	14560
916.034	14400
916.146	14355
916.259	14210
916.371	14404
916.483	14434
916.595	14256
916.708	14275
916.82	14347
916.932	14263
917.044	14172
917.156	14313
917.268	14081
917.38	14115
917.491	14153
917.603	14206
917.715	14153
917.826	14206
917.938	14142
918.049	13906
918.161	13940
918.272	14214
918.384	14100
918.495	14035
918.606	13940
918.717	13837
918.828	14016
918.939	13925
919.05	13750
919.161	13727
919.272	13651
919.383	13742
919.494	13925
919.604	14035
919.715	13936
919.826	13757
919.936	13803
920.047	13928
920.157	13852
920.267	13955
920.378	13875
920.488	13742
920.598	14016
920.708	14084
920.818	13955
920.928	13936
921.038	14084
921.148	14077
921.258	13837
921.368	13681
921.477	13601
921.587	13613
921.697	13476
921.806	13578
921.916	13460
922.025	13255
922.134	13168
922.244	13202
922.353	13225
922.462	13061
922.571	13061
922.68	12863
922.789	12806
922.898	12795
923.007	12837
923.116	12897
923.224	12863
923.333	12806
923.442	12700
923.55	12715
923.659	12757
923.767	12867
923.876	12734
923.984	12711
924.092	12498
924.201	12585
924.309	12673
924.417	12612
924.525	12601
924.633	12589
924.741	13297
924.849	12311
924.956	12525
925.064	12334
925.172	12353
925.279	12346
925.387	12357
925.494	12247
925.602	12395
925.709	12395
925.816	12296
925.924	12228
926.031	12403
926.138	12258
926.245	12319
926.352	12209
926.459	12369
926.566	12376
926.673	12220
926.779	12209
926.886	12163
926.993	11950
927.099	11973
927.206	11885
927.312	11805
927.419	11942
927.525	11836
927.631	12019
927.737	11813
927.843	11729
927.95	11627
928.056	11691
928.162	11767
928.267	11779
928.373	12308
928.479	11794
928.585	11608
928.69	11688
928.796	11741
928.901	11642
929.007	11436
929.112	11615
929.218	11653
929.323	11501
929.428	11455
929.533	11638
929.638	11360
929.743	11497
929.848	11433
929.953	11448
930.058	11273
930.163	11090
930.267	11159
930.372	11261
930.477	11155
930.581	11364
930.685	11151
930.79	11064
930.894	11105
930.998	11025
931.103	11208
931.207	10801
931.311	10805
931.415	10649
931.519	10447
931.623	10390
