Data from test_V78500241_1345.txt Node
Date: Fri Mar 25 15:19:13 CST 2022
User: usil
Spectrometer: V785-0024
Trigger mode: 0
Integration Time (sec): 4.000000E-1
Scans to average: 1
Nonlinearity correction enabled: false
Boxcar width: 0
Storing dark spectrum: false
XAxis mode: Wavelengths
Number of Pixels in Spectrum: 1024
>>>>>Begin Spectral Data<<<<<
801.071	28348
801.214	28219
801.356	27895
801.499	27838
801.641	27705
801.783	27884
801.926	27804
802.068	27583
802.211	27797
802.353	27705
802.496	27443
802.638	27272
802.78	27424
802.923	27351
803.065	27363
803.208	27405
803.35	27374
803.492	27507
803.635	27671
803.777	27511
803.919	27496
804.061	27892
804.204	27827
804.346	27496
804.488	27488
804.63	27545
804.773	27500
804.915	27682
805.057	27739
805.199	27610
805.341	27720
805.483	27728
805.626	27736
805.768	27583
805.91	27759
806.052	27808
806.194	27747
806.336	27797
806.478	27770
806.62	27785
806.762	27838
806.904	28086
807.046	28272
807.188	28120
807.33	27918
807.472	28181
807.614	28192
807.756	28074
807.898	28185
808.04	27972
808.182	28059
808.324	28185
808.465	28070
808.607	28223
808.749	28462
808.891	28386
809.033	28565
809.174	28550
809.316	28352
809.458	28508
809.6	28485
809.741	28470
809.883	28649
810.025	28782
810.166	28752
810.308	28748
810.45	28626
810.591	28618
810.733	28512
810.875	28405
811.016	28322
811.158	28356
811.299	28538
811.441	28535
811.582	28603
811.724	28432
811.865	28455
812.007	28493
812.148	28497
812.29	28382
812.431	28557
812.573	28771
812.714	28801
812.855	29056
812.997	28984
813.138	29216
813.279	28949
813.421	29006
813.562	29052
813.703	28805
813.845	28634
813.986	28516
814.127	28143
814.268	28090
814.41	28135
814.551	28169
814.692	28029
814.833	28116
814.974	28112
815.115	28211
815.256	28051
815.397	28078
815.539	27949
815.68	27762
815.821	27884
815.962	27892
816.103	27926
816.244	27812
816.385	27739
816.526	27656
816.666	27488
816.807	27408
816.948	27496
817.089	27412
817.23	27427
817.371	27283
817.512	27500
817.653	27348
817.793	27374
817.934	27389
818.075	27469
818.216	27405
818.356	27325
818.497	27348
818.638	27112
818.778	27123
818.919	27233
819.06	27226
819.2	27264
819.341	27481
819.481	27507
819.622	27656
819.762	27766
819.903	27576
820.043	27561
820.184	27644
820.324	27526
820.465	27778
820.605	27454
820.746	27572
820.886	27344
821.026	27530
821.167	27500
821.307	27431
821.447	27458
821.588	27351
821.728	27340
821.868	27146
822.008	26902
822.149	26819
822.289	26906
822.429	26648
822.569	26495
822.709	26571
822.849	26408
822.99	26400
823.13	26450
823.27	26313
823.41	26298
823.55	26286
823.69	26145
823.83	26225
823.97	26119
824.11	25989
824.25	25986
824.389	26039
824.529	26100
824.669	26031
824.809	26088
824.949	26043
825.089	26221
825.228	26176
825.368	25871
825.508	26008
825.648	26008
825.787	26008
825.927	26100
826.067	25875
826.206	26050
826.346	25989
826.485	25906
826.625	25913
826.765	25921
826.904	26020
827.044	25742
827.183	25780
827.323	25567
827.462	25708
827.601	25685
827.741	25609
827.88	25674
828.02	25529
828.159	25719
828.298	25662
828.437	25594
828.577	25521
828.716	25639
828.855	25586
828.994	25388
829.134	25301
829.273	25445
829.412	25225
829.551	25259
829.69	25206
829.829	25350
829.968	25343
830.107	25312
830.246	25369
830.385	25377
830.524	25156
830.663	25217
830.802	25133
830.941	24935
831.08	24859
831.219	24916
831.357	24989
831.496	25202
831.635	24985
831.774	24897
831.913	24909
832.051	24574
832.19	24833
832.329	24741
832.467	24696
832.606	24681
832.744	24578
832.883	24608
833.022	24681
833.16	24513
833.299	24696
833.437	24639
833.576	24749
833.714	24681
833.852	24802
833.991	24684
834.129	24681
834.267	24798
834.406	24749
834.544	24665
834.682	24646
834.821	24669
834.959	24833
835.097	24570
835.235	24749
835.373	24764
835.511	24646
835.65	24502
835.788	24525
835.926	24384
836.064	24342
836.202	24361
836.34	24525
836.478	24707
836.615	24422
836.753	24467
836.891	24593
837.029	24380
837.167	24365
837.305	24422
837.443	24483
837.58	24391
837.718	24292
837.856	24346
837.993	24289
838.131	24330
838.269	24228
838.406	24338
838.544	24296
838.681	24038
838.819	23870
838.956	23748
839.094	23790
839.231	23863
839.369	23897
839.506	24155
839.643	24091
839.781	23847
839.918	23828
840.055	23821
840.193	23764
840.33	23710
840.467	23581
840.604	23718
840.742	23927
840.879	23558
841.016	23611
841.153	23551
841.29	23737
841.427	23790
841.564	23783
841.701	23657
841.838	23672
841.975	23486
842.112	23539
842.249	23577
842.385	23554
842.522	23676
842.659	23455
842.796	23551
842.933	23425
843.069	23455
843.206	23490
843.343	23509
843.479	23547
843.616	23543
843.752	23318
843.889	23280
844.025	23429
844.162	23284
844.298	23261
844.435	23368
844.571	23231
844.708	23345
844.844	23326
844.98	23448
845.117	23318
845.253	23155
845.389	22961
845.525	23258
845.661	23235
845.798	22991
845.934	22987
846.07	22919
846.206	23037
846.342	23018
846.478	22900
846.614	22809
846.75	22683
846.886	22630
847.022	22854
847.158	22740
847.294	22649
847.429	22797
847.565	22763
847.701	23056
847.837	22447
847.972	22382
848.108	22470
848.244	22588
848.379	22394
848.515	22211
848.65	22226
848.786	22329
848.921	22318
849.057	22451
849.192	22409
849.328	22356
849.463	22424
849.598	22291
849.734	22135
849.869	22185
850.004	22082
850.14	22063
850.275	22116
850.41	22032
850.545	21987
850.68	22010
850.815	22139
850.95	22131
851.085	22135
851.22	22139
851.355	22048
851.49	21991
851.625	21998
851.76	21994
851.895	21972
852.03	21991
852.165	22150
852.299	22147
852.434	22135
852.569	22173
852.703	22040
852.838	22116
852.973	22360
853.107	22147
853.242	22025
853.376	21903
853.511	21861
853.645	21827
853.78	22025
853.914	21922
854.048	21895
854.183	21789
854.317	21880
854.451	21968
854.585	21816
854.72	21842
854.854	21937
854.988	21804
855.122	21880
855.256	21732
855.39	21785
855.524	22086
855.658	21937
855.792	21873
855.926	21842
856.06	21835
856.194	22078
856.327	21873
856.461	21835
856.595	21884
856.729	21770
856.862	22010
856.996	21930
857.13	21831
857.263	22166
857.397	21964
857.53	21865
857.664	21964
857.797	21956
857.931	21994
858.064	21945
858.197	21895
858.331	21732
858.464	21842
858.597	21800
858.731	21869
858.864	21819
858.997	21819
859.13	21926
859.263	21831
859.396	21960
859.529	21899
859.662	21838
859.795	21850
859.928	21835
860.061	22021
860.194	22048
860.327	21899
860.46	21918
860.592	21983
860.725	22029
860.858	21972
860.99	21922
861.123	21846
861.256	21835
861.388	21899
861.521	22405
861.653	21690
861.786	21629
861.918	21701
862.05	21751
862.183	21804
862.315	21884
862.447	21865
862.58	21850
862.712	21622
862.844	21538
862.976	21507
863.108	21656
863.24	22013
863.372	21492
863.504	21469
863.636	21610
863.768	21545
863.9	21633
864.032	21488
864.164	21507
864.296	21599
864.428	21652
864.559	21610
864.691	21637
864.823	21739
864.954	21641
865.086	21572
865.217	21515
865.349	21397
865.48	21523
865.612	21496
865.743	21572
865.875	21553
866.006	21450
866.137	21629
866.269	21435
866.4	21428
866.531	21355
866.662	21237
866.793	21412
866.924	21405
867.055	21401
867.186	21401
867.317	21408
867.448	21264
867.579	21374
867.71	21233
867.841	21359
867.972	21511
868.103	21329
868.233	21367
868.364	21329
868.495	21405
868.625	21603
868.756	21755
868.886	21507
869.017	21671
869.147	21827
869.278	21743
869.408	21690
869.539	21583
869.669	21743
869.799	21671
869.929	21747
870.06	21694
870.19	21915
870.32	21876
870.45	21922
870.58	21994
870.71	22074
870.84	22021
870.97	21876
871.1	22010
871.23	22131
871.36	22310
871.489	22185
871.619	22265
871.749	22284
871.879	22268
872.008	22276
872.138	22162
872.267	22265
872.397	22143
872.526	22143
872.656	22010
872.785	22116
872.915	22204
873.044	22348
873.173	22234
873.303	22276
873.432	22333
873.561	22303
873.69	22246
873.819	22234
873.948	22344
874.077	22329
874.206	22246
874.335	22318
874.464	22352
874.593	22432
874.722	22329
874.851	22466
874.979	22512
875.108	22512
875.237	22303
875.365	22413
875.494	22531
875.623	22413
875.751	22382
875.88	22451
876.008	22584
876.136	22554
876.265	23071
876.393	22949
876.521	22946
876.65	22938
876.778	22805
876.906	22801
877.034	22797
877.162	22911
877.29	22831
877.418	22771
877.546	22736
877.674	22744
877.802	22630
877.93	22877
878.058	22694
878.185	22729
878.313	22835
878.441	22771
878.568	22622
878.696	22748
878.824	22831
878.951	22904
879.079	22942
879.206	23094
879.333	22930
879.461	22812
879.588	22858
879.715	22927
879.842	23079
879.97	22835
880.097	22702
880.224	22626
880.351	22725
880.478	22653
880.605	22459
880.732	22535
880.859	22923
880.986	22611
881.112	22565
881.239	22493
881.366	22371
881.493	22287
881.619	22166
881.746	22280
881.872	22128
881.999	22090
882.125	22230
882.252	22276
882.378	22188
882.505	22333
882.631	22006
882.757	21865
882.883	21884
883.01	21937
883.136	21831
883.262	21762
883.388	21751
883.514	21808
883.64	21911
883.766	21812
883.892	21770
884.018	21656
884.143	21842
884.269	21968
884.395	21526
884.52	21572
884.646	21644
884.772	21542
884.897	21618
885.023	21481
885.148	21618
885.274	21633
885.399	21663
885.524	21496
885.65	21477
885.775	21473
885.9	21367
886.025	21648
886.15	21576
886.275	21469
886.4	21485
886.525	21534
886.65	21420
886.775	21332
886.9	21583
887.025	21774
887.149	21526
887.274	21302
887.399	21363
887.523	21272
887.648	21173
887.773	21218
887.897	21218
888.021	21264
888.146	21207
888.27	21192
888.395	21287
888.519	21298
888.643	21256
888.767	21310
888.891	21146
889.015	21119
889.139	21093
889.263	21001
889.387	21108
889.511	21325
889.635	21108
889.759	21104
889.883	21001
890.006	21005
890.13	21070
890.254	21032
890.377	21043
890.501	20891
890.624	20769
890.748	20910
890.871	20754
890.995	20560
891.118	20621
891.241	20754
891.364	20556
891.488	20674
891.611	20716
891.734	20636
891.857	20640
891.98	20625
892.103	20720
892.226	20697
892.349	20598
892.471	20427
892.594	20663
892.717	20670
892.839	20499
892.962	20492
893.085	20556
893.207	20583
893.33	20431
893.452	20495
893.575	20579
893.697	20492
893.819	20663
893.941	20720
894.064	20667
894.186	20450
894.308	20492
894.43	20575
894.552	20705
894.674	20495
894.796	20320
894.918	20393
895.04	20583
895.161	20564
895.283	20564
895.405	20469
895.526	20613
895.648	20450
895.769	20655
895.891	20621
896.012	20484
896.134	20488
896.255	20602
896.376	20415
896.498	20549
896.619	20659
896.74	20499
896.861	20579
896.982	20758
897.103	20918
897.224	20792
897.345	20765
897.466	20602
897.587	20617
897.708	20724
897.828	20815
897.949	20682
898.07	20587
898.19	20617
898.311	20648
898.431	20697
898.552	20834
898.672	20746
898.792	20758
898.913	20758
899.033	20511
899.153	20598
899.273	20461
899.393	20438
899.513	20541
899.633	20393
899.753	20526
899.873	20320
899.993	20457
900.113	20450
900.232	20552
900.352	20332
900.472	20183
900.591	20301
900.711	20187
900.83	20081
900.95	20256
901.069	20233
901.189	20183
901.308	19894
901.427	19830
901.546	19826
901.665	19864
901.784	19795
901.904	19658
902.023	19480
902.141	19350
902.26	19278
902.379	19384
902.498	19369
902.617	19335
902.735	19312
902.854	19297
902.973	19320
903.091	19042
903.21	18989
903.328	18947
903.446	18947
903.565	18791
903.683	18753
903.801	18620
903.919	18798
904.038	18703
904.156	18616
904.274	18627
904.392	18479
904.51	18540
904.627	18532
904.745	18654
904.863	18589
904.981	18353
905.098	18205
905.216	18159
905.334	18342
905.451	18247
905.569	18315
905.686	18235
905.803	18053
905.921	18030
906.038	18060
906.155	17923
906.272	17973
906.389	17992
906.506	17737
906.623	17809
906.74	17741
906.857	17608
906.974	17741
907.091	17764
907.208	17897
907.324	17752
907.441	17657
907.557	17486
907.674	17471
907.79	17482
907.907	17391
908.023	17577
908.139	17516
908.256	17414
908.372	17284
908.488	17330
908.604	17303
908.72	17094
908.836	17258
908.952	17094
909.068	17155
909.184	17303
909.3	17261
909.415	17197
909.531	17128
909.647	16881
909.762	16915
909.878	16900
909.993	16869
910.108	16763
910.224	16748
910.339	16824
910.454	16820
910.57	16694
910.685	16542
910.8	16942
910.915	16782
911.03	16645
911.145	16561
911.259	16512
911.374	16485
911.489	16459
911.604	16284
911.718	16322
911.833	16181
911.947	16082
912.062	15983
912.176	16177
912.291	16112
912.405	16063
912.519	16333
912.633	16257
912.748	16230
912.862	16204
912.976	15972
913.09	15915
913.204	15953
913.318	16059
913.431	16101
913.545	16128
913.659	16021
913.772	15934
913.886	15918
914	15717
914.113	16036
914.226	15934
914.34	15850
914.453	15739
914.566	15884
914.68	15717
914.793	15641
914.906	15542
915.019	15584
915.132	15313
915.245	15359
915.358	15374
915.47	15408
915.583	15492
915.696	15504
915.809	15587
915.921	15538
916.034	15443
916.146	15367
916.259	15393
916.371	15462
916.483	15447
916.595	15287
916.708	15340
916.82	15256
916.932	15245
917.044	15310
917.156	15165
917.268	15108
917.38	15058
917.491	14967
917.603	15131
917.715	15161
917.826	15226
917.938	15119
918.049	14868
918.161	14975
918.272	15173
918.384	15077
918.495	14971
918.606	14883
918.717	14883
918.828	14887
918.939	14910
919.05	14845
919.161	14815
919.272	14724
919.383	14804
919.494	14853
919.604	14975
919.715	14815
919.826	14621
919.936	14735
920.047	14895
920.157	14819
920.267	14883
920.378	14800
920.488	14804
920.598	14956
920.708	15142
920.818	14956
920.928	14864
921.038	15089
921.148	14956
921.258	14826
921.368	14705
921.477	14549
921.587	14556
921.697	14374
921.806	14617
921.916	14442
922.025	14282
922.134	14237
922.244	14134
922.353	14199
922.462	14054
922.571	14039
922.68	13822
922.789	13913
922.898	13788
923.007	13750
923.116	13883
923.224	13913
923.333	13841
923.442	13643
923.55	13685
923.659	13658
923.767	13689
923.876	13563
923.984	13696
924.092	13537
924.201	13533
924.309	13601
924.417	13529
924.525	13358
924.633	13449
924.741	14480
924.849	13263
924.956	13396
925.064	13225
925.172	13175
925.279	13232
925.387	13270
925.494	13202
925.602	13324
925.709	13141
925.816	13133
925.924	13164
926.031	13133
926.138	13110
926.245	13160
926.352	13095
926.459	13187
926.566	13232
926.673	13114
926.779	13042
926.886	13061
926.993	12783
927.099	12859
927.206	12658
927.312	12677
927.419	12840
927.525	12753
927.631	12829
927.737	12711
927.843	12623
927.95	12483
928.056	12574
928.162	12601
928.267	12555
928.373	13160
928.479	12757
928.585	12350
928.69	12608
928.796	12544
928.901	12429
929.007	12327
929.112	12399
929.218	12494
929.323	12292
929.428	12273
929.533	12403
929.638	12285
929.743	12273
929.848	12315
929.953	12224
930.058	12155
930.163	12003
930.267	12049
930.372	12083
930.477	11958
930.581	12117
930.685	12007
930.79	11885
930.894	11973
930.998	11828
931.103	12034
931.207	11566
931.311	11611
931.415	11467
931.519	11231
931.623	11231
