Data from test_V78500241_239.txt Node
Date: Fri Mar 25 15:11:31 CST 2022
User: usil
Spectrometer: V785-0024
Trigger mode: 0
Integration Time (sec): 4.000000E-1
Scans to average: 1
Nonlinearity correction enabled: false
Boxcar width: 0
Storing dark spectrum: false
XAxis mode: Wavelengths
Number of Pixels in Spectrum: 1024
>>>>>Begin Spectral Data<<<<<
801.071	27960
801.214	28044
801.356	27698
801.499	27622
801.641	27572
801.783	27553
801.926	27507
802.068	27374
802.211	27435
802.353	27462
802.496	27332
802.638	27218
802.78	27150
802.923	27214
803.065	27020
803.208	27047
803.35	27176
803.492	27214
803.635	27283
803.777	27081
803.919	27447
804.061	27572
804.204	27237
804.346	27108
804.488	27165
804.63	27245
804.773	27230
804.915	27157
805.057	27252
805.199	27252
805.341	27203
805.483	27443
805.626	27260
805.768	27184
805.91	27291
806.052	27351
806.194	27325
806.336	27561
806.478	27427
806.62	27245
806.762	27367
806.904	27599
807.046	27873
807.188	27603
807.33	27629
807.472	27819
807.614	27671
807.756	27675
807.898	27606
808.04	27511
808.182	27443
808.324	27610
808.465	27599
808.607	27709
808.749	27876
808.891	28105
809.033	28074
809.174	27873
809.316	27941
809.458	27827
809.6	27804
809.741	28086
809.883	28067
810.025	28143
810.166	28090
810.308	28048
810.45	28124
810.591	27953
810.733	27964
810.875	27876
811.016	27812
811.158	27850
811.299	27964
811.441	28017
811.582	27895
811.724	27827
811.865	27873
812.007	27827
812.148	27861
812.29	27941
812.431	28044
812.573	28200
812.714	28325
812.855	28299
812.997	28409
813.138	28698
813.279	28527
813.421	28474
813.562	28356
813.703	28147
813.845	28097
813.986	27682
814.127	27534
814.268	27431
814.41	27416
814.551	27443
814.692	27538
814.833	27458
814.974	27450
815.115	27443
815.256	27287
815.397	27245
815.539	27424
815.68	27287
815.821	27214
815.962	27397
816.103	27169
816.244	27150
816.385	27039
816.526	27058
816.666	26739
816.807	26727
816.948	26838
817.089	26739
817.23	26781
817.371	26613
817.512	26727
817.653	26823
817.793	26678
817.934	26788
818.075	26693
818.216	26606
818.356	26708
818.497	26590
818.638	26301
818.778	26423
818.919	26404
819.06	26644
819.2	26571
819.341	26697
819.481	26598
819.622	26823
819.762	26929
819.903	26819
820.043	26880
820.184	26621
820.324	26667
820.465	26644
820.605	26743
820.746	26678
820.886	26655
821.026	26883
821.167	26708
821.307	26880
821.447	26476
821.588	26640
821.728	26503
821.868	26244
822.008	26081
822.149	26126
822.289	26134
822.429	25997
822.569	25662
822.709	25757
822.849	25499
822.99	25590
823.13	25453
823.27	25495
823.41	25464
823.55	25289
823.69	25327
823.83	25396
823.97	25396
824.11	25228
824.25	25118
824.389	25198
824.529	25324
824.669	25194
824.809	25289
824.949	25407
825.089	25247
825.228	25278
825.368	24932
825.508	25152
825.648	24909
825.787	25069
825.927	25129
826.067	25000
826.206	24962
826.346	25091
826.485	24935
826.625	25004
826.765	25221
826.904	25152
827.044	24817
827.183	24783
827.323	24692
827.462	24802
827.601	24753
827.741	24650
827.88	24844
828.02	24559
828.159	24604
828.298	24738
828.437	24738
828.577	24715
828.716	24840
828.855	24563
828.994	24502
829.134	24505
829.273	24369
829.412	24391
829.551	24361
829.69	24308
829.829	24460
829.968	24391
830.107	24464
830.246	24475
830.385	24319
830.524	24277
830.663	24254
830.802	24034
830.941	23977
831.08	24022
831.219	24049
831.357	24129
831.496	24140
831.635	23946
831.774	23878
831.913	23779
832.051	23878
832.19	23779
832.329	23676
832.467	23729
832.606	23611
832.744	23760
832.883	23577
833.022	23535
833.16	23585
833.299	23668
833.437	23718
833.576	23771
833.714	23661
833.852	23748
833.991	23775
834.129	23707
834.267	23771
834.406	23714
834.544	23657
834.682	23691
834.821	23581
834.959	23737
835.097	23680
835.235	23737
835.373	23596
835.511	23592
835.65	23440
835.788	23589
835.926	23379
836.064	23284
836.202	23379
836.34	23429
836.478	23748
836.615	23395
836.753	23539
836.891	23581
837.029	23406
837.167	23528
837.305	23501
837.443	23406
837.58	23273
837.718	23429
837.856	23353
837.993	23326
838.131	23303
838.269	23216
838.406	23220
838.544	23292
838.681	23033
838.819	22999
838.956	22698
839.094	22717
839.231	22957
839.369	22877
839.506	23155
839.643	22965
839.781	22733
839.918	22675
840.055	22889
840.193	22713
840.33	22793
840.467	22702
840.604	22877
840.742	22923
840.879	22569
841.016	22611
841.153	22561
841.29	22786
841.427	22660
841.564	22653
841.701	22687
841.838	22637
841.975	22580
842.112	22485
842.249	22508
842.385	22504
842.522	22733
842.659	22577
842.796	22466
842.933	22645
843.069	22451
843.206	22523
843.343	22440
843.479	22493
843.616	22428
843.752	22169
843.889	22188
844.025	22242
844.162	22207
844.298	22249
844.435	22166
844.571	22143
844.708	22154
844.844	22322
844.98	22333
845.117	22299
845.253	22150
845.389	22059
845.525	22101
845.661	21987
845.798	21884
845.934	22017
846.07	21926
846.206	21956
846.342	22067
846.478	21831
846.614	21739
846.75	21519
846.886	21622
847.022	21827
847.158	21629
847.294	21739
847.429	21648
847.565	21633
847.701	21899
847.837	21363
847.972	21378
848.108	21454
848.244	21424
848.379	21233
848.515	21226
848.65	21222
848.786	21252
848.921	21245
849.057	21477
849.192	21332
849.328	21321
849.463	21245
849.598	21119
849.734	21116
849.869	21028
850.004	20986
850.14	21100
850.275	20899
850.41	20933
850.545	20899
850.68	20853
850.815	21009
850.95	20891
851.085	21119
851.22	21119
851.355	21058
851.49	20971
851.625	20982
851.76	20838
851.895	20769
852.03	20762
852.165	20948
852.299	21017
852.434	21142
852.569	20933
852.703	20861
852.838	20998
852.973	21039
853.107	20952
853.242	21024
853.376	20731
853.511	20743
853.645	20689
853.78	20944
853.914	20830
854.048	20777
854.183	20758
854.317	20727
854.451	20929
854.585	20651
854.72	20800
854.854	20895
854.988	20644
855.122	20815
855.256	20648
855.39	20735
855.524	20819
855.658	20731
855.792	20777
855.926	20842
856.06	20682
856.194	20834
856.327	20796
856.461	20781
856.595	20678
856.729	20712
856.862	20838
856.996	20792
857.13	20864
857.263	20823
857.397	20788
857.53	20746
857.664	20762
857.797	20777
857.931	20967
858.064	20750
858.197	20826
858.331	20769
858.464	20788
858.597	20625
858.731	20655
858.864	20621
858.997	20750
859.13	20823
859.263	20781
859.396	20807
859.529	20632
859.662	20693
859.795	20640
859.928	20792
860.061	20845
860.194	20864
860.327	20773
860.46	20804
860.592	20853
860.725	20921
860.858	20838
860.99	20678
861.123	20583
861.256	20785
861.388	20758
861.521	21420
861.653	20663
861.786	20590
861.918	20655
862.05	20819
862.183	20777
862.315	20762
862.447	20830
862.58	20678
862.712	20499
862.844	20473
862.976	20571
863.108	20518
863.24	21039
863.372	20408
863.504	20549
863.636	20427
863.768	20473
863.9	20480
864.032	20400
864.164	20328
864.296	20575
864.428	20571
864.559	20533
864.691	20503
864.823	20480
864.954	20461
865.086	20427
865.217	20415
865.349	20423
865.48	20328
865.612	20427
865.743	20587
865.875	20408
866.006	20332
866.137	20263
866.269	20355
866.4	20286
866.531	20336
866.662	20298
866.793	20362
866.924	20301
867.055	20351
867.186	20221
867.317	20271
867.448	20286
867.579	20278
867.71	20278
867.841	20206
867.972	20328
868.103	20404
868.233	20298
868.364	20332
868.495	20282
868.625	20648
868.756	20613
868.886	20423
869.017	20522
869.147	20625
869.278	20777
869.408	20640
869.539	20568
869.669	20754
869.799	20587
869.929	20686
870.06	20678
870.19	20823
870.32	20880
870.45	20891
870.58	20952
870.71	20998
870.84	21066
870.97	20967
871.1	21009
871.23	21161
871.36	21207
871.489	21195
871.619	21096
871.749	21146
871.879	21020
872.008	21176
872.138	21157
872.267	21165
872.397	21108
872.526	20956
872.656	20994
872.785	21047
872.915	21176
873.044	21214
873.173	21150
873.303	21192
873.432	21249
873.561	21249
873.69	21077
873.819	21245
873.948	21226
874.077	21233
874.206	21180
874.335	21135
874.464	21405
874.593	21443
874.722	21332
874.851	21473
874.979	21504
875.108	21553
875.237	21325
875.365	21363
875.494	21321
875.623	21450
875.751	21348
875.88	21534
876.008	21469
876.136	21618
876.265	21907
876.393	21903
876.521	21812
876.65	21892
876.778	21907
876.906	21751
877.034	21698
877.162	21819
877.29	21698
877.418	21804
877.546	21797
877.674	21789
877.802	21800
877.93	21781
878.058	21713
878.185	21599
878.313	21705
878.441	21789
878.568	21622
878.696	21717
878.824	21728
878.951	21842
879.079	21937
879.206	22006
879.333	21915
879.461	21778
879.588	21865
879.715	21922
879.842	22055
879.97	21762
880.097	21591
880.224	21523
880.351	21686
880.478	21549
880.605	21416
880.732	21591
880.859	21804
880.986	21519
881.112	21629
881.239	21485
881.366	21405
881.493	21260
881.619	21176
881.746	21161
881.872	21233
881.999	21116
882.125	21146
882.252	21157
882.378	21214
882.505	21401
882.631	21074
882.757	20906
882.883	20986
883.01	20921
883.136	21017
883.262	20883
883.388	20750
883.514	20853
883.64	20861
883.766	20830
883.892	20686
884.018	20743
884.143	20941
884.269	20902
884.395	20545
884.52	20488
884.646	20621
884.772	20549
884.897	20434
885.023	20537
885.148	20560
885.274	20689
885.399	20682
885.524	20533
885.65	20625
885.775	20606
885.9	20454
886.025	20621
886.15	20579
886.275	20545
886.4	20347
886.525	20431
886.65	20450
886.775	20461
886.9	20575
887.025	20788
887.149	20511
887.274	20328
887.399	20343
887.523	20206
887.648	20282
887.773	20153
887.897	20282
888.021	20370
888.146	20172
888.27	20313
888.395	20355
888.519	20305
888.643	20294
888.767	20396
888.891	20130
889.015	20119
889.139	20088
889.263	20111
889.387	20180
889.511	20294
889.635	20134
889.759	20039
889.883	20092
890.006	20134
890.13	20206
890.254	19951
890.377	19921
890.501	19776
890.624	19734
890.748	19913
890.871	19879
890.995	19632
891.118	19552
891.241	19670
891.364	19613
891.488	19761
891.611	19620
891.734	19780
891.857	19772
891.98	19670
892.103	19609
892.226	19655
892.349	19655
892.471	19403
892.594	19518
892.717	19689
892.839	19510
892.962	19578
893.085	19689
893.207	19605
893.33	19430
893.452	19430
893.575	19635
893.697	19590
893.819	19704
893.941	19871
894.064	19700
894.186	19525
894.308	19468
894.43	19715
894.552	19715
894.674	19635
894.796	19468
894.918	19609
895.04	19460
895.161	19597
895.283	19556
895.405	19422
895.526	19525
895.648	19571
895.769	19559
895.891	19651
896.012	19594
896.134	19712
896.255	19605
896.376	19521
896.498	19670
896.619	19586
896.74	19647
896.861	19624
896.982	20005
897.103	20027
897.224	19917
897.345	19780
897.466	19852
897.587	19845
897.708	19932
897.828	19913
897.949	19662
898.07	19727
898.19	19757
898.311	19845
898.431	19700
898.552	19879
898.672	19902
898.792	19849
898.913	19925
899.033	19712
899.153	19586
899.273	19415
899.393	19635
899.513	19548
899.633	19590
899.753	19460
899.873	19445
899.993	19548
900.113	19586
900.232	19620
900.352	19392
900.472	19270
900.591	19335
900.711	19441
900.83	19415
900.95	19384
901.069	19460
901.189	19217
901.308	19069
901.427	19053
901.546	18848
901.665	19008
901.784	18928
901.904	18787
902.023	18661
902.141	18536
902.26	18407
902.379	18506
902.498	18517
902.617	18361
902.735	18502
902.854	18376
902.973	18308
903.091	18174
903.21	18064
903.328	18117
903.446	18030
903.565	17920
903.683	17958
903.801	17847
903.919	17836
904.038	17870
904.156	17653
904.274	17809
904.392	17680
904.51	17638
904.627	17646
904.745	17642
904.863	17790
904.981	17414
905.098	17315
905.216	17349
905.334	17379
905.451	17318
905.569	17376
905.686	17471
905.803	17372
905.921	17254
906.038	17288
906.155	17258
906.272	17041
906.389	17075
906.506	16885
906.623	16911
906.74	16885
906.857	16744
906.974	16820
907.091	17014
907.208	16980
907.324	16854
907.441	16801
907.557	16641
907.674	16668
907.79	16428
907.907	16656
908.023	16649
908.139	16618
908.256	16508
908.372	16523
908.488	16481
908.604	16421
908.72	16333
908.836	16306
908.952	16261
909.068	16284
909.184	16360
909.3	16318
909.415	16314
909.531	16253
909.647	16086
909.762	15953
909.878	15964
909.993	16086
910.108	15979
910.224	15953
910.339	16021
910.454	15945
910.57	15804
910.685	15846
910.8	16067
910.915	15960
911.03	15865
911.145	15576
911.259	15675
911.374	15595
911.489	15618
911.604	15454
911.718	15450
911.833	15294
911.947	15188
912.062	15131
912.176	15275
912.291	15237
912.405	15351
912.519	15435
912.633	15431
912.748	15416
912.862	15256
912.976	15188
913.09	15127
913.204	15157
913.318	15112
913.431	15214
913.545	15306
913.659	15275
913.772	15028
913.886	14990
914	14921
914.113	15036
914.226	15085
914.34	15070
914.453	14883
914.566	15005
914.68	14872
914.793	14842
914.906	14746
915.019	14640
915.132	14522
915.245	14556
915.358	14465
915.47	14632
915.583	14648
915.696	14579
915.809	14663
915.921	14678
916.034	14454
916.146	14606
916.259	14370
916.371	14678
916.483	14473
916.595	14450
916.708	14488
916.82	14511
916.932	14385
917.044	14374
917.156	14396
917.268	14396
917.38	14259
917.491	14195
917.603	14248
917.715	14294
917.826	14396
917.938	14290
918.049	14073
918.161	14191
918.272	14339
918.384	14343
918.495	14183
918.606	14103
918.717	14050
918.828	14088
918.939	14096
919.05	13970
919.161	14035
919.272	13856
919.383	13875
919.494	13989
919.604	14229
919.715	14073
919.826	13906
919.936	13989
920.047	14123
920.157	14027
920.267	14267
920.378	14054
920.488	13928
920.598	14187
920.708	14229
920.818	14138
920.928	14164
921.038	14237
921.148	14233
921.258	13951
921.368	13860
921.477	13723
921.587	13753
921.697	13651
921.806	13757
921.916	13647
922.025	13468
922.134	13403
922.244	13324
922.353	13354
922.462	13236
922.571	13126
922.68	13110
922.789	13008
922.898	13023
923.007	12973
923.116	13080
923.224	12977
923.333	12947
923.442	12935
923.55	12871
923.659	12894
923.767	12871
923.876	12787
923.984	12833
924.092	12722
924.201	12779
924.309	12757
924.417	12791
924.525	12654
924.633	12722
924.741	13487
924.849	12486
924.956	12654
925.064	12490
925.172	12437
925.279	12460
925.387	12540
925.494	12437
925.602	12620
925.709	12525
925.816	12418
925.924	12388
926.031	12540
926.138	12300
926.245	12475
926.352	12323
926.459	12532
926.566	12452
926.673	12410
926.779	12296
926.886	12182
926.993	12060
927.099	12019
927.206	11980
927.312	11977
927.419	12140
927.525	12015
927.631	12129
927.737	11901
927.843	11912
927.95	11851
928.056	11821
928.162	11980
928.267	11992
928.373	12456
928.479	12034
928.585	11703
928.69	11798
928.796	11897
928.901	11676
929.007	11611
929.112	11741
929.218	11665
929.323	11718
929.428	11657
929.533	11798
929.638	11493
929.743	11611
929.848	11600
929.953	11665
930.058	11490
930.163	11288
930.267	11265
930.372	11410
930.477	11391
930.581	11551
930.685	11467
930.79	11265
930.894	11265
930.998	11162
931.103	11296
931.207	10995
931.311	10923
931.415	10748
931.519	10634
931.623	10656
