Data from test_V78500241_2291.txt Node
Date: Fri Mar 25 15:25:48 CST 2022
User: usil
Spectrometer: V785-0024
Trigger mode: 0
Integration Time (sec): 4.000000E-1
Scans to average: 1
Nonlinearity correction enabled: false
Boxcar width: 0
Storing dark spectrum: false
XAxis mode: Wavelengths
Number of Pixels in Spectrum: 1024
>>>>>Begin Spectral Data<<<<<
801.071	27804
801.214	27728
801.356	27511
801.499	27351
801.641	27188
801.783	27226
801.926	27287
802.068	27256
802.211	27241
802.353	27180
802.496	27062
802.638	26925
802.78	27036
802.923	26720
803.065	26918
803.208	26979
803.35	26940
803.492	27188
803.635	27123
803.777	26998
803.919	27043
804.061	27222
804.204	27116
804.346	27051
804.488	27070
804.63	27024
804.773	26899
804.915	27077
805.057	27222
805.199	27085
805.341	27131
805.483	27401
805.626	27157
805.768	27077
805.91	27138
806.052	27207
806.194	27131
806.336	27275
806.478	27241
806.62	27119
806.762	27283
806.904	27603
807.046	27778
807.188	27739
807.33	27648
807.472	27614
807.614	27481
807.756	27686
807.898	27485
808.04	27519
808.182	27496
808.324	27500
808.465	27686
808.607	27759
808.749	28059
808.891	27892
809.033	28017
809.174	27922
809.316	27766
809.458	27918
809.6	27823
809.741	27964
809.883	28101
810.025	28166
810.166	28120
810.308	28162
810.45	28040
810.591	28112
810.733	27956
810.875	27869
811.016	27755
811.158	27656
811.299	27812
811.441	27994
811.582	27846
811.724	27766
811.865	27808
812.007	27869
812.148	27819
812.29	27983
812.431	28029
812.573	28120
812.714	28226
812.855	28226
812.997	28485
813.138	28546
813.279	28554
813.421	28440
813.562	28443
813.703	28284
813.845	28070
813.986	27972
814.127	27778
814.268	27553
814.41	27572
814.551	27519
814.692	27759
814.833	27507
814.974	27542
815.115	27553
815.256	27477
815.397	27401
815.539	27351
815.68	27447
815.821	27241
815.962	27359
816.103	27416
816.244	27256
816.385	27074
816.526	27081
816.666	26883
816.807	26796
816.948	26933
817.089	26849
817.23	26891
817.371	26899
817.512	26895
817.653	26811
817.793	26754
817.934	26765
818.075	26735
818.216	26960
818.356	26697
818.497	26712
818.638	26693
818.778	26545
818.919	26594
819.06	26758
819.2	26796
819.341	26826
819.481	26826
819.622	26937
819.762	27089
819.903	27020
820.043	26948
820.184	26868
820.324	26940
820.465	27104
820.605	26963
820.746	26902
820.886	26739
821.026	26807
821.167	26883
821.307	26845
821.447	26708
821.588	26682
821.728	26644
821.868	26374
822.008	26309
822.149	26374
822.289	26191
822.429	25913
822.569	25864
822.709	26069
822.849	25841
822.99	25742
823.13	25746
823.27	25742
823.41	25681
823.55	25438
823.69	25693
823.83	25689
823.97	25510
824.11	25460
824.25	25308
824.389	25362
824.529	25529
824.669	25438
824.809	25396
824.949	25518
825.089	25529
825.228	25415
825.368	25434
825.508	25297
825.648	25270
825.787	25244
825.927	25320
826.067	25343
826.206	25285
826.346	25304
826.485	25316
826.625	25289
826.765	25419
826.904	25365
827.044	25095
827.183	25027
827.323	25000
827.462	25080
827.601	25034
827.741	25050
827.88	24943
828.02	24802
828.159	25126
828.298	25069
828.437	25053
828.577	24909
828.716	25091
828.855	24882
828.994	24753
829.134	24696
829.273	24856
829.412	24646
829.551	24711
829.69	24589
829.829	24646
829.968	24966
830.107	24608
830.246	24684
830.385	24711
830.524	24658
830.663	24692
830.802	24521
830.941	24384
831.08	24209
831.219	24414
831.357	24437
831.496	24502
831.635	24327
831.774	24239
831.913	24121
832.051	24076
832.19	24155
832.329	24102
832.467	23946
832.606	24038
832.744	23984
832.883	23965
833.022	24060
833.16	23908
833.299	24034
833.437	23992
833.576	24064
833.714	24057
833.852	24125
833.991	24095
834.129	24144
834.267	24076
834.406	24087
834.544	24110
834.682	24068
834.821	23958
834.959	24304
835.097	23901
835.235	24041
835.373	23950
835.511	24022
835.65	23950
835.788	23813
835.926	23889
836.064	23794
836.202	23726
836.34	23916
836.478	23904
836.615	23813
836.753	23809
836.891	24034
837.029	23729
837.167	23809
837.305	23798
837.443	23718
837.58	23695
837.718	23707
837.856	23779
837.993	23703
838.131	23737
838.269	23638
838.406	23539
838.544	23497
838.681	23315
838.819	23448
838.956	23220
839.094	23246
839.231	23311
839.369	23349
839.506	23577
839.643	23353
839.781	23128
839.918	23124
840.055	23220
840.193	23113
840.33	23064
840.467	23136
840.604	23181
840.742	23360
840.879	22987
841.016	23018
841.153	22980
841.29	23102
841.427	23064
841.564	23204
841.701	23006
841.838	22934
841.975	22923
842.112	23067
842.249	22847
842.385	22927
842.522	22927
842.659	22946
842.796	22831
842.933	22976
843.069	22801
843.206	22778
843.343	22965
843.479	22885
843.616	22873
843.752	22580
843.889	22653
844.025	22839
844.162	22588
844.298	22824
844.435	22634
844.571	22599
844.708	22713
844.844	22664
844.98	22778
845.117	22721
845.253	22649
845.389	22489
845.525	22630
845.661	22519
845.798	22398
845.934	22382
846.07	22367
846.206	22291
846.342	22466
846.478	22405
846.614	22177
846.75	22120
846.886	22086
847.022	22124
847.158	22181
847.294	22093
847.429	22086
847.565	22040
847.701	22424
847.837	21895
847.972	21945
848.108	21972
848.244	21895
848.379	21614
848.515	21793
848.65	21751
848.786	21762
848.921	21686
849.057	21690
849.192	21800
849.328	21857
849.463	21534
849.598	21713
849.734	21644
849.869	21538
850.004	21481
850.14	21515
850.275	21545
850.41	21500
850.545	21397
850.68	21439
850.815	21420
850.95	21534
851.085	21663
851.22	21595
851.355	21443
851.49	21355
851.625	21447
851.76	21462
851.895	21420
852.03	21393
852.165	21435
852.299	21485
852.434	21606
852.569	21530
852.703	21412
852.838	21526
852.973	21534
853.107	21591
853.242	21412
853.376	21329
853.511	21154
853.645	21233
853.78	21351
853.914	21336
854.048	21176
854.183	21195
854.317	21367
854.451	21572
854.585	21370
854.72	21268
854.854	21279
854.988	21138
855.122	21279
855.256	21135
855.39	21351
855.524	21298
855.658	21310
855.792	21226
855.926	21317
856.06	21447
856.194	21291
856.327	21325
856.461	21237
856.595	21184
856.729	21264
856.862	21454
856.996	21313
857.13	21275
857.263	21386
857.397	21370
857.53	21195
857.664	21214
857.797	21321
857.931	21439
858.064	21218
858.197	21370
858.331	21321
858.464	21279
858.597	21298
858.731	21287
858.864	21195
858.997	21321
859.13	21317
859.263	21351
859.396	21252
859.529	21192
859.662	21340
859.795	21302
859.928	21317
860.061	21469
860.194	21507
860.327	21435
860.46	21370
860.592	21355
860.725	21431
860.858	21397
860.99	21351
861.123	21135
861.256	21108
861.388	21199
861.521	21922
861.653	21154
861.786	21123
861.918	21074
862.05	21096
862.183	21108
862.315	21291
862.447	21310
862.58	21047
862.712	21047
862.844	20956
862.976	20963
863.108	21024
863.24	21291
863.372	20963
863.504	21081
863.636	20994
863.768	21108
863.9	21123
864.032	20929
864.164	20956
864.296	20937
864.428	21001
864.559	21013
864.691	21081
864.823	21001
864.954	21184
865.086	20929
865.217	20925
865.349	20815
865.48	20914
865.612	20933
865.743	20994
865.875	21032
866.006	20933
866.137	20853
866.269	20758
866.4	20807
866.531	20830
866.662	20777
866.793	20807
866.924	20804
867.055	20948
867.186	20826
867.317	20838
867.448	20682
867.579	20735
867.71	20724
867.841	20598
867.972	20845
868.103	20857
868.233	20872
868.364	20826
868.495	20845
868.625	20944
868.756	21192
868.886	20853
869.017	21001
869.147	21123
869.278	21157
869.408	21055
869.539	21009
869.669	21081
869.799	21188
869.929	21093
870.06	21116
870.19	21351
870.32	21329
870.45	21443
870.58	21473
870.71	21530
870.84	21557
870.97	21317
871.1	21408
871.23	21507
871.36	21618
871.489	21473
871.619	21603
871.749	21648
871.879	21610
872.008	21797
872.138	21564
872.267	21656
872.397	21583
872.526	21511
872.656	21496
872.785	21526
872.915	21709
873.044	21797
873.173	21675
873.303	21717
873.432	21785
873.561	21827
873.69	21698
873.819	21728
873.948	21835
874.077	21759
874.206	21720
874.335	21660
874.464	21781
874.593	21956
874.722	21846
874.851	21949
874.979	21812
875.108	22017
875.237	21888
875.365	21808
875.494	21846
875.623	21941
875.751	21838
875.88	21953
876.008	21926
876.136	22131
876.265	22360
876.393	22333
876.521	22322
876.65	22371
876.778	22295
876.906	22223
877.034	22287
877.162	22356
877.29	22188
877.418	22242
877.546	22223
877.674	22272
877.802	22196
877.93	22211
878.058	22325
878.185	22177
878.313	22257
878.441	22276
878.568	22029
878.696	22188
878.824	22173
878.951	22314
879.079	22287
879.206	22569
879.333	22402
879.461	22272
879.588	22322
879.715	22379
879.842	22500
879.97	22284
880.097	22082
880.224	22044
880.351	22105
880.478	22135
880.605	21949
880.732	22017
880.859	22166
880.986	22139
881.112	22093
881.239	22010
881.366	21743
881.493	21751
881.619	21679
881.746	21698
881.872	21690
881.999	21580
882.125	21671
882.252	21663
882.378	21622
882.505	21682
882.631	21553
882.757	21351
882.883	21332
883.01	21272
883.136	21264
883.262	21154
883.388	21066
883.514	21287
883.64	21355
883.766	21214
883.892	21089
884.018	21043
884.143	21325
884.269	21359
884.395	21020
884.52	20918
884.646	21036
884.772	20918
884.897	20982
885.023	21074
885.148	20998
885.274	21135
885.399	21089
885.524	20990
885.65	21066
885.775	21001
885.9	20963
886.025	21081
886.15	21070
886.275	20845
886.4	20948
886.525	20952
886.65	20914
886.775	20902
886.9	21058
887.025	21195
887.149	20933
887.274	20701
887.399	20731
887.523	20720
887.648	20693
887.773	20727
887.897	20819
888.021	20807
888.146	20621
888.27	20853
888.395	20887
888.519	20750
888.643	20727
888.767	20804
888.891	20735
889.015	20552
889.139	20682
889.263	20541
889.387	20750
889.511	20739
889.635	20636
889.759	20514
889.883	20541
890.006	20522
890.13	20765
890.254	20571
890.377	20492
890.501	20366
890.624	20218
890.748	20328
890.871	20164
890.995	20058
891.118	20062
891.241	20157
891.364	20054
891.488	20221
891.611	20161
891.734	20043
891.857	20088
891.98	20115
892.103	20229
892.226	20164
892.349	20088
892.471	19852
892.594	19860
892.717	20092
892.839	19967
892.962	20084
893.085	20027
893.207	19947
893.33	19978
893.452	20001
893.575	20122
893.697	19997
893.819	20130
893.941	20164
894.064	20221
894.186	20001
894.308	19875
894.43	20153
894.552	20214
894.674	20069
894.796	19909
894.918	19890
895.04	19982
895.161	20001
895.283	19986
895.405	19849
895.526	20008
895.648	19982
895.769	20005
895.891	20046
896.012	19978
896.134	20046
896.255	20054
896.376	20008
896.498	19986
896.619	20012
896.74	20020
896.861	20062
896.982	20240
897.103	20560
897.224	20434
897.345	20248
897.466	20122
897.587	20180
897.708	20381
897.828	20301
897.949	20096
898.07	20122
898.19	20084
898.311	20286
898.431	20244
898.552	20339
898.672	20347
898.792	20320
898.913	20305
899.033	20218
899.153	20031
899.273	19974
899.393	19993
899.513	20069
899.633	19989
899.753	20020
899.873	19970
899.993	20001
900.113	19898
900.232	19894
900.352	20001
900.472	19879
900.591	19826
900.711	19826
900.83	19746
900.95	19951
901.069	19955
901.189	19624
901.308	19354
901.427	19419
901.546	19434
901.665	19384
901.784	19285
901.904	19312
902.023	19164
902.141	19015
902.26	19000
902.379	18932
902.498	18817
902.617	18776
902.735	18924
902.854	18787
902.973	18772
903.091	18551
903.21	18540
903.328	18635
903.446	18464
903.565	18384
903.683	18452
903.801	18201
903.919	18296
904.038	18327
904.156	18285
904.274	18228
904.392	18038
904.51	18034
904.627	18102
904.745	18171
904.863	18277
904.981	17920
905.098	17756
905.216	17824
905.334	17828
905.451	17874
905.569	17809
905.686	17779
905.803	17676
905.921	17558
906.038	17707
906.155	17570
906.272	17474
906.389	17535
906.506	17315
906.623	17212
906.74	17235
906.857	17231
906.974	17174
907.091	17414
907.208	17463
907.324	17474
907.441	17185
907.557	17064
907.674	17079
907.79	17086
907.907	16987
908.023	17025
908.139	17102
908.256	16953
908.372	16999
908.488	16904
908.604	16824
908.72	16805
908.836	16782
908.952	16740
909.068	16725
909.184	16740
909.3	16687
909.415	16805
909.531	16656
909.647	16447
909.762	16466
909.878	16421
909.993	16459
910.108	16455
910.224	16493
910.339	16432
910.454	16261
910.57	16287
910.685	16150
910.8	16409
910.915	16421
911.03	16295
911.145	16128
911.259	16002
911.374	16059
911.489	16078
911.604	15991
911.718	15816
911.833	15808
911.947	15713
912.062	15629
912.176	15781
912.291	15743
912.405	15736
912.519	15960
912.633	15937
912.748	15747
912.862	15789
912.976	15610
913.09	15496
913.204	15618
913.318	15633
913.431	15652
913.545	15785
913.659	15724
913.772	15614
913.886	15408
914	15412
914.113	15519
914.226	15580
914.34	15447
914.453	15272
914.566	15435
914.68	15344
914.793	15272
914.906	15089
915.019	15020
915.132	15013
915.245	15055
915.358	15093
915.47	15001
915.583	14967
915.696	15074
915.809	15150
915.921	15127
916.034	14853
916.146	14967
916.259	14895
916.371	14971
916.483	14921
916.595	14960
916.708	14804
916.82	14891
916.932	14861
917.044	14819
917.156	14872
917.268	14667
917.38	14648
917.491	14655
917.603	14712
917.715	14796
917.826	14659
917.938	14503
918.049	14461
918.161	14640
918.272	14739
918.384	14735
918.495	14556
918.606	14514
918.717	14404
918.828	14514
918.939	14495
919.05	14336
919.161	14564
919.272	14244
919.383	14339
919.494	14438
919.604	14625
919.715	14381
919.826	14290
919.936	14396
920.047	14431
920.157	14324
920.267	14507
920.378	14412
920.488	14381
920.598	14571
920.708	14678
920.818	14610
920.928	14484
921.038	14686
921.148	14674
921.258	14366
921.368	14237
921.477	14229
921.587	14161
921.697	14024
921.806	14088
921.916	14050
922.025	13837
922.134	13864
922.244	13731
922.353	13791
922.462	13677
922.571	13655
922.68	13411
922.789	13514
922.898	13499
923.007	13540
923.116	13449
923.224	13438
923.333	13426
923.442	13232
923.55	13270
923.659	13289
923.767	13350
923.876	13320
923.984	13270
924.092	13206
924.201	13175
924.309	13171
924.417	13164
924.525	13175
924.633	13069
924.741	13807
924.849	12890
924.956	12981
925.064	12844
925.172	12852
925.279	12837
925.387	12886
925.494	12886
925.602	12943
925.709	12996
925.816	12840
925.924	12787
926.031	13046
926.138	12825
926.245	12829
926.352	12669
926.459	12871
926.566	12863
926.673	12730
926.779	12623
926.886	12593
926.993	12479
927.099	12498
927.206	12361
927.312	12369
927.419	12369
927.525	12410
927.631	12498
927.737	12277
927.843	12247
927.95	12213
928.056	12224
928.162	12292
928.267	12308
928.373	12779
928.479	12292
928.585	12087
928.69	12121
928.796	12300
928.901	12110
929.007	11965
929.112	12102
929.218	12026
929.323	11969
929.428	11969
929.533	12038
929.638	11904
929.743	11874
929.848	11939
929.953	11889
930.058	11741
930.163	11653
930.267	11737
930.372	11817
930.477	11649
930.581	11912
930.685	11817
930.79	11551
930.894	11581
930.998	11490
931.103	11649
931.207	11197
931.311	11128
931.415	11094
931.519	10999
931.623	11006
