Data from test_V78500241_3105.txt Node
Date: Fri Mar 25 15:31:28 CST 2022
User: usil
Spectrometer: V785-0024
Trigger mode: 0
Integration Time (sec): 4.000000E-1
Scans to average: 1
Nonlinearity correction enabled: false
Boxcar width: 0
Storing dark spectrum: false
XAxis mode: Wavelengths
Number of Pixels in Spectrum: 1024
>>>>>Begin Spectral Data<<<<<
801.071	26674
801.214	26663
801.356	26446
801.499	26343
801.641	26282
801.783	26142
801.926	26210
802.068	26252
802.211	26199
802.353	26195
802.496	25875
802.638	25932
802.78	25734
802.923	25746
803.065	25799
803.208	25738
803.35	25841
803.492	25974
803.635	26016
803.777	25883
803.919	26073
804.061	26267
804.204	26077
804.346	26012
804.488	25974
804.63	25837
804.773	26043
804.915	25917
805.057	26138
805.199	25955
805.341	25974
805.483	25963
805.626	26122
805.768	25947
805.91	25928
806.052	26149
806.194	25932
806.336	26168
806.478	26027
806.62	26088
806.762	26088
806.904	26351
807.046	26640
807.188	26473
807.33	26495
807.472	26587
807.614	26370
807.756	26336
807.898	26389
808.04	26240
808.182	26286
808.324	26343
808.465	26358
808.607	26545
808.749	26667
808.891	26636
809.033	26796
809.174	26697
809.316	26545
809.458	26739
809.6	26625
809.741	26720
809.883	26746
810.025	26819
810.166	26883
810.308	26868
810.45	26861
810.591	26785
810.733	26488
810.875	26530
811.016	26476
811.158	26503
811.299	26655
811.441	26754
811.582	26674
811.724	26590
811.865	26465
812.007	26503
812.148	26499
812.29	26606
812.431	26678
812.573	26940
812.714	26845
812.855	26990
812.997	27180
813.138	27416
813.279	27241
813.421	27062
813.562	27100
813.703	26830
813.845	26743
813.986	26286
814.127	26157
814.268	26290
814.41	26191
814.551	26172
814.692	26347
814.833	26191
814.974	26153
815.115	26084
815.256	26122
815.397	26126
815.539	26122
815.68	26100
815.821	25833
815.962	25944
816.103	26069
816.244	25822
816.385	25799
816.526	25719
816.666	25605
816.807	25533
816.948	25548
817.089	25643
817.23	25578
817.371	25358
817.512	25472
817.653	25403
817.793	25472
817.934	25491
818.075	25441
818.216	25453
818.356	25388
818.497	25373
818.638	25213
818.778	25141
818.919	25244
819.06	25301
819.2	25320
819.341	25597
819.481	25422
819.622	25628
819.762	25780
819.903	25784
820.043	25628
820.184	25616
820.324	25578
820.465	25594
820.605	25635
820.746	25518
820.886	25331
821.026	25479
821.167	25438
821.307	25533
821.447	25441
821.588	25403
821.728	25297
821.868	25012
822.008	24909
822.149	24848
822.289	24951
822.429	24764
822.569	24475
822.709	24631
822.849	24315
822.99	24505
823.13	24433
823.27	24346
823.41	24186
823.55	24220
823.69	24391
823.83	24213
823.97	24205
824.11	24087
824.25	23988
824.389	23832
824.529	24087
824.669	23973
824.809	24190
824.949	24018
825.089	24079
825.228	24072
825.368	23855
825.508	23775
825.648	23973
825.787	23912
825.927	23984
826.067	23954
826.206	23832
826.346	23863
826.485	23882
826.625	23950
826.765	23927
826.904	23950
827.044	23592
827.183	23680
827.323	23573
827.462	23707
827.601	23707
827.741	23581
827.88	23600
828.02	23486
828.159	23562
828.298	23539
828.437	23638
828.577	23570
828.716	23680
828.855	23436
828.994	23212
829.134	23261
829.273	23284
829.412	23208
829.551	23280
829.69	23254
829.829	23433
829.968	23410
830.107	23299
830.246	23318
830.385	23341
830.524	23212
830.663	23140
830.802	23094
830.941	22892
831.08	22847
831.219	23124
831.357	23010
831.496	23121
831.635	22843
831.774	22801
831.913	22809
832.051	22801
832.19	22759
832.329	22740
832.467	22546
832.606	22493
832.744	22603
832.883	22535
833.022	22523
833.16	22611
833.299	22569
833.437	22634
833.576	22706
833.714	22611
833.852	22679
833.991	22698
834.129	22649
834.267	22691
834.406	22736
834.544	22679
834.682	22653
834.821	22721
834.959	22793
835.097	22607
835.235	22786
835.373	22687
835.511	22683
835.65	22363
835.788	22512
835.926	22382
836.064	22462
836.202	22333
836.34	22535
836.478	22565
836.615	22455
836.753	22519
836.891	22588
837.029	22421
837.167	22325
837.305	22462
837.443	22398
837.58	22196
837.718	22443
837.856	22443
837.993	22363
838.131	22379
838.269	22272
838.406	22207
838.544	22162
838.681	22059
838.819	22090
838.956	21804
839.094	21709
839.231	21922
839.369	22044
839.506	22219
839.643	22128
839.781	21804
839.918	21732
840.055	21873
840.193	21903
840.33	21865
840.467	21694
840.604	21876
840.742	21956
840.879	21781
841.016	21671
841.153	21728
841.29	21880
841.427	21781
841.564	21724
841.701	21785
841.838	21755
841.975	21694
842.112	21568
842.249	21633
842.385	21603
842.522	21823
842.659	21728
842.796	21454
842.933	21564
843.069	21488
843.206	21447
843.343	21682
843.479	21504
843.616	21477
843.752	21397
843.889	21412
844.025	21542
844.162	21279
844.298	21359
844.435	21260
844.571	21306
844.708	21370
844.844	21526
844.98	21492
845.117	21382
845.253	21081
845.389	21192
845.525	21233
845.661	21233
845.798	21039
845.934	21081
846.07	20944
846.206	21100
846.342	21180
846.478	21051
846.614	20864
846.75	20769
846.886	20785
847.022	20853
847.158	20845
847.294	20701
847.429	20796
847.565	20811
847.701	21005
847.837	20564
847.972	20507
848.108	20697
848.244	20590
848.379	20484
848.515	20290
848.65	20385
848.786	20305
848.921	20355
849.057	20503
849.192	20419
849.328	20434
849.463	20358
849.598	20320
849.734	20225
849.869	20358
850.004	20164
850.14	20183
850.275	20172
850.41	20145
850.545	20077
850.68	20119
850.815	20081
850.95	20168
851.085	20305
851.22	20305
851.355	20164
851.49	20122
851.625	20107
851.76	20103
851.895	20058
852.03	20206
852.165	20153
852.299	20142
852.434	20138
852.569	20153
852.703	20107
852.838	20237
852.973	20267
853.107	20301
853.242	20035
853.376	20062
853.511	19925
853.645	19864
853.78	20126
853.914	19932
854.048	20016
854.183	19925
854.317	20096
854.451	20229
854.585	20126
854.72	20012
854.854	19963
854.988	20035
855.122	19989
855.256	19894
855.39	20092
855.524	20054
855.658	20062
855.792	19967
855.926	20065
856.06	20214
856.194	20065
856.327	19921
856.461	19951
856.595	19989
856.729	19978
856.862	20176
856.996	20073
857.13	20016
857.263	20153
857.397	20062
857.53	20073
857.664	20024
857.797	20027
857.931	20237
858.064	19997
858.197	20012
858.331	20054
858.464	19894
858.597	19967
858.731	19955
858.864	20031
858.997	19921
859.13	20024
859.263	20138
859.396	20187
859.529	19970
859.662	20005
859.795	19944
859.928	20195
860.061	20199
860.194	20183
860.327	20054
860.46	20039
860.592	20126
860.725	20237
860.858	20210
860.99	19986
861.123	19906
861.256	19902
861.388	20081
861.521	20579
861.653	19864
861.786	19849
861.918	19784
862.05	19917
862.183	19883
862.315	19974
862.447	19913
862.58	19963
862.712	19761
862.844	19795
862.976	19784
863.108	19814
863.24	20054
863.372	19685
863.504	19776
863.636	19772
863.768	19837
863.9	19791
864.032	19670
864.164	19590
864.296	19750
864.428	19753
864.559	19731
864.691	19738
864.823	19700
864.954	19635
865.086	19700
865.217	19616
865.349	19552
865.48	19575
865.612	19529
865.743	19708
865.875	19727
866.006	19575
866.137	19655
866.269	19696
866.4	19643
866.531	19712
866.662	19548
866.793	19643
866.924	19674
867.055	19613
867.186	19582
867.317	19514
867.448	19537
867.579	19518
867.71	19495
867.841	19533
867.972	19651
868.103	19441
868.233	19613
868.364	19567
868.495	19544
868.625	19765
868.756	19978
868.886	19715
869.017	19852
869.147	19951
869.278	19963
869.408	19826
869.539	19982
869.669	19944
869.799	19879
869.929	20020
870.06	19826
870.19	20176
870.32	20054
870.45	20252
870.58	20039
870.71	20400
870.84	20301
870.97	20180
871.1	20244
871.23	20549
871.36	20446
871.489	20275
871.619	20381
871.749	20480
871.879	20492
872.008	20602
872.138	20488
872.267	20473
872.397	20256
872.526	20248
872.656	20256
872.785	20248
872.915	20454
873.044	20511
873.173	20454
873.303	20545
873.432	20514
873.561	20575
873.69	20438
873.819	20530
873.948	20537
874.077	20514
874.206	20343
874.335	20499
874.464	20473
874.593	20815
874.722	20617
874.851	20708
874.979	20674
875.108	20716
875.237	20708
875.365	20701
875.494	20697
875.623	20762
875.751	20579
875.88	20686
876.008	20956
876.136	20861
876.265	21032
876.393	21154
876.521	21165
876.65	21180
876.778	21119
876.906	21009
877.034	21112
877.162	21036
877.29	21108
877.418	21055
877.546	21108
877.674	21154
877.802	21108
877.93	21093
878.058	21024
878.185	20952
878.313	21047
878.441	20948
878.568	20963
878.696	21055
878.824	21161
878.951	21169
879.079	21195
879.206	21317
879.333	21310
879.461	21070
879.588	21146
879.715	21252
879.842	21401
879.97	21173
880.097	20902
880.224	20929
880.351	21017
880.478	20914
880.605	20891
880.732	20880
880.859	21173
880.986	20864
881.112	20952
881.239	20777
881.366	20571
881.493	20590
881.619	20568
881.746	20594
881.872	20473
881.999	20556
882.125	20457
882.252	20473
882.378	20434
882.505	20693
882.631	20328
882.757	20282
882.883	20298
883.01	20298
883.136	20130
883.262	20107
883.388	20062
883.514	20225
883.64	20183
883.766	20100
883.892	19989
884.018	19921
884.143	20069
884.269	20324
884.395	19852
884.52	19894
884.646	19890
884.772	19772
884.897	19852
885.023	19757
885.148	19955
885.274	19982
885.399	19986
885.524	19856
885.65	19887
885.775	19860
885.9	19780
886.025	19936
886.15	19871
886.275	19746
886.4	19658
886.525	19864
886.65	19715
886.775	19807
886.9	19963
887.025	20145
887.149	19719
887.274	19685
887.399	19643
887.523	19556
887.648	19601
887.773	19468
887.897	19704
888.021	19540
888.146	19674
888.27	19887
888.395	19822
888.519	19708
888.643	19639
888.767	19674
888.891	19559
889.015	19483
889.139	19483
889.263	19403
889.387	19430
889.511	19643
889.635	19613
889.759	19381
889.883	19529
890.006	19476
890.13	19499
890.254	19377
890.377	19449
890.501	19156
890.624	19171
890.748	19209
890.871	19103
890.995	18993
891.118	19000
891.241	19076
891.364	18947
891.488	19103
891.611	19076
891.734	19069
891.857	18993
891.98	19050
892.103	19027
892.226	19072
892.349	18985
892.471	18897
892.594	18920
892.717	19027
892.839	18954
892.962	18947
893.085	19000
893.207	18973
893.33	18802
893.452	18875
893.575	19053
893.697	18951
893.819	19190
893.941	19179
894.064	19160
894.186	18939
894.308	18985
894.43	18951
894.552	19057
894.674	19027
894.796	18810
894.918	18928
895.04	18890
895.161	18951
895.283	18924
895.405	18894
895.526	18966
895.648	19061
895.769	18890
895.891	19080
896.012	19042
896.134	18996
896.255	19069
896.376	18909
896.498	18954
896.619	19015
896.74	19038
896.861	18924
896.982	19343
897.103	19335
897.224	19289
897.345	19213
897.466	19137
897.587	19247
897.708	19365
897.828	19274
897.949	19244
898.07	19053
898.19	19202
898.311	19358
898.431	19206
898.552	19259
898.672	19266
898.792	19358
898.913	19293
899.033	19164
899.153	19031
899.273	18901
899.393	19000
899.513	18920
899.633	19084
899.753	18993
899.873	19027
899.993	19023
900.113	19046
900.232	19027
900.352	18996
900.472	18867
900.591	18821
900.711	18795
900.83	18802
900.95	18970
901.069	18867
901.189	18601
901.308	18452
901.427	18414
901.546	18391
901.665	18494
901.784	18452
901.904	18232
902.023	18228
902.141	18057
902.26	17912
902.379	18030
902.498	17885
902.617	17904
902.735	17897
902.854	17870
902.973	17851
903.091	17608
903.21	17562
903.328	17608
903.446	17551
903.565	17436
903.683	17436
903.801	17261
903.919	17368
904.038	17360
904.156	17151
904.274	17254
904.392	17254
904.51	17117
904.627	17193
904.745	17307
904.863	17212
904.981	16972
905.098	16946
905.216	16881
905.334	16999
905.451	16850
905.569	16869
905.686	16889
905.803	16904
905.921	16653
906.038	16653
906.155	16679
906.272	16607
906.389	16523
906.506	16424
906.623	16390
906.74	16474
906.857	16318
906.974	16295
907.091	16489
907.208	16569
907.324	16405
907.441	16287
907.557	16249
907.674	16154
907.79	16131
907.907	16185
908.023	16166
908.139	16185
908.256	16162
908.372	16025
908.488	16029
908.604	15907
908.72	15937
908.836	15865
908.952	15789
909.068	15850
909.184	15987
909.3	15797
909.415	15888
909.531	15888
909.647	15694
909.762	15526
909.878	15523
909.993	15542
910.108	15595
910.224	15538
910.339	15633
910.454	15466
910.57	15408
910.685	15389
910.8	15682
910.915	15561
911.03	15405
911.145	15195
911.259	15195
911.374	15199
911.489	15036
911.604	15024
911.718	14906
911.833	14918
911.947	14899
912.062	14944
912.176	14921
912.291	14895
912.405	14998
912.519	15218
912.633	15207
912.748	15039
912.862	14910
912.976	14743
913.09	14636
913.204	14708
913.318	14804
913.431	14899
913.545	14811
913.659	14880
913.772	14785
913.886	14495
914	14625
914.113	14678
914.226	14686
914.34	14697
914.453	14530
914.566	14674
914.68	14476
914.793	14518
914.906	14282
915.019	14290
915.132	14130
915.245	14221
915.358	14214
915.47	14172
915.583	14225
915.696	14187
915.809	14317
915.921	14290
916.034	14199
916.146	14119
916.259	14172
916.371	14199
916.483	14168
916.595	14020
916.708	14115
916.82	14107
916.932	14027
917.044	13970
917.156	13932
917.268	14054
917.38	13917
917.491	13921
917.603	13978
917.715	13963
917.826	14062
917.938	13772
918.049	13731
918.161	13868
918.272	14001
918.384	13993
918.495	13906
918.606	13761
918.717	13696
918.828	13723
918.939	13715
919.05	13712
919.161	13658
919.272	13483
919.383	13624
919.494	13719
919.604	13913
919.715	13704
919.826	13556
919.936	13666
920.047	13753
920.157	13742
920.267	13837
920.378	13708
920.488	13632
920.598	13811
920.708	14012
920.818	13875
920.928	13776
921.038	13936
921.148	13936
921.258	13563
921.368	13601
921.477	13358
921.587	13400
921.697	13396
921.806	13400
921.916	13327
922.025	13107
922.134	13129
922.244	13091
922.353	13080
922.462	12977
922.571	12928
922.68	12837
922.789	12703
922.898	12745
923.007	12722
923.116	12798
923.224	12779
923.333	12707
923.442	12604
923.55	12631
923.659	12570
923.767	12544
923.876	12479
923.984	12582
924.092	12407
924.201	12536
924.309	12563
924.417	12502
924.525	12388
924.633	12460
924.741	13377
924.849	12186
924.956	12437
925.064	12175
925.172	12155
925.279	12216
925.387	12152
925.494	12304
925.602	12304
925.709	12270
925.816	12186
925.924	12152
926.031	12186
926.138	12136
926.245	12159
926.352	12041
926.459	12190
926.566	12258
926.673	12159
926.779	12015
926.886	11889
926.993	11798
927.099	11786
927.206	11737
927.312	11688
927.419	11927
927.525	11760
927.631	11836
927.737	11657
927.843	11608
927.95	11505
928.056	11562
928.162	11680
928.267	11566
928.373	12273
928.479	11699
928.585	11478
928.69	11577
928.796	11596
928.901	11471
929.007	11372
929.112	11421
929.218	11433
929.323	11364
929.428	11326
929.533	11471
929.638	11292
929.743	11280
929.848	11360
929.953	11364
930.058	11227
930.163	11098
930.267	11079
930.372	11178
930.477	11022
930.581	11223
930.685	11113
930.79	10984
930.894	11029
930.998	10877
931.103	11124
931.207	10714
931.311	10641
931.415	10500
931.519	10325
931.623	10390
