Data from test_V78500241_3048.txt Node
Date: Fri Mar 25 15:31:05 CST 2022
User: usil
Spectrometer: V785-0024
Trigger mode: 0
Integration Time (sec): 4.000000E-1
Scans to average: 1
Nonlinearity correction enabled: false
Boxcar width: 0
Storing dark spectrum: false
XAxis mode: Wavelengths
Number of Pixels in Spectrum: 1024
>>>>>Begin Spectral Data<<<<<
801.071	27249
801.214	27154
801.356	27013
801.499	26895
801.641	26971
801.783	26705
801.926	26807
802.068	26883
802.211	26564
802.353	26602
802.496	26511
802.638	26431
802.78	26442
802.923	26408
803.065	26404
803.208	26176
803.35	26556
803.492	26590
803.635	26537
803.777	26556
803.919	26533
804.061	26834
804.204	26689
804.346	26590
804.488	26480
804.63	26636
804.773	26552
804.915	26663
805.057	26598
805.199	26571
805.341	26594
805.483	26648
805.626	26556
805.768	26663
805.91	26674
806.052	26762
806.194	26564
806.336	26708
806.478	26564
806.62	26693
806.762	26571
806.904	26914
807.046	27093
807.188	27199
807.33	27173
807.472	27032
807.614	27074
807.756	27039
807.898	26910
808.04	26883
808.182	26826
808.324	26830
808.465	26971
808.607	27058
808.749	27222
808.891	27321
809.033	27462
809.174	27378
809.316	27287
809.458	27275
809.6	27321
809.741	27283
809.883	27447
810.025	27709
810.166	27660
810.308	27561
810.45	27469
810.591	27435
810.733	27325
810.875	27340
811.016	27089
811.158	27260
811.299	27507
811.441	27477
811.582	27336
811.724	27340
811.865	27199
812.007	27199
812.148	27173
812.29	27283
812.431	27382
812.573	27618
812.714	27603
812.855	27759
812.997	27743
813.138	27953
813.279	27895
813.421	27701
813.562	27652
813.703	27542
813.845	27450
813.986	27165
814.127	27032
814.268	27047
814.41	26967
814.551	26929
814.692	26918
814.833	26845
814.974	26891
815.115	26937
815.256	26811
815.397	26902
815.539	26891
815.68	26686
815.821	26663
815.962	26625
816.103	26648
816.244	26488
816.385	26465
816.526	26484
816.666	26237
816.807	26130
816.948	26233
817.089	26320
817.23	26332
817.371	26096
817.512	26134
817.653	26229
817.793	25989
817.934	26244
818.075	26187
818.216	26149
818.356	26164
818.497	26122
818.638	25852
818.778	25940
818.919	25966
819.06	26012
819.2	26020
819.341	26103
819.481	26138
819.622	26355
819.762	26476
819.903	26507
820.043	26362
820.184	26259
820.324	26408
820.465	26370
820.605	26301
820.746	26275
820.886	26176
821.026	26233
821.167	26145
821.307	26362
821.447	26107
821.588	26084
821.728	26001
821.868	25883
822.008	25708
822.149	25624
822.289	25559
822.429	25422
822.569	25297
822.709	25202
822.849	25133
822.99	25057
823.13	25080
823.27	25141
823.41	24996
823.55	24947
823.69	24973
823.83	24863
823.97	24962
824.11	24810
824.25	24791
824.389	24707
824.529	24806
824.669	24833
824.809	24768
824.949	24859
825.089	24875
825.228	24833
825.368	24722
825.508	24597
825.648	24593
825.787	24703
825.927	24787
826.067	24654
826.206	24661
826.346	24669
826.485	24703
826.625	24635
826.765	24703
826.904	24650
827.044	24483
827.183	24471
827.323	24251
827.462	24494
827.601	24357
827.741	24369
827.88	24391
828.02	24159
828.159	24357
828.298	24270
828.437	24266
828.577	24289
828.716	24350
828.855	24342
828.994	24030
829.134	24057
829.273	24152
829.412	24057
829.551	23946
829.69	24053
829.829	24057
829.968	24045
830.107	24178
830.246	23950
830.385	23916
830.524	24079
830.663	23942
830.802	23889
830.941	23722
831.08	23653
831.219	23805
831.357	23729
831.496	23863
831.635	23661
831.774	23611
831.913	23570
832.051	23490
832.19	23551
832.329	23486
832.467	23383
832.606	23254
832.744	23280
832.883	23349
833.022	23349
833.16	23497
833.299	23452
833.437	23303
833.576	23467
833.714	23318
833.852	23417
833.991	23353
834.129	23562
834.267	23490
834.406	23509
834.544	23505
834.682	23467
834.821	23440
834.959	23490
835.097	23307
835.235	23543
835.373	23330
835.511	23383
835.65	23143
835.788	23223
835.926	23220
836.064	23113
836.202	23094
836.34	23223
836.478	23280
836.615	23235
836.753	23208
836.891	23379
837.029	23220
837.167	23109
837.305	23223
837.443	23216
837.58	23193
837.718	23090
837.856	23159
837.993	23033
838.131	23124
838.269	23105
838.406	23018
838.544	22927
838.681	22744
838.819	22801
838.956	22565
839.094	22535
839.231	22538
839.369	22672
839.506	22961
839.643	22854
839.781	22664
839.918	22478
840.055	22497
840.193	22569
840.33	22535
840.467	22394
840.604	22580
840.742	22873
840.879	22417
841.016	22386
841.153	22424
841.29	22554
841.427	22546
841.564	22386
841.701	22478
841.838	22413
841.975	22344
842.112	22485
842.249	22409
842.385	22196
842.522	22474
842.659	22447
842.796	22272
842.933	22337
843.069	22322
843.206	22253
843.343	22257
843.479	22337
843.616	22318
843.752	22086
843.889	22082
844.025	22215
844.162	22032
844.298	22147
844.435	22185
844.571	22067
844.708	21998
844.844	22131
844.98	22219
845.117	22143
845.253	21975
845.389	21854
845.525	21812
845.661	21812
845.798	21831
845.934	21743
846.07	21816
846.206	21876
846.342	21888
846.478	21705
846.614	21504
846.75	21458
846.886	21488
847.022	21656
847.158	21530
847.294	21488
847.429	21549
847.565	21519
847.701	21842
847.837	21256
847.972	21214
848.108	21355
848.244	21374
848.379	21062
848.515	21142
848.65	21055
848.786	21096
848.921	21138
849.057	21184
849.192	21104
849.328	21211
849.463	21024
849.598	21100
849.734	21009
849.869	20899
850.004	20838
850.14	20739
850.275	20838
850.41	20895
850.545	20769
850.68	20895
850.815	20929
850.95	20754
851.085	21100
851.22	20956
851.355	20971
851.49	20777
851.625	20739
851.76	20796
851.895	20906
852.03	20811
852.165	20944
852.299	20849
852.434	21009
852.569	20849
852.703	20902
852.838	20906
852.973	20887
853.107	20982
853.242	20762
853.376	20712
853.511	20590
853.645	20659
853.78	20731
853.914	20716
854.048	20682
854.183	20769
854.317	20720
854.451	20864
854.585	20708
854.72	20651
854.854	20872
854.988	20575
855.122	20785
855.256	20511
855.39	20686
855.524	20731
855.658	20705
855.792	20644
855.926	20739
856.06	20682
856.194	20826
856.327	20655
856.461	20598
856.595	20511
856.729	20579
856.862	20796
856.996	20686
857.13	20758
857.263	20788
857.397	20750
857.53	20594
857.664	20625
857.797	20689
857.931	20830
858.064	20701
858.197	20746
858.331	20575
858.464	20674
858.597	20689
858.731	20659
858.864	20670
858.997	20769
859.13	20701
859.263	20670
859.396	20864
859.529	20644
859.662	20648
859.795	20705
859.928	20724
860.061	20941
860.194	20864
860.327	20739
860.46	20678
860.592	20777
860.725	20842
860.858	20788
860.99	20613
861.123	20571
861.256	20629
861.388	20792
861.521	21393
861.653	20667
861.786	20549
861.918	20507
862.05	20564
862.183	20708
862.315	20651
862.447	20693
862.58	20552
862.712	20370
862.844	20309
862.976	20434
863.108	20499
863.24	20918
863.372	20294
863.504	20343
863.636	20419
863.768	20431
863.9	20549
864.032	20358
864.164	20324
864.296	20526
864.428	20347
864.559	20480
864.691	20389
864.823	20427
864.954	20336
865.086	20339
865.217	20377
865.349	20271
865.48	20225
865.612	20336
865.743	20480
865.875	20351
866.006	20313
866.137	20282
866.269	20320
866.4	20259
866.531	20275
866.662	20271
866.793	20157
866.924	20309
867.055	20355
867.186	20259
867.317	20130
867.448	20256
867.579	20286
867.71	20195
867.841	20237
867.972	20240
868.103	20244
868.233	20210
868.364	20107
868.495	20366
868.625	20469
868.756	20606
868.886	20469
869.017	20602
869.147	20549
869.278	20648
869.408	20549
869.539	20511
869.669	20571
869.799	20511
869.929	20560
870.06	20697
870.19	20739
870.32	20811
870.45	20963
870.58	20948
870.71	20971
870.84	21028
870.97	20902
871.1	20883
871.23	21062
871.36	21245
871.489	21024
871.619	21096
871.749	21116
871.879	21081
872.008	21173
872.138	21199
872.267	21051
872.397	21017
872.526	20929
872.656	20899
872.785	20868
872.915	21123
873.044	21237
873.173	21001
873.303	21138
873.432	21146
873.561	21089
873.69	21020
873.819	21116
873.948	21252
874.077	21138
874.206	21100
874.335	21138
874.464	21287
874.593	21241
874.722	21405
874.851	21363
874.979	21329
875.108	21367
875.237	21313
875.365	21214
875.494	21355
875.623	21458
875.751	21348
875.88	21348
876.008	21447
876.136	21500
876.265	21732
876.393	21911
876.521	21922
876.65	21899
876.778	21846
876.906	21781
877.034	21728
877.162	21682
877.29	21656
877.418	21656
877.546	21686
877.674	21717
877.802	21736
877.93	21717
878.058	21660
878.185	21564
878.313	21614
878.441	21717
878.568	21587
878.696	21542
878.824	21781
878.951	21838
879.079	21778
879.206	21876
879.333	21823
879.461	21728
879.588	21755
879.715	21831
879.842	21937
879.97	21747
880.097	21629
880.224	21469
880.351	21515
880.478	21614
880.605	21454
880.732	21507
880.859	21762
880.986	21564
881.112	21549
881.239	21355
881.366	21287
881.493	21298
881.619	21085
881.746	21028
881.872	21214
881.999	21032
882.125	21089
882.252	21154
882.378	21043
882.505	21222
882.631	21013
882.757	20845
882.883	20918
883.01	20773
883.136	20788
883.262	20682
883.388	20788
883.514	20788
883.64	20785
883.766	20769
883.892	20621
884.018	20545
884.143	20788
884.269	20971
884.395	20594
884.52	20507
884.646	20389
884.772	20583
884.897	20229
885.023	20450
885.148	20686
885.274	20621
885.399	20533
885.524	20552
885.65	20518
885.775	20480
885.9	20408
886.025	20579
886.15	20473
886.275	20324
886.4	20396
886.525	20473
886.65	20267
886.775	20347
886.9	20492
887.025	20689
887.149	20518
887.274	20252
887.399	20199
887.523	20183
887.648	20176
887.773	20138
887.897	20252
888.021	20282
888.146	20229
888.27	20313
888.395	20313
888.519	20221
888.643	20377
888.767	20317
888.891	20161
889.015	20107
889.139	20073
889.263	20024
889.387	20214
889.511	20206
889.635	20119
889.759	20035
889.883	19906
890.006	19974
890.13	20134
890.254	19894
890.377	20020
890.501	19784
890.624	19799
890.748	19845
890.871	19643
890.995	19586
891.118	19666
891.241	19613
891.364	19586
891.488	19674
891.611	19521
891.734	19556
891.857	19655
891.98	19628
892.103	19677
892.226	19655
892.349	19502
892.471	19377
892.594	19567
892.717	19464
892.839	19521
892.962	19559
893.085	19578
893.207	19529
893.33	19548
893.452	19468
893.575	19639
893.697	19480
893.819	19632
893.941	19624
894.064	19700
894.186	19438
894.308	19468
894.43	19685
894.552	19620
894.674	19677
894.796	19499
894.918	19529
895.04	19487
895.161	19677
895.283	19689
895.405	19571
895.526	19590
895.648	19540
895.769	19514
895.891	19559
896.012	19620
896.134	19616
896.255	19521
896.376	19499
896.498	19403
896.619	19567
896.74	19540
896.861	19499
896.982	19807
897.103	19989
897.224	19814
897.345	19799
897.466	19696
897.587	19674
897.708	19837
897.828	19776
897.949	19753
898.07	19567
898.19	19685
898.311	19932
898.431	19746
898.552	19750
898.672	19784
898.792	19925
898.913	19761
899.033	19658
899.153	19544
899.273	19559
899.393	19499
899.513	19521
899.633	19658
899.753	19525
899.873	19533
899.993	19708
900.113	19586
900.232	19464
900.352	19476
900.472	19400
900.591	19289
900.711	19369
900.83	19343
900.95	19327
901.069	19384
901.189	19206
901.308	19088
901.427	18951
901.546	18924
901.665	18932
901.784	18844
901.904	18749
902.023	18608
902.141	18437
902.26	18475
902.379	18494
902.498	18528
902.617	18330
902.735	18388
902.854	18460
902.973	18369
903.091	18091
903.21	18197
903.328	18140
903.446	18079
903.565	18019
903.683	17996
903.801	17783
903.919	17901
904.038	18057
904.156	17710
904.274	17798
904.392	17729
904.51	17684
904.627	17653
904.745	17790
904.863	17699
904.981	17547
905.098	17280
905.216	17364
905.334	17353
905.451	17440
905.569	17311
905.686	17391
905.803	17311
905.921	17159
906.038	17280
906.155	17132
906.272	17022
906.389	17094
906.506	16793
906.623	16828
906.74	16908
906.857	16755
906.974	16839
907.091	16892
907.208	17037
907.324	16919
907.441	16771
907.557	16622
907.674	16664
907.79	16447
907.907	16550
908.023	16626
908.139	16668
908.256	16558
908.372	16538
908.488	16546
908.604	16398
908.72	16322
908.836	16322
908.952	16268
909.068	16386
909.184	16318
909.3	16303
909.415	16356
909.531	16322
909.647	16063
909.762	16131
909.878	16101
909.993	16082
910.108	16002
910.224	15983
910.339	16036
910.454	15922
910.57	15781
910.685	15690
910.8	16074
910.915	16067
911.03	15934
911.145	15656
911.259	15648
911.374	15622
911.489	15561
911.604	15564
911.718	15359
911.833	15500
911.947	15378
912.062	15252
912.176	15469
912.291	15549
912.405	15481
912.519	15644
912.633	15625
912.748	15469
912.862	15462
912.976	15272
913.09	15070
913.204	15222
913.318	15287
913.431	15351
913.545	15310
913.659	15336
913.772	15211
913.886	15108
914	15005
914.113	15108
914.226	15142
914.34	15180
914.453	14876
914.566	15138
914.68	14937
914.793	14834
914.906	14659
915.019	14720
915.132	14731
915.245	14541
915.358	14705
915.47	14651
915.583	14594
915.696	14708
915.809	14804
915.921	14781
916.034	14678
916.146	14526
916.259	14579
916.371	14670
916.483	14587
916.595	14442
916.708	14457
916.82	14415
916.932	14461
917.044	14427
917.156	14324
917.268	14362
917.38	14366
917.491	14374
917.603	14313
917.715	14301
917.826	14454
917.938	14225
918.049	14221
918.161	14305
918.272	14469
918.384	14252
918.495	14206
918.606	14142
918.717	14054
918.828	14164
918.939	14168
919.05	13963
919.161	13978
919.272	13909
919.383	13928
919.494	14123
919.604	14282
919.715	14119
919.826	13959
919.936	14043
920.047	14157
920.157	14183
920.267	14229
920.378	14115
920.488	14088
920.598	14199
920.708	14343
920.818	14218
920.928	14248
921.038	14423
921.148	14305
921.258	14092
921.368	13909
921.477	13852
921.587	13921
921.697	13677
921.806	13849
921.916	13799
922.025	13457
922.134	13434
922.244	13411
922.353	13514
922.462	13327
922.571	13308
922.68	13149
922.789	13141
922.898	13091
923.007	13095
923.116	13091
923.224	13122
923.333	13053
923.442	12920
923.55	12909
923.659	12962
923.767	12947
923.876	12837
923.984	12867
924.092	12897
924.201	12897
924.309	12878
924.417	12935
924.525	12783
924.633	12795
924.741	13651
924.849	12593
924.956	12642
925.064	12589
925.172	12460
925.279	12536
925.387	12620
925.494	12646
925.602	12719
925.709	12570
925.816	12456
925.924	12532
926.031	12616
926.138	12570
926.245	12532
926.352	12437
926.459	12509
926.566	12616
926.673	12399
926.779	12273
926.886	12380
926.993	12251
927.099	12205
927.206	12121
927.312	12072
927.419	12197
927.525	12125
927.631	12110
927.737	12045
927.843	12015
927.95	11923
928.056	11996
928.162	11916
928.267	12049
928.373	12559
928.479	12049
928.585	11783
928.69	11904
928.796	11965
928.901	11882
929.007	11592
929.112	11821
929.218	11805
929.323	11745
929.428	11726
929.533	11805
929.638	11577
929.743	11684
929.848	11714
929.953	11630
930.058	11596
930.163	11356
930.267	11421
930.372	11634
930.477	11364
930.581	11611
930.685	11429
930.79	11288
930.894	11356
930.998	11307
931.103	11383
931.207	11003
931.311	10908
931.415	10938
931.519	10729
931.623	10687
