Data from test_V78500241_2199.txt Node
Date: Fri Mar 25 15:25:10 CST 2022
User: usil
Spectrometer: V785-0024
Trigger mode: 0
Integration Time (sec): 4.000000E-1
Scans to average: 1
Nonlinearity correction enabled: false
Boxcar width: 0
Storing dark spectrum: false
XAxis mode: Wavelengths
Number of Pixels in Spectrum: 1024
>>>>>Begin Spectral Data<<<<<
801.071	27732
801.214	27660
801.356	27686
801.499	27458
801.641	27325
801.783	27370
801.926	27313
802.068	27302
802.211	27260
802.353	27127
802.496	27112
802.638	27032
802.78	26933
802.923	26891
803.065	26914
803.208	26880
803.35	26826
803.492	26982
803.635	27047
803.777	27169
803.919	27184
804.061	27359
804.204	27382
804.346	27184
804.488	27055
804.63	27192
804.773	27119
804.915	27119
805.057	27154
805.199	27188
805.341	27184
805.483	27336
805.626	27283
805.768	27150
805.91	27268
806.052	27214
806.194	27096
806.336	27416
806.478	27203
806.62	27256
806.762	27439
806.904	27633
807.046	27781
807.188	27671
807.33	27781
807.472	27846
807.614	27736
807.756	27690
807.898	27530
808.04	27557
808.182	27614
808.324	27526
808.465	27728
808.607	27816
808.749	27964
808.891	28021
809.033	28040
809.174	27892
809.316	27747
809.458	27869
809.6	27949
809.741	28063
809.883	28082
810.025	28204
810.166	28112
810.308	28276
810.45	28154
810.591	28128
810.733	27979
810.875	27888
811.016	27667
811.158	27686
811.299	27968
811.441	28101
811.582	28067
811.724	28090
811.865	27816
812.007	27914
812.148	27994
812.29	27926
812.431	28207
812.573	28265
812.714	28310
812.855	28413
812.997	28546
813.138	28630
813.279	28508
813.421	28436
813.562	28360
813.703	28188
813.845	28086
813.986	27880
814.127	27774
814.268	27622
814.41	27564
814.551	27641
814.692	27663
814.833	27530
814.974	27534
815.115	27656
815.256	27408
815.397	27378
815.539	27405
815.68	27553
815.821	27321
815.962	27397
816.103	27427
816.244	27230
816.385	27233
816.526	27275
816.666	26937
816.807	26952
816.948	26899
817.089	27032
817.23	26883
817.371	26918
817.512	26804
817.653	26670
817.793	26910
817.934	26887
818.075	26921
818.216	26906
818.356	26746
818.497	26815
818.638	26674
818.778	26609
818.919	26636
819.06	26720
819.2	26762
819.341	26864
819.481	26739
819.622	27017
819.762	27184
819.903	27173
820.043	26967
820.184	27047
820.324	26952
820.465	26956
820.605	26925
820.746	27055
820.886	26876
821.026	26921
821.167	26967
821.307	27017
821.447	26963
821.588	26758
821.728	26556
821.868	26492
822.008	26461
822.149	26389
822.289	26362
822.429	26073
822.569	25989
822.709	26176
822.849	25879
822.99	25780
823.13	25921
823.27	25826
823.41	25651
823.55	25624
823.69	25738
823.83	25575
823.97	25616
824.11	25514
824.25	25441
824.389	25476
824.529	25643
824.669	25563
824.809	25624
824.949	25559
825.089	25419
825.228	25453
825.368	25354
825.508	25316
825.648	25308
825.787	25339
825.927	25499
826.067	25339
826.206	25187
826.346	25354
826.485	25343
826.625	25217
826.765	25514
826.904	25400
827.044	25160
827.183	25091
827.323	25027
827.462	25148
827.601	25217
827.741	25008
827.88	25031
828.02	24932
828.159	25061
828.298	25232
828.437	25027
828.577	24966
828.716	25141
828.855	24958
828.994	24707
829.134	24821
829.273	24749
829.412	24715
829.551	24673
829.69	24726
829.829	24886
829.968	24863
830.107	24928
830.246	24768
830.385	24635
830.524	24726
830.663	24551
830.802	24498
830.941	24311
831.08	24407
831.219	24353
831.357	24414
831.496	24620
831.635	24410
831.774	24281
831.913	24220
832.051	24235
832.19	24251
832.329	24159
832.467	24041
832.606	23863
832.744	23988
832.883	23958
833.022	24049
833.16	23942
833.299	24129
833.437	23946
833.576	24026
833.714	24224
833.852	24117
833.991	24266
834.129	24171
834.267	24224
834.406	24140
834.544	24133
834.682	24083
834.821	24049
834.959	24243
835.097	24114
835.235	24049
835.373	24159
835.511	24049
835.65	23889
835.788	23916
835.926	23874
836.064	23672
836.202	23710
836.34	23802
836.478	23988
836.615	23889
836.753	24022
836.891	24034
837.029	23901
837.167	23901
837.305	23805
837.443	23737
837.58	23756
837.718	23813
837.856	23824
837.993	23687
838.131	23680
838.269	23566
838.406	23623
838.544	23566
838.681	23395
838.819	23395
838.956	23197
839.094	23269
839.231	23265
839.369	23482
839.506	23646
839.643	23512
839.781	23292
839.918	23189
840.055	23212
840.193	23254
840.33	23239
840.467	23174
840.604	23147
840.742	23402
840.879	23060
841.016	23094
841.153	23128
841.29	23223
841.427	23185
841.564	23162
841.701	23140
841.838	23064
841.975	23132
842.112	23041
842.249	22927
842.385	22889
842.522	23064
842.659	22972
842.796	22896
842.933	23018
843.069	22828
843.206	22790
843.343	22873
843.479	22900
843.616	22972
843.752	22675
843.889	22641
844.025	22767
844.162	22694
844.298	22877
844.435	22778
844.571	22622
844.708	22729
844.844	22824
844.98	22736
845.117	22748
845.253	22611
845.389	22519
845.525	22607
845.661	22554
845.798	22443
845.934	22306
846.07	22424
846.206	22382
846.342	22485
846.478	22325
846.614	22223
846.75	22158
846.886	22112
847.022	22242
847.158	22105
847.294	22112
847.429	22128
847.565	22090
847.701	22386
847.837	21983
847.972	21930
848.108	22029
848.244	21991
848.379	21736
848.515	21793
848.65	21717
848.786	21778
848.921	21793
849.057	21781
849.192	21861
849.328	21690
849.463	21720
849.598	21690
849.734	21694
849.869	21561
850.004	21523
850.14	21595
850.275	21610
850.41	21507
850.545	21386
850.68	21583
850.815	21488
850.95	21405
851.085	21751
851.22	21595
851.355	21572
851.49	21450
851.625	21397
851.76	21534
851.895	21336
852.03	21374
852.165	21420
852.299	21523
852.434	21492
852.569	21633
852.703	21534
852.838	21595
852.973	21564
853.107	21629
853.242	21462
853.376	21416
853.511	21218
853.645	21382
853.78	21568
853.914	21291
854.048	21211
854.183	21272
854.317	21447
854.451	21382
854.585	21329
854.72	21321
854.854	21382
854.988	21298
855.122	21397
855.256	21260
855.39	21272
855.524	21401
855.658	21367
855.792	21306
855.926	21450
856.06	21355
856.194	21424
856.327	21344
856.461	21260
856.595	21275
856.729	21306
856.862	21477
856.996	21241
857.13	21473
857.263	21473
857.397	21340
857.53	21241
857.664	21420
857.797	21340
857.931	21473
858.064	21420
858.197	21370
858.331	21344
858.464	21260
858.597	21252
858.731	21405
858.864	21325
858.997	21211
859.13	21340
859.263	21329
859.396	21374
859.529	21393
859.662	21336
859.795	21291
859.928	21378
860.061	21458
860.194	21564
860.327	21344
860.46	21256
860.592	21428
860.725	21416
860.858	21526
860.99	21340
861.123	21211
861.256	21279
861.388	21313
861.521	22010
861.653	21207
861.786	21142
861.918	21112
862.05	21150
862.183	21150
862.315	21351
862.447	21241
862.58	21249
862.712	21032
862.844	20994
862.976	21100
863.108	21116
863.24	21287
863.372	20967
863.504	21062
863.636	21005
863.768	21100
863.9	21051
864.032	21104
864.164	20952
864.296	21062
864.428	21161
864.559	21062
864.691	21108
864.823	21047
864.954	21001
865.086	21001
865.217	20921
865.349	20948
865.48	21039
865.612	20902
865.743	21089
865.875	20910
866.006	20914
866.137	20891
866.269	20899
866.4	20921
866.531	20842
866.662	20769
866.793	20982
866.924	20891
867.055	20899
867.186	20929
867.317	20823
867.448	20823
867.579	20800
867.71	20842
867.841	20792
867.972	20864
868.103	20834
868.233	20861
868.364	20872
868.495	20948
868.625	21017
868.756	21256
868.886	21112
869.017	21104
869.147	21275
869.278	21131
869.408	21127
869.539	21146
869.669	21207
869.799	21100
869.929	21226
870.06	21207
870.19	21355
870.32	21310
870.45	21519
870.58	21469
870.71	21637
870.84	21557
870.97	21481
871.1	21504
871.23	21720
871.36	21633
871.489	21637
871.619	21736
871.749	21705
871.879	21641
872.008	21865
872.138	21739
872.267	21679
872.397	21530
872.526	21542
872.656	21583
872.785	21576
872.915	21705
873.044	21827
873.173	21698
873.303	21656
873.432	21827
873.561	21785
873.69	21698
873.819	21751
873.948	21778
874.077	21713
874.206	21759
874.335	21724
874.464	21823
874.593	21789
874.722	21998
874.851	21972
874.979	22021
875.108	21911
875.237	21759
875.365	21823
875.494	21869
875.623	21941
875.751	21865
875.88	21816
876.008	22051
876.136	22090
876.265	22363
876.393	22462
876.521	22390
876.65	22329
876.778	22379
876.906	22314
877.034	22185
877.162	22333
877.29	22272
877.418	22268
877.546	22295
877.674	22173
877.802	22409
877.93	22341
878.058	22162
878.185	22120
878.313	22200
878.441	22325
878.568	22143
878.696	22093
878.824	22234
878.951	22375
879.079	22367
879.206	22519
879.333	22409
879.461	22394
879.588	22371
879.715	22421
879.842	22527
879.97	22382
880.097	22036
880.224	22010
880.351	22086
880.478	22135
880.605	21945
880.732	22105
880.859	22348
880.986	22105
881.112	22139
881.239	21956
881.366	21857
881.493	21762
881.619	21629
881.746	21739
881.872	21690
881.999	21557
882.125	21625
882.252	21583
882.378	21545
882.505	21679
882.631	21564
882.757	21458
882.883	21393
883.01	21389
883.136	21374
883.262	21241
883.388	21237
883.514	21355
883.64	21435
883.766	21272
883.892	21161
884.018	21192
884.143	21336
884.269	21485
884.395	21169
884.52	21047
884.646	21131
884.772	20948
884.897	20815
885.023	21055
885.148	21043
885.274	21199
885.399	21032
885.524	20952
885.65	21070
885.775	20975
885.9	21032
886.025	21104
886.15	21104
886.275	20918
886.4	21009
886.525	20899
886.65	20880
886.775	20910
886.9	21154
887.025	21157
887.149	21001
887.274	20834
887.399	20861
887.523	20868
887.648	20693
887.773	20777
887.897	20895
888.021	20823
888.146	20758
888.27	20842
888.395	20815
888.519	20979
888.643	20629
888.767	20868
888.891	20773
889.015	20625
889.139	20663
889.263	20545
889.387	20674
889.511	20861
889.635	20701
889.759	20648
889.883	20511
890.006	20518
890.13	20705
890.254	20530
890.377	20454
890.501	20317
890.624	20278
890.748	20412
890.871	20225
890.995	20256
891.118	20092
891.241	20168
891.364	20180
891.488	20309
891.611	20259
891.734	20218
891.857	20149
891.98	20183
892.103	20180
892.226	20092
892.349	20084
892.471	19921
892.594	20062
892.717	20031
892.839	20069
892.962	20001
893.085	20081
893.207	20001
893.33	19970
893.452	20005
893.575	20077
893.697	20005
893.819	20058
893.941	20290
894.064	20271
894.186	19963
894.308	19909
894.43	20176
894.552	20168
894.674	20149
894.796	19898
894.918	20035
895.04	19986
895.161	20092
895.283	20210
895.405	20107
895.526	20153
895.648	20077
895.769	20126
895.891	20092
896.012	20020
896.134	20168
896.255	20149
896.376	20081
896.498	20122
896.619	20122
896.74	19947
896.861	20161
896.982	20393
897.103	20446
897.224	20385
897.345	20214
897.466	20134
897.587	20172
897.708	20442
897.828	20248
897.949	20252
898.07	20126
898.19	20157
898.311	20385
898.431	20138
898.552	20233
898.672	20423
898.792	20385
898.913	20161
899.033	20229
899.153	20187
899.273	20020
899.393	20016
899.513	20096
899.633	19982
899.753	19932
899.873	20008
899.993	20126
900.113	19875
900.232	19989
900.352	19944
900.472	19887
900.591	19871
900.711	19818
900.83	19803
900.95	19894
901.069	19864
901.189	19681
901.308	19514
901.427	19392
901.546	19403
901.665	19491
901.784	19411
901.904	19285
902.023	19103
902.141	18977
902.26	18977
902.379	19103
902.498	18848
902.617	18806
902.735	18878
902.854	18916
902.973	18852
903.091	18578
903.21	18650
903.328	18582
903.446	18388
903.565	18311
903.683	18391
903.801	18311
903.919	18300
904.038	18201
904.156	18174
904.274	18258
904.392	18117
904.51	18194
904.627	18182
904.745	18159
904.863	18232
904.981	17912
905.098	17802
905.216	17828
905.334	17866
905.451	17855
905.569	17813
905.686	17649
905.803	17828
905.921	17653
906.038	17684
906.155	17665
906.272	17520
906.389	17551
906.506	17356
906.623	17364
906.74	17368
906.857	17227
906.974	17265
907.091	17387
907.208	17566
907.324	17383
907.441	17235
907.557	17147
907.674	17117
907.79	17083
907.907	17014
908.023	17041
908.139	17064
908.256	16927
908.372	16869
908.488	16923
908.604	16797
908.72	16877
908.836	16748
908.952	16828
909.068	16797
909.184	16885
909.3	16816
909.415	16892
909.531	16831
909.647	16489
909.762	16394
909.878	16421
909.993	16470
910.108	16432
910.224	16402
910.339	16512
910.454	16413
910.57	16287
910.685	16223
910.8	16554
910.915	16394
911.03	16337
911.145	16116
911.259	16109
911.374	16078
911.489	15968
911.604	15968
911.718	15903
911.833	15857
911.947	15751
912.062	15743
912.176	15846
912.291	15835
912.405	15804
912.519	15956
912.633	16082
912.748	15831
912.862	15793
912.976	15644
913.09	15488
913.204	15637
913.318	15572
913.431	15785
913.545	15705
913.659	15774
913.772	15534
913.886	15572
914	15443
914.113	15488
914.226	15538
914.34	15542
914.453	15336
914.566	15507
914.68	15317
914.793	15313
914.906	15119
915.019	15055
915.132	14944
915.245	15081
915.358	14990
915.47	15161
915.583	15100
915.696	15100
915.809	15199
915.921	15161
916.034	15005
916.146	15005
916.259	14872
916.371	15070
916.483	14967
916.595	14925
916.708	14967
916.82	14914
916.932	14887
917.044	14876
917.156	14804
917.268	14758
917.38	14735
917.491	14739
917.603	14682
917.715	14800
917.826	14815
917.938	14686
918.049	14545
918.161	14659
918.272	14811
918.384	14785
918.495	14663
918.606	14503
918.717	14431
918.828	14556
918.939	14530
919.05	14446
919.161	14332
919.272	14362
919.383	14267
919.494	14651
919.604	14640
919.715	14450
919.826	14374
919.936	14396
920.047	14533
920.157	14389
920.267	14667
920.378	14533
920.488	14469
920.598	14621
920.708	14777
920.818	14579
920.928	14530
921.038	14708
921.148	14693
921.258	14362
921.368	14355
921.477	14172
921.587	14020
921.697	14092
921.806	14195
921.916	13993
922.025	13955
922.134	13769
922.244	13696
922.353	13879
922.462	13647
922.571	13624
922.68	13556
922.789	13415
922.898	13510
923.007	13422
923.116	13525
923.224	13521
923.333	13438
923.442	13346
923.55	13259
923.659	13346
923.767	13358
923.876	13282
923.984	13293
924.092	13149
924.201	13202
924.309	13285
924.417	13194
924.525	13091
924.633	13213
924.741	13849
924.849	12973
924.956	13057
925.064	13015
925.172	12791
925.279	12829
925.387	12935
925.494	12833
925.602	13042
925.709	12981
925.816	12741
925.924	12882
926.031	12966
926.138	12802
926.245	12867
926.352	12730
926.459	12875
926.566	12920
926.673	12806
926.779	12673
926.886	12662
926.993	12502
927.099	12502
927.206	12426
927.312	12498
927.419	12483
927.525	12441
927.631	12475
927.737	12380
927.843	12311
927.95	12292
928.056	12243
928.162	12273
928.267	12292
928.373	12924
928.479	12338
928.585	12102
928.69	12319
928.796	12270
928.901	12102
929.007	11984
929.112	12140
929.218	12041
929.323	12015
929.428	12026
929.533	12152
929.638	11973
929.743	12030
929.848	12068
929.953	11999
930.058	11863
930.163	11699
930.267	11745
930.372	11863
930.477	11668
930.581	11813
930.685	11665
930.79	11539
930.894	11646
930.998	11543
931.103	11665
931.207	11341
931.311	11273
931.415	11181
931.519	11018
931.623	11018
