Data from test_V78500241_3223.txt Node
Date: Fri Mar 25 15:32:18 CST 2022
User: usil
Spectrometer: V785-0024
Trigger mode: 0
Integration Time (sec): 4.000000E-1
Scans to average: 1
Nonlinearity correction enabled: false
Boxcar width: 0
Storing dark spectrum: false
XAxis mode: Wavelengths
Number of Pixels in Spectrum: 1024
>>>>>Begin Spectral Data<<<<<
801.071	27146
801.214	27055
801.356	26975
801.499	26883
801.641	26807
801.783	26819
801.926	26944
802.068	26754
802.211	26716
802.353	26587
802.496	26499
802.638	26438
802.78	26320
802.923	26313
803.065	26244
803.208	26351
803.35	26328
803.492	26575
803.635	26526
803.777	26549
803.919	26514
804.061	26823
804.204	26560
804.346	26412
804.488	26480
804.63	26514
804.773	26431
804.915	26530
805.057	26594
805.199	26514
805.341	26609
805.483	26712
805.626	26678
805.768	26617
805.91	26571
806.052	26697
806.194	26412
806.336	26826
806.478	26552
806.62	26727
806.762	26708
806.904	26937
807.046	27294
807.188	27154
807.33	27093
807.472	27116
807.614	26944
807.756	26940
807.898	26887
808.04	26838
808.182	26876
808.324	26887
808.465	26838
808.607	27077
808.749	27321
808.891	27268
809.033	27405
809.174	27336
809.316	27268
809.458	27146
809.6	27142
809.741	27298
809.883	27374
810.025	27450
810.166	27511
810.308	27568
810.45	27458
810.591	27401
810.733	27348
810.875	27157
811.016	27272
811.158	27066
811.299	27344
811.441	27405
811.582	27427
811.724	27241
811.865	27233
812.007	27226
812.148	27313
812.29	27344
812.431	27500
812.573	27523
812.714	27717
812.855	27766
812.997	27873
813.138	27968
813.279	27945
813.421	27869
813.562	27743
813.703	27686
813.845	27412
813.986	27169
814.127	27180
814.268	27032
814.41	26937
814.551	26864
814.692	27009
814.833	26781
814.974	26891
815.115	26883
815.256	26861
815.397	26762
815.539	26746
815.68	26731
815.821	26750
815.962	26693
816.103	26617
816.244	26499
816.385	26488
816.526	26385
816.666	26366
816.807	26107
816.948	26218
817.089	26187
817.23	26157
817.371	26286
817.512	26092
817.653	26107
817.793	26119
817.934	26161
818.075	25989
818.216	26168
818.356	26172
818.497	25989
818.638	25890
818.778	25864
818.919	25925
819.06	25917
819.2	26130
819.341	26142
819.481	26005
819.622	26176
819.762	26503
819.903	26450
820.043	26339
820.184	26313
820.324	26237
820.465	26301
820.605	26328
820.746	26252
820.886	26077
821.026	26290
821.167	26161
821.307	26294
821.447	26229
821.588	26161
821.728	25925
821.868	25693
822.008	25811
822.149	25533
822.289	25689
822.429	25274
822.569	25301
822.709	25190
822.849	25164
822.99	25012
823.13	24966
823.27	25122
823.41	24928
823.55	24886
823.69	25034
823.83	24973
823.97	24856
824.11	24779
824.25	24772
824.389	24620
824.529	24962
824.669	24665
824.809	24882
824.949	24681
825.089	24757
825.228	24863
825.368	24681
825.508	24563
825.648	24570
825.787	24665
825.927	24741
826.067	24646
826.206	24536
826.346	24578
826.485	24623
826.625	24684
826.765	24745
826.904	24681
827.044	24429
827.183	24441
827.323	24346
827.462	24490
827.601	24445
827.741	24292
827.88	24327
828.02	24136
828.159	24209
828.298	24369
828.437	24429
828.577	24239
828.716	24353
828.855	24277
828.994	24034
829.134	24076
829.273	24125
829.412	24060
829.551	23969
829.69	24102
829.829	24140
829.968	24140
830.107	24068
830.246	24148
830.385	24049
830.524	24026
830.663	23859
830.802	23824
830.941	23691
831.08	23668
831.219	23786
831.357	23699
831.496	23901
831.635	23596
831.774	23661
831.913	23558
832.051	23376
832.19	23463
832.329	23414
832.467	23368
832.606	23318
832.744	23265
832.883	23402
833.022	23277
833.16	23330
833.299	23440
833.437	23467
833.576	23459
833.714	23334
833.852	23444
833.991	23520
834.129	23509
834.267	23501
834.406	23410
834.544	23410
834.682	23391
834.821	23345
834.959	23592
835.097	23383
835.235	23463
835.373	23337
835.511	23440
835.65	23372
835.788	23113
835.926	23109
836.064	22999
836.202	23052
836.34	23265
836.478	23379
836.615	23185
836.753	23292
836.891	23280
837.029	23315
837.167	23269
837.305	23147
837.443	23086
837.58	23025
837.718	23223
837.856	23216
837.993	23140
838.131	23067
838.269	22995
838.406	23022
838.544	22949
838.681	22725
838.819	22801
838.956	22698
839.094	22557
839.231	22538
839.369	22797
839.506	23014
839.643	22862
839.781	22683
839.918	22493
840.055	22622
840.193	22546
840.33	22481
840.467	22500
840.604	22561
840.742	22793
840.879	22394
841.016	22451
841.153	22356
841.29	22645
841.427	22557
841.564	22546
841.701	22508
841.838	22508
841.975	22432
842.112	22451
842.249	22443
842.385	22276
842.522	22493
842.659	22405
842.796	22356
842.933	22246
843.069	22257
843.206	22139
843.343	22379
843.479	22226
843.616	22352
843.752	22025
843.889	22116
844.025	22131
844.162	22010
844.298	22082
844.435	21998
844.571	21911
844.708	22010
844.844	22074
844.98	22181
845.117	22268
845.253	22139
845.389	21949
845.525	22055
845.661	22013
845.798	21842
845.934	21819
846.07	21766
846.206	21857
846.342	21960
846.478	21694
846.614	21618
846.75	21485
846.886	21519
847.022	21599
847.158	21538
847.294	21583
847.429	21504
847.565	21679
847.701	21705
847.837	21325
847.972	21264
848.108	21325
848.244	21329
848.379	21199
848.515	21184
848.65	21188
848.786	21135
848.921	21127
849.057	21272
849.192	21291
849.328	21173
849.463	21116
849.598	20990
849.734	21036
849.869	21058
850.004	20948
850.14	20952
850.275	20944
850.41	20807
850.545	20731
850.68	20861
850.815	20914
850.95	20899
851.085	21043
851.22	21005
851.355	20914
851.49	20857
851.625	20902
851.76	20952
851.895	20811
852.03	20891
852.165	20948
852.299	20941
852.434	20937
852.569	20895
852.703	20902
852.838	20982
852.973	21058
853.107	20994
853.242	20815
853.376	20834
853.511	20617
853.645	20708
853.78	20845
853.914	20842
854.048	20716
854.183	20674
854.317	20663
854.451	20963
854.585	20800
854.72	20792
854.854	20800
854.988	20602
855.122	20648
855.256	20549
855.39	20815
855.524	20754
855.658	20906
855.792	20743
855.926	20735
856.06	20883
856.194	20857
856.327	20697
856.461	20564
856.595	20621
856.729	20682
856.862	20868
856.996	20724
857.13	20765
857.263	20815
857.397	20826
857.53	20838
857.664	20800
857.797	20773
857.931	20883
858.064	20781
858.197	20804
858.331	20663
858.464	20792
858.597	20678
858.731	20769
858.864	20674
858.997	20716
859.13	20842
859.263	20686
859.396	20769
859.529	20720
859.662	20705
859.795	20735
859.928	20712
860.061	20941
860.194	20902
860.327	20693
860.46	20834
860.592	20823
860.725	20902
860.858	20872
860.99	20807
861.123	20705
861.256	20674
861.388	20625
861.521	21325
861.653	20659
861.786	20450
861.918	20598
862.05	20518
862.183	20712
862.315	20686
862.447	20648
862.58	20663
862.712	20404
862.844	20415
862.976	20594
863.108	20564
863.24	20785
863.372	20499
863.504	20560
863.636	20389
863.768	20617
863.9	20343
864.032	20358
864.164	20393
864.296	20419
864.428	20469
864.559	20522
864.691	20454
864.823	20469
864.954	20324
865.086	20358
865.217	20336
865.349	20339
865.48	20370
865.612	20313
865.743	20419
865.875	20366
866.006	20259
866.137	20446
866.269	20355
866.4	20256
866.531	20351
866.662	20259
866.793	20248
866.924	20343
867.055	20290
867.186	20317
867.317	20366
867.448	20157
867.579	20278
867.71	20168
867.841	20244
867.972	20267
868.103	20214
868.233	20290
868.364	20233
868.495	20305
868.625	20590
868.756	20621
868.886	20526
869.017	20526
869.147	20609
869.278	20560
869.408	20636
869.539	20518
869.669	20674
869.799	20594
869.929	20659
870.06	20644
870.19	20792
870.32	20739
870.45	20842
870.58	20872
870.71	21116
870.84	21077
870.97	20948
871.1	20937
871.23	21169
871.36	20963
871.489	21089
871.619	20948
871.749	21119
871.879	21157
872.008	21272
872.138	21157
872.267	21192
872.397	21089
872.526	21074
872.656	20967
872.785	20956
872.915	21302
873.044	21264
873.173	21096
873.303	21207
873.432	21249
873.561	21222
873.69	21135
873.819	21173
873.948	21146
874.077	21176
874.206	21214
874.335	21150
874.464	21256
874.593	21462
874.722	21401
874.851	21534
874.979	21344
875.108	21382
875.237	21378
875.365	21378
875.494	21393
875.623	21466
875.751	21344
875.88	21576
876.008	21568
876.136	21428
876.265	21755
876.393	22078
876.521	21747
876.65	21934
876.778	21994
876.906	21789
877.034	21675
877.162	21743
877.29	21762
877.418	21751
877.546	21804
877.674	21888
877.802	21774
877.93	21800
878.058	21679
878.185	21538
878.313	21759
878.441	21774
878.568	21595
878.696	21835
878.824	21804
878.951	21861
879.079	21918
879.206	22055
879.333	21949
879.461	21804
879.588	21804
879.715	21956
879.842	22067
879.97	21819
880.097	21656
880.224	21542
880.351	21633
880.478	21641
880.605	21576
880.732	21564
880.859	21854
880.986	21682
881.112	21583
881.239	21477
881.366	21370
881.493	21336
881.619	21150
881.746	21298
881.872	21256
881.999	21093
882.125	21161
882.252	21184
882.378	21165
882.505	21275
882.631	20979
882.757	20899
882.883	21047
883.01	20845
883.136	20796
883.262	20735
883.388	20689
883.514	20971
883.64	20941
883.766	20785
883.892	20765
884.018	20746
884.143	20807
884.269	20853
884.395	20556
884.52	20613
884.646	20476
884.772	20454
884.897	20454
885.023	20518
885.148	20754
885.274	20708
885.399	20526
885.524	20571
885.65	20465
885.775	20541
885.9	20518
886.025	20636
886.15	20621
886.275	20503
886.4	20419
886.525	20514
886.65	20408
886.775	20423
886.9	20587
887.025	20686
887.149	20488
887.274	20339
887.399	20347
887.523	20309
887.648	20206
887.773	20317
887.897	20404
888.021	20339
888.146	20252
888.27	20381
888.395	20267
888.519	20294
888.643	20320
888.767	20286
888.891	20191
889.015	20081
889.139	20126
889.263	20145
889.387	20065
889.511	20358
889.635	20290
889.759	20142
889.883	20126
890.006	20183
890.13	20313
890.254	19989
890.377	19997
890.501	19871
890.624	19947
890.748	19814
890.871	19616
890.995	19765
891.118	19620
891.241	19864
891.364	19746
891.488	19818
891.611	19799
891.734	19693
891.857	19582
891.98	19731
892.103	19670
892.226	19613
892.349	19624
892.471	19438
892.594	19533
892.717	19632
892.839	19506
892.962	19552
893.085	19746
893.207	19559
893.33	19464
893.452	19597
893.575	19514
893.697	19529
893.819	19628
893.941	19742
894.064	19761
894.186	19575
894.308	19430
894.43	19658
894.552	19658
894.674	19635
894.796	19502
894.918	19521
895.04	19487
895.161	19738
895.283	19662
895.405	19533
895.526	19666
895.648	19502
895.769	19666
895.891	19491
896.012	19727
896.134	19670
896.255	19727
896.376	19597
896.498	19712
896.619	19651
896.74	19655
896.861	19689
896.982	19959
897.103	20107
897.224	19822
897.345	19761
897.466	19856
897.587	19784
897.708	19818
897.828	19830
897.949	19799
898.07	19632
898.19	19742
898.311	19928
898.431	19723
898.552	19849
898.672	19959
898.792	19864
898.913	19841
899.033	19700
899.153	19727
899.273	19693
899.393	19605
899.513	19563
899.633	19609
899.753	19552
899.873	19601
899.993	19620
900.113	19552
900.232	19472
900.352	19422
900.472	19434
900.591	19278
900.711	19460
900.83	19426
900.95	19548
901.069	19483
901.189	19312
901.308	18947
901.427	18909
901.546	18913
901.665	19050
901.784	18958
901.904	18802
902.023	18730
902.141	18448
902.26	18525
902.379	18540
902.498	18509
902.617	18498
902.735	18517
902.854	18365
902.973	18403
903.091	18114
903.21	18064
903.328	18209
903.446	18159
903.565	17908
903.683	18022
903.801	17836
903.919	17885
904.038	17904
904.156	17794
904.274	17878
904.392	17771
904.51	17703
904.627	17729
904.745	17764
904.863	17790
904.981	17608
905.098	17391
905.216	17395
905.334	17478
905.451	17360
905.569	17216
905.686	17463
905.803	17398
905.921	17216
906.038	17235
906.155	17166
906.272	17117
906.389	17079
906.506	16991
906.623	16866
906.74	16957
906.857	16919
906.974	16934
907.091	17048
907.208	17056
907.324	16877
907.441	16820
907.557	16733
907.674	16786
907.79	16542
907.907	16710
908.023	16778
908.139	16599
908.256	16569
908.372	16634
908.488	16493
908.604	16440
908.72	16318
908.836	16344
908.952	16371
909.068	16390
909.184	16485
909.3	16325
909.415	16303
909.531	16398
909.647	16204
909.762	16139
909.878	16055
909.993	15979
910.108	16185
910.224	16040
910.339	16101
910.454	15964
910.57	15857
910.685	15823
910.8	16082
910.915	16036
911.03	15953
911.145	15800
911.259	15751
911.374	15698
911.489	15606
911.604	15504
911.718	15473
911.833	15507
911.947	15329
912.062	15363
912.176	15485
912.291	15496
912.405	15412
912.519	15656
912.633	15606
912.748	15507
912.862	15412
912.976	15294
913.09	15184
913.204	15154
913.318	15336
913.431	15408
913.545	15272
913.659	15401
913.772	15176
913.886	15009
914	15123
914.113	15150
914.226	15020
914.34	15135
914.453	14925
914.566	15222
914.68	14880
914.793	14952
914.906	14800
915.019	14670
915.132	14674
915.245	14678
915.358	14686
915.47	14735
915.583	14602
915.696	14724
915.809	14807
915.921	14910
916.034	14632
916.146	14606
916.259	14640
916.371	14693
916.483	14636
916.595	14594
916.708	14610
916.82	14560
916.932	14564
917.044	14492
917.156	14552
917.268	14358
917.38	14431
917.491	14347
917.603	14362
917.715	14423
917.826	14438
917.938	14358
918.049	14259
918.161	14271
918.272	14419
918.384	14461
918.495	14286
918.606	14149
918.717	14157
918.828	14050
918.939	14176
919.05	14046
919.161	14164
919.272	13902
919.383	13936
919.494	14240
919.604	14377
919.715	14187
919.826	14012
919.936	14092
920.047	14180
920.157	14103
920.267	14328
920.378	14119
920.488	14092
920.598	14317
920.708	14381
920.818	14343
920.928	14187
921.038	14423
921.148	14362
921.258	14077
921.368	13997
921.477	13913
921.587	13811
921.697	13658
921.806	13837
921.916	13700
922.025	13586
922.134	13518
922.244	13365
922.353	13563
922.462	13358
922.571	13358
922.68	13206
922.789	13225
922.898	13137
923.007	13069
923.116	13175
923.224	13206
923.333	13149
923.442	13046
923.55	12947
923.659	13057
923.767	13038
923.876	12958
923.984	12909
924.092	12833
924.201	12897
924.309	12909
924.417	12928
924.525	12840
924.633	12821
924.741	13746
924.849	12681
924.956	12753
925.064	12627
925.172	12540
925.279	12536
925.387	12677
925.494	12547
925.602	12703
925.709	12665
925.816	12521
925.924	12494
926.031	12635
926.138	12479
926.245	12528
926.352	12448
926.459	12540
926.566	12570
926.673	12494
926.779	12346
926.886	12353
926.993	12262
927.099	12117
927.206	12091
927.312	12076
927.419	12144
927.525	12095
927.631	12152
927.737	12106
927.843	12034
927.95	11958
928.056	12049
928.162	12038
928.267	12019
928.373	12608
928.479	12076
928.585	11794
928.69	11946
928.796	11931
928.901	11935
929.007	11760
929.112	11870
929.218	11859
929.323	11767
929.428	11695
929.533	11912
929.638	11623
929.743	11760
929.848	11794
929.953	11615
930.058	11547
930.163	11429
930.267	11395
930.372	11585
930.477	11360
930.581	11577
930.685	11448
930.79	11383
930.894	11398
930.998	11231
931.103	11444
931.207	11045
931.311	11056
931.415	10892
931.519	10702
931.623	10744
