Data from test_V78500241_702.txt Node
Date: Fri Mar 25 15:14:44 CST 2022
User: usil
Spectrometer: V785-0024
Trigger mode: 0
Integration Time (sec): 4.000000E-1
Scans to average: 1
Nonlinearity correction enabled: false
Boxcar width: 0
Storing dark spectrum: false
XAxis mode: Wavelengths
Number of Pixels in Spectrum: 1024
>>>>>Begin Spectral Data<<<<<
801.071	28021
801.214	27770
801.356	27682
801.499	27633
801.641	27652
801.783	27488
801.926	27603
802.068	27557
802.211	27416
802.353	27245
802.496	27173
802.638	27146
802.78	27135
802.923	27154
803.065	27123
803.208	27184
803.35	27329
803.492	27260
803.635	27283
803.777	27207
803.919	27412
804.061	27454
804.204	27359
804.346	27214
804.488	27264
804.63	27481
804.773	27161
804.915	27264
805.057	27473
805.199	27393
805.341	27462
805.483	27622
805.626	27363
805.768	27450
805.91	27431
806.052	27454
806.194	27492
806.336	27797
806.478	27462
806.62	27469
806.762	27698
806.904	27709
807.046	28048
807.188	27922
807.33	27888
807.472	28010
807.614	27918
807.756	27926
807.898	27892
808.04	27675
808.182	27751
808.324	27827
808.465	27884
808.607	27968
808.749	28086
808.891	28154
809.033	28382
809.174	28097
809.316	28116
809.458	28204
809.6	28226
809.741	28314
809.883	28226
810.025	28443
810.166	28421
810.308	28348
810.45	28508
810.591	28421
810.733	28268
810.875	28139
811.016	27960
811.158	28040
811.299	28303
811.441	28276
811.582	28329
811.724	27998
811.865	28074
812.007	28063
812.148	28211
812.29	28295
812.431	28303
812.573	28451
812.714	28535
812.855	28630
812.997	28778
813.138	28888
813.279	28908
813.421	28797
813.562	28679
813.703	28573
813.845	28367
813.986	28051
814.127	27930
814.268	27926
814.41	27819
814.551	27804
814.692	27991
814.833	27713
814.974	27846
815.115	27911
815.256	27720
815.397	27770
815.539	27736
815.68	27641
815.821	27679
815.962	27686
816.103	27580
816.244	27660
816.385	27378
816.526	27386
816.666	27241
816.807	27104
816.948	27218
817.089	27131
817.23	27275
817.371	27222
817.512	27074
817.653	27119
817.793	27013
817.934	27184
818.075	27306
818.216	27108
818.356	27207
818.497	26994
818.638	26933
818.778	26845
818.919	27001
819.06	27051
819.2	26998
819.341	27192
819.481	27180
819.622	27340
819.762	27629
819.903	27325
820.043	27485
820.184	27340
820.324	27233
820.465	27306
820.605	27211
820.746	27211
820.886	27043
821.026	27112
821.167	27150
821.307	27287
821.447	27192
821.588	27024
821.728	26929
821.868	26819
822.008	26606
822.149	26526
822.289	26442
822.429	26298
822.569	26343
822.709	26332
822.849	26142
822.99	26016
823.13	26122
823.27	26092
823.41	25925
823.55	25849
823.69	25932
823.83	25784
823.97	25947
824.11	25616
824.25	25704
824.389	25776
824.529	25921
824.669	25814
824.809	25909
824.949	25811
825.089	25818
825.228	25898
825.368	25750
825.508	25495
825.648	25582
825.787	25734
825.927	25635
826.067	25624
826.206	25502
826.346	25780
826.485	25715
826.625	25575
826.765	25712
826.904	25723
827.044	25434
827.183	25457
827.323	25274
827.462	25438
827.601	25426
827.741	25301
827.88	25407
828.02	25236
828.159	25426
828.298	25403
828.437	25430
828.577	25396
828.716	25415
828.855	25369
828.994	25023
829.134	25053
829.273	25118
829.412	25050
829.551	24958
829.69	24973
829.829	25156
829.968	25129
830.107	25038
830.246	24977
830.385	24958
830.524	24966
830.663	24837
830.802	24909
830.941	24601
831.08	24612
831.219	24779
831.357	24703
831.496	24886
831.635	24551
831.774	24593
831.913	24521
832.051	24544
832.19	24407
832.329	24467
832.467	24395
832.606	24174
832.744	24224
832.883	24403
833.022	24304
833.16	24327
833.299	24338
833.437	24372
833.576	24426
833.714	24426
833.852	24570
833.991	24452
834.129	24460
834.267	24494
834.406	24361
834.544	24372
834.682	24467
834.821	24441
834.959	24559
835.097	24361
835.235	24418
835.373	24475
835.511	24407
835.65	24239
835.788	24201
835.926	24220
836.064	24011
836.202	24041
836.34	24239
836.478	24296
836.615	24239
836.753	24315
836.891	24372
837.029	24247
837.167	24076
837.305	24125
837.443	24087
837.58	23977
837.718	24060
837.856	23996
837.993	24022
838.131	24140
838.269	24022
838.406	23889
838.544	23927
838.681	23726
838.819	23653
838.956	23551
839.094	23528
839.231	23604
839.369	23676
839.506	23965
839.643	23821
839.781	23452
839.918	23493
840.055	23615
840.193	23474
840.33	23372
840.467	23528
840.604	23436
840.742	23684
840.879	23372
841.016	23322
841.153	23261
841.29	23490
841.427	23531
841.564	23482
841.701	23391
841.838	23444
841.975	23296
842.112	23326
842.249	23288
842.385	23193
842.522	23376
842.659	23151
842.796	23128
842.933	23170
843.069	23166
843.206	23128
843.343	23185
843.479	23174
843.616	23147
843.752	22961
843.889	22930
844.025	23064
844.162	22972
844.298	23003
844.435	22961
844.571	22889
844.708	22995
844.844	23014
844.98	23155
845.117	23090
845.253	22873
845.389	22904
845.525	22854
845.661	22919
845.798	22729
845.934	22847
846.07	22637
846.206	22725
846.342	22702
846.478	22580
846.614	22466
846.75	22325
846.886	22451
847.022	22531
847.158	22493
847.294	22413
847.429	22413
847.565	22405
847.701	22577
847.837	22082
847.972	22124
848.108	22314
848.244	22177
848.379	22192
848.515	21930
848.65	22086
848.786	22032
848.921	22013
849.057	22078
849.192	22093
849.328	22025
849.463	22150
849.598	22013
849.734	21907
849.869	21930
850.004	21720
850.14	21705
850.275	21789
850.41	21728
850.545	21728
850.68	21781
850.815	21880
850.95	21736
851.085	21975
851.22	21964
851.355	21663
851.49	21762
851.625	21774
851.76	21797
851.895	21698
852.03	21698
852.165	21781
852.299	21922
852.434	21816
852.569	21918
852.703	21865
852.838	21854
852.973	21774
853.107	21994
853.242	21762
853.376	21717
853.511	21511
853.645	21504
853.78	21804
853.914	21660
854.048	21587
854.183	21557
854.317	21648
854.451	21812
854.585	21641
854.72	21603
854.854	21751
854.988	21424
855.122	21504
855.256	21481
855.39	21549
855.524	21580
855.658	21603
855.792	21545
855.926	21724
856.06	21622
856.194	21656
856.327	21656
856.461	21583
856.595	21485
856.729	21652
856.862	21751
856.996	21663
857.13	21610
857.263	21671
857.397	21827
857.53	21633
857.664	21519
857.797	21641
857.931	21701
858.064	21709
858.197	21675
858.331	21709
858.464	21641
858.597	21538
858.731	21469
858.864	21557
858.997	21496
859.13	21542
859.263	21656
859.396	21690
859.529	21587
859.662	21549
859.795	21523
859.928	21682
860.061	21648
860.194	21762
860.327	21625
860.46	21686
860.592	21720
860.725	21831
860.858	21819
860.99	21606
861.123	21530
861.256	21633
861.388	21641
861.521	22424
861.653	21576
861.786	21363
861.918	21348
862.05	21435
862.183	21450
862.315	21466
862.447	21622
862.58	21564
862.712	21256
862.844	21336
862.976	21355
863.108	21268
863.24	21743
863.372	21306
863.504	21340
863.636	21226
863.768	21226
863.9	21332
864.032	21287
864.164	21260
864.296	21344
864.428	21287
864.559	21306
864.691	21439
864.823	21306
864.954	21317
865.086	21359
865.217	21302
865.349	21089
865.48	21317
865.612	21249
865.743	21245
865.875	21188
866.006	21150
866.137	21211
866.269	21264
866.4	21161
866.531	21222
866.662	21013
866.793	21169
866.924	21169
867.055	21154
867.186	21146
867.317	21135
867.448	20971
867.579	21096
867.71	21119
867.841	20914
867.972	21211
868.103	21165
868.233	21138
868.364	21096
868.495	21188
868.625	21332
868.756	21439
868.886	21363
869.017	21351
869.147	21408
869.278	21523
869.408	21412
869.539	21272
869.669	21439
869.799	21374
869.929	21443
870.06	21443
870.19	21690
870.32	21477
870.45	21663
870.58	21785
870.71	21854
870.84	21778
870.97	21759
871.1	21743
871.23	21956
871.36	21876
871.489	21797
871.619	21827
871.749	21983
871.879	22051
872.008	22013
872.138	21918
872.267	21934
872.397	21865
872.526	21926
872.656	21759
872.785	21793
872.915	21968
873.044	22006
873.173	21949
873.303	22017
873.432	21991
873.561	22036
873.69	21884
873.819	21987
873.948	21934
874.077	21998
874.206	21861
874.335	22013
874.464	22093
874.593	22177
874.722	22021
874.851	22303
874.979	22207
875.108	22314
875.237	22246
875.365	22090
875.494	22147
875.623	22276
875.751	22063
875.88	22048
876.008	22280
876.136	22382
876.265	22531
876.393	22733
876.521	22653
876.65	22702
876.778	22542
876.906	22523
877.034	22432
877.162	22535
877.29	22542
877.418	22641
877.546	22569
877.674	22546
877.802	22637
877.93	22497
878.058	22443
878.185	22390
878.313	22546
878.441	22470
878.568	22382
878.696	22459
878.824	22523
878.951	22573
879.079	22759
879.206	22828
879.333	22725
879.461	22538
879.588	22630
879.715	22641
879.842	22793
879.97	22550
880.097	22398
880.224	22333
880.351	22318
880.478	22424
880.605	22276
880.732	22363
880.859	22645
880.986	22287
881.112	22329
881.239	22173
881.366	22051
881.493	21983
881.619	21930
881.746	22048
881.872	22017
881.999	21983
882.125	21915
882.252	22070
882.378	22010
882.505	22006
882.631	21789
882.757	21648
882.883	21842
883.01	21671
883.136	21648
883.262	21542
883.388	21477
883.514	21625
883.64	21641
883.766	21610
883.892	21492
884.018	21515
884.143	21515
884.269	21675
884.395	21382
884.52	21233
884.646	21294
884.772	21169
884.897	21169
885.023	21412
885.148	21378
885.274	21466
885.399	21348
885.524	21329
885.65	21374
885.775	21306
885.9	21272
886.025	21336
886.15	21462
886.275	21233
886.4	21207
886.525	21294
886.65	21188
886.775	21237
886.9	21374
887.025	21416
887.149	21226
887.274	21081
887.399	21062
887.523	21116
887.648	20956
887.773	20906
887.897	21119
888.021	21089
888.146	20918
888.27	21081
888.395	21131
888.519	21173
888.643	21135
888.767	21154
888.891	20845
889.015	20921
889.139	20937
889.263	20819
889.387	20971
889.511	21077
889.635	20979
889.759	20845
889.883	20880
890.006	20819
890.13	20925
890.254	20781
890.377	20743
890.501	20655
890.624	20648
890.748	20651
890.871	20518
890.995	20423
891.118	20415
891.241	20495
891.364	20434
891.488	20533
891.611	20507
891.734	20339
891.857	20366
891.98	20324
892.103	20374
892.226	20434
892.349	20339
892.471	20191
892.594	20225
892.717	20385
892.839	20263
892.962	20370
893.085	20438
893.207	20244
893.33	20252
893.452	20237
893.575	20446
893.697	20256
893.819	20476
893.941	20621
894.064	20446
894.186	20218
894.308	20134
894.43	20450
894.552	20385
894.674	20271
894.796	20244
894.918	20298
895.04	20294
895.161	20317
895.283	20480
895.405	20142
895.526	20294
895.648	20282
895.769	20377
895.891	20377
896.012	20362
896.134	20229
896.255	20347
896.376	20343
896.498	20343
896.619	20305
896.74	20275
896.861	20438
896.982	20712
897.103	20796
897.224	20598
897.345	20537
897.466	20438
897.587	20454
897.708	20609
897.828	20492
897.949	20533
898.07	20412
898.19	20423
898.311	20583
898.431	20457
898.552	20530
898.672	20606
898.792	20617
898.913	20549
899.033	20480
899.153	20389
899.273	20374
899.393	20221
899.513	20362
899.633	20309
899.753	20161
899.873	20347
899.993	20298
900.113	20271
900.232	20294
900.352	20199
900.472	20035
900.591	20024
900.711	20149
900.83	20027
900.95	20168
901.069	20134
901.189	19986
901.308	19856
901.427	19674
901.546	19723
901.665	19544
901.784	19734
901.904	19480
902.023	19392
902.141	19213
902.26	19069
902.379	19320
902.498	19129
902.617	19202
902.735	19240
902.854	19012
902.973	19057
903.091	18875
903.21	18840
903.328	18760
903.446	18688
903.565	18612
903.683	18650
903.801	18525
903.919	18684
904.038	18593
904.156	18490
904.274	18445
904.392	18384
904.51	18330
904.627	18270
904.745	18494
904.863	18437
904.981	18296
905.098	18087
905.216	18117
905.334	18114
905.451	18102
905.569	18114
905.686	18148
905.803	18026
905.921	17855
906.038	17992
906.155	17722
906.272	17764
906.389	17843
906.506	17577
906.623	17535
906.74	17596
906.857	17547
906.974	17520
907.091	17585
907.208	17649
907.324	17695
907.441	17471
907.557	17280
907.674	17360
907.79	17337
907.907	17174
908.023	17284
908.139	17383
908.256	17239
908.372	17208
908.488	17162
908.604	17033
908.72	16976
908.836	17071
908.952	16938
909.068	17006
909.184	17136
909.3	17094
909.415	17143
909.531	16991
909.647	16736
909.762	16634
909.878	16729
909.993	16786
910.108	16740
910.224	16649
910.339	16694
910.454	16645
910.57	16592
910.685	16542
910.8	16752
910.915	16725
911.03	16550
911.145	16242
911.259	16322
911.374	16310
911.489	16219
911.604	16215
911.718	16067
911.833	16044
911.947	15945
912.062	15892
912.176	15979
912.291	16021
912.405	16040
912.519	16215
912.633	16272
912.748	16131
912.862	15972
912.976	15926
913.09	15736
913.204	15808
913.318	15823
913.431	15884
913.545	15983
913.659	15937
913.772	15850
913.886	15789
914	15622
914.113	15869
914.226	15793
914.34	15705
914.453	15496
914.566	15762
914.68	15584
914.793	15466
914.906	15336
915.019	15260
915.132	15218
915.245	15214
915.358	15306
915.47	15313
915.583	15264
915.696	15245
915.809	15408
915.921	15443
916.034	15176
916.146	15195
916.259	15169
916.371	15313
916.483	15169
916.595	15199
916.708	15066
916.82	15108
916.932	15127
917.044	14986
917.156	14994
917.268	14853
917.38	14921
917.491	14921
917.603	14868
917.715	15005
917.826	14941
917.938	14826
918.049	14781
918.161	14868
918.272	14944
918.384	14918
918.495	14765
918.606	14727
918.717	14712
918.828	14731
918.939	14754
919.05	14526
919.161	14663
919.272	14476
919.383	14560
919.494	14785
919.604	14807
919.715	14640
919.826	14590
919.936	14610
920.047	14670
920.157	14674
920.267	14910
920.378	14636
920.488	14560
920.598	14712
920.708	14990
920.818	14743
920.928	14716
921.038	14960
921.148	14838
921.258	14606
921.368	14511
921.477	14450
921.587	14343
921.697	14191
921.806	14313
921.916	14221
922.025	14138
922.134	14020
922.244	13982
922.353	14050
922.462	13913
922.571	13708
922.68	13613
922.789	13620
922.898	13700
923.007	13510
923.116	13658
923.224	13567
923.333	13533
923.442	13445
923.55	13377
923.659	13491
923.767	13578
923.876	13468
923.984	13597
924.092	13327
924.201	13480
924.309	13419
924.417	13350
924.525	13327
924.633	13343
924.741	14008
924.849	13175
924.956	13278
925.064	13137
925.172	13053
925.279	13057
925.387	13118
925.494	13031
925.602	13232
925.709	13057
925.816	12958
925.924	12943
926.031	13072
926.138	13008
926.245	13088
926.352	12871
926.459	13050
926.566	13110
926.673	12882
926.779	12863
926.886	12734
926.993	12700
927.099	12749
927.206	12635
927.312	12612
927.419	12646
927.525	12604
927.631	12703
927.737	12536
927.843	12490
927.95	12407
928.056	12426
928.162	12441
928.267	12471
928.373	13095
928.479	12448
928.585	12308
928.69	12456
928.796	12456
928.901	12327
929.007	12148
929.112	12346
929.218	12216
929.323	12186
929.428	12129
929.533	12281
929.638	12163
929.743	12197
929.848	12102
929.953	12079
930.058	12057
930.163	11859
930.267	11748
930.372	11980
930.477	11802
930.581	12007
930.685	11870
930.79	11722
930.894	11695
930.998	11684
931.103	11802
931.207	11505
931.311	11395
931.415	11414
931.519	11136
931.623	11029
