Data from test_V78500241_2448.txt Node
Date: Fri Mar 25 15:26:54 CST 2022
User: usil
Spectrometer: V785-0024
Trigger mode: 0
Integration Time (sec): 4.000000E-1
Scans to average: 1
Nonlinearity correction enabled: false
Boxcar width: 0
Storing dark spectrum: false
XAxis mode: Wavelengths
Number of Pixels in Spectrum: 1024
>>>>>Begin Spectral Data<<<<<
801.071	26990
801.214	27013
801.356	26864
801.499	26891
801.641	26598
801.783	26571
801.926	26682
802.068	26613
802.211	26530
802.353	26465
802.496	26294
802.638	26214
802.78	26271
802.923	26088
803.065	26191
803.208	26054
803.35	26229
803.492	26286
803.635	26404
803.777	26157
803.919	26366
804.061	26648
804.204	26434
804.346	26381
804.488	26214
804.63	26294
804.773	26225
804.915	26332
805.057	26389
805.199	26298
805.341	26423
805.483	26533
805.626	26568
805.768	26564
805.91	26408
806.052	26560
806.194	26438
806.336	26667
806.478	26438
806.62	26347
806.762	26609
806.904	26727
807.046	27020
807.188	26906
807.33	26743
807.472	26971
807.614	26838
807.756	26792
807.898	26788
808.04	26659
808.182	26617
808.324	26800
808.465	26826
808.607	26948
808.749	27055
808.891	27233
809.033	27249
809.174	27161
809.316	27020
809.458	27055
809.6	27085
809.741	27237
809.883	27085
810.025	27306
810.166	27344
810.308	27317
810.45	27382
810.591	27127
810.733	26925
810.875	26982
811.016	27001
811.158	26853
811.299	26967
811.441	27241
811.582	27222
811.724	27020
811.865	27055
812.007	27013
812.148	27047
812.29	27089
812.431	27157
812.573	27222
812.714	27633
812.855	27519
812.997	27690
813.138	27739
813.279	27633
813.421	27534
813.562	27488
813.703	27317
813.845	27275
813.986	26925
814.127	26800
814.268	26746
814.41	26693
814.551	26514
814.692	26823
814.833	26583
814.974	26777
815.115	26739
815.256	26606
815.397	26476
815.539	26727
815.68	26370
815.821	26396
815.962	26530
816.103	26453
816.244	26370
816.385	26336
816.526	26282
816.666	26062
816.807	25989
816.948	25974
817.089	26035
817.23	26024
817.371	26027
817.512	25951
817.653	25951
817.793	25932
817.934	26012
818.075	25799
818.216	26054
818.356	25909
818.497	25807
818.638	25662
818.778	25556
818.919	25616
819.06	25772
819.2	25799
819.341	25921
819.481	25864
819.622	26073
819.762	26278
819.903	26206
820.043	26024
820.184	26122
820.324	26065
820.465	26012
820.605	26103
820.746	25982
820.886	25894
821.026	25959
821.167	25997
821.307	26043
821.447	25982
821.588	25955
821.728	25708
821.868	25491
822.008	25415
822.149	25457
822.289	25506
822.429	25099
822.569	25148
822.709	25145
822.849	24939
822.99	24992
823.13	24985
823.27	25012
823.41	24814
823.55	24627
823.69	24715
823.83	24863
823.97	24722
824.11	24498
824.25	24517
824.389	24559
824.529	24627
824.669	24445
824.809	24646
824.949	24715
825.089	24631
825.228	24593
825.368	24399
825.508	24525
825.648	24433
825.787	24505
825.927	24429
826.067	24346
826.206	24418
826.346	24410
826.485	24262
826.625	24414
826.765	24498
826.904	24597
827.044	24266
827.183	24220
827.323	24133
827.462	24030
827.601	24228
827.741	24060
827.88	24258
828.02	23977
828.159	24117
828.298	24110
828.437	24258
828.577	24144
828.716	24163
828.855	24079
828.994	23908
829.134	23863
829.273	23939
829.412	23775
829.551	23859
829.69	23840
829.829	23904
829.968	23916
830.107	23973
830.246	23950
830.385	23882
830.524	23741
830.663	23695
830.802	23596
830.941	23493
831.08	23444
831.219	23642
831.357	23596
831.496	23646
831.635	23497
831.774	23360
831.913	23284
832.051	23417
832.19	23311
832.329	23250
832.467	23250
832.606	23075
832.744	23052
832.883	23029
833.022	23033
833.16	23094
833.299	23113
833.437	23212
833.576	23204
833.714	23337
833.852	23231
833.991	23277
834.129	23383
834.267	23330
834.406	23254
834.544	23406
834.682	23193
834.821	23181
834.959	23402
835.097	23220
835.235	23288
835.373	23189
835.511	23132
835.65	23098
835.788	23018
835.926	22991
836.064	22911
836.202	22869
836.34	23048
836.478	23083
836.615	23079
836.753	23041
836.891	23128
837.029	23083
837.167	23048
837.305	22976
837.443	22900
837.58	22805
837.718	22984
837.856	22923
837.993	22946
838.131	22953
838.269	22930
838.406	22843
838.544	22702
838.681	22436
838.819	22569
838.956	22375
839.094	22405
839.231	22481
839.369	22637
839.506	22881
839.643	22653
839.781	22497
839.918	22356
840.055	22405
840.193	22371
840.33	22337
840.467	22181
840.604	22394
840.742	22584
840.879	22150
841.016	22295
841.153	22131
841.29	22314
841.427	22344
841.564	22333
841.701	22306
841.838	22265
841.975	22230
842.112	22280
842.249	22147
842.385	22101
842.522	22280
842.659	22093
842.796	21956
842.933	22059
843.069	22025
843.206	21991
843.343	22226
843.479	22139
843.616	22150
843.752	21994
843.889	21770
844.025	22048
844.162	21823
844.298	21816
844.435	21838
844.571	21774
844.708	21873
844.844	22006
844.98	21964
845.117	21945
845.253	21698
845.389	21701
845.525	21732
845.661	21759
845.798	21591
845.934	21686
846.07	21587
846.206	21713
846.342	21762
846.478	21629
846.614	21374
846.75	21203
846.886	21355
847.022	21382
847.158	21443
847.294	21310
847.429	21397
847.565	21363
847.701	21682
847.837	21161
847.972	20975
848.108	21188
848.244	21173
848.379	20963
848.515	20887
848.65	20925
848.786	20895
848.921	20963
849.057	20952
849.192	21138
849.328	21032
849.463	20914
849.598	20857
849.734	20864
849.869	20800
850.004	20762
850.14	20708
850.275	20693
850.41	20689
850.545	20594
850.68	20632
850.815	20705
850.95	20659
851.085	20960
851.22	20765
851.355	20655
851.49	20663
851.625	20682
851.76	20689
851.895	20503
852.03	20629
852.165	20606
852.299	20693
852.434	20724
852.569	20682
852.703	20682
852.838	20697
852.973	20861
853.107	20739
853.242	20693
853.376	20556
853.511	20503
853.645	20499
853.78	20537
853.914	20651
854.048	20530
854.183	20442
854.317	20503
854.451	20750
854.585	20564
854.72	20594
854.854	20625
854.988	20465
855.122	20613
855.256	20446
855.39	20492
855.524	20655
855.658	20575
855.792	20552
855.926	20541
856.06	20526
856.194	20598
856.327	20427
856.461	20415
856.595	20473
856.729	20495
856.862	20644
856.996	20583
857.13	20670
857.263	20560
857.397	20602
857.53	20507
857.664	20575
857.797	20602
857.931	20545
858.064	20659
858.197	20552
858.331	20541
858.464	20492
858.597	20339
858.731	20556
858.864	20537
858.997	20454
859.13	20571
859.263	20530
859.396	20636
859.529	20423
859.662	20537
859.795	20495
859.928	20533
860.061	20667
860.194	20785
860.327	20579
860.46	20590
860.592	20621
860.725	20727
860.858	20678
860.99	20374
861.123	20415
861.256	20347
861.388	20556
861.521	20944
861.653	20393
861.786	20278
861.918	20431
862.05	20473
862.183	20381
862.315	20556
862.447	20571
862.58	20530
862.712	20294
862.844	20275
862.976	20244
863.108	20423
863.24	20587
863.372	20301
863.504	20180
863.636	20237
863.768	20202
863.9	20244
864.032	20077
864.164	20259
864.296	20366
864.428	20408
864.559	20244
864.691	20225
864.823	20240
864.954	20267
865.086	20210
865.217	20218
865.349	20084
865.48	20035
865.612	20244
865.743	20225
865.875	20199
866.006	20035
866.137	20157
866.269	20096
866.4	20145
866.531	20016
866.662	20024
866.793	19963
866.924	20119
867.055	20008
867.186	20084
867.317	20130
867.448	20024
867.579	20020
867.71	20088
867.841	20031
867.972	20050
868.103	20103
868.233	20107
868.364	20145
868.495	20172
868.625	20328
868.756	20415
868.886	20381
869.017	20191
869.147	20431
869.278	20556
869.408	20389
869.539	20385
869.669	20400
869.799	20362
869.929	20400
870.06	20454
870.19	20716
870.32	20731
870.45	20632
870.58	20678
870.71	20804
870.84	20857
870.97	20682
871.1	20735
871.23	20826
871.36	20876
871.489	20853
871.619	20921
871.749	20899
871.879	21066
872.008	20998
872.138	20864
872.267	21043
872.397	20887
872.526	20845
872.656	20754
872.785	20781
872.915	20979
873.044	21032
873.173	20979
873.303	21024
873.432	21009
873.561	21146
873.69	20895
873.819	21036
873.948	20986
874.077	21001
874.206	20891
874.335	20956
874.464	20994
874.593	21176
874.722	21154
874.851	21233
874.979	21184
875.108	21275
875.237	21203
875.365	21070
875.494	21264
875.623	21256
875.751	21214
875.88	21222
876.008	21386
876.136	21367
876.265	21542
876.393	21690
876.521	21694
876.65	21663
876.778	21553
876.906	21629
877.034	21526
877.162	21583
877.29	21466
877.418	21500
877.546	21382
877.674	21564
877.802	21660
877.93	21549
878.058	21545
878.185	21485
878.313	21595
878.441	21519
878.568	21416
878.696	21538
878.824	21648
878.951	21675
879.079	21759
879.206	21785
879.333	21774
879.461	21553
879.588	21720
879.715	21690
879.842	21751
879.97	21633
880.097	21504
880.224	21435
880.351	21424
880.478	21408
880.605	21389
880.732	21317
880.859	21660
880.986	21367
881.112	21454
881.239	21378
881.366	21157
881.493	21074
881.619	20975
881.746	20944
881.872	20925
881.999	21005
882.125	20956
882.252	21047
882.378	20937
882.505	21116
882.631	20914
882.757	20746
882.883	20830
883.01	20708
883.136	20632
883.262	20579
883.388	20457
883.514	20720
883.64	20712
883.766	20533
883.892	20492
884.018	20549
884.143	20552
884.269	20830
884.395	20450
884.52	20404
884.646	20423
884.772	20259
884.897	20259
885.023	20343
885.148	20419
885.274	20583
885.399	20431
885.524	20408
885.65	20457
885.775	20336
885.9	20347
886.025	20461
886.15	20385
886.275	20362
886.4	20229
886.525	20298
886.65	20278
886.775	20218
886.9	20374
887.025	20404
887.149	20263
887.274	20187
887.399	20115
887.523	20077
887.648	20172
887.773	20065
887.897	20202
888.021	20214
888.146	20012
888.27	20237
888.395	20240
888.519	20233
888.643	20130
888.767	20142
888.891	20039
889.015	19944
889.139	19978
889.263	19902
889.387	20005
889.511	20024
889.635	20012
889.759	19959
889.883	19921
890.006	19989
890.13	20016
890.254	19841
890.377	19947
890.501	19822
890.624	19704
890.748	19811
890.871	19495
890.995	19457
891.118	19506
891.241	19586
891.364	19529
891.488	19670
891.611	19552
891.734	19419
891.857	19468
891.98	19518
892.103	19632
892.226	19464
892.349	19415
892.471	19282
892.594	19449
892.717	19419
892.839	19362
892.962	19384
893.085	19552
893.207	19491
893.33	19263
893.452	19209
893.575	19514
893.697	19411
893.819	19552
893.941	19582
894.064	19487
894.186	19377
894.308	19346
894.43	19468
894.552	19575
894.674	19578
894.796	19346
894.918	19377
895.04	19430
895.161	19476
895.283	19373
895.405	19358
895.526	19407
895.648	19491
895.769	19483
895.891	19426
896.012	19438
896.134	19533
896.255	19339
896.376	19415
896.498	19415
896.619	19327
896.74	19441
896.861	19559
896.982	19772
897.103	19807
897.224	19696
897.345	19700
897.466	19586
897.587	19548
897.708	19757
897.828	19738
897.949	19575
898.07	19502
898.19	19559
898.311	19769
898.431	19651
898.552	19696
898.672	19723
898.792	19719
898.913	19803
899.033	19548
899.153	19365
899.273	19297
899.393	19346
899.513	19556
899.633	19472
899.753	19426
899.873	19422
899.993	19464
900.113	19369
900.232	19381
900.352	19187
900.472	19137
900.591	19171
900.711	19255
900.83	19118
900.95	19236
901.069	19236
901.189	18962
901.308	18871
901.427	18821
901.546	18882
901.665	18882
901.784	18681
901.904	18658
902.023	18525
902.141	18422
902.26	18365
902.379	18369
902.498	18311
902.617	18220
902.735	18384
902.854	18194
902.973	18194
903.091	18041
903.21	17999
903.328	17950
903.446	17969
903.565	17863
903.683	17904
903.801	17623
903.919	17786
904.038	17813
904.156	17665
904.274	17653
904.392	17539
904.51	17627
904.627	17532
904.745	17649
904.863	17589
904.981	17349
905.098	17330
905.216	17269
905.334	17414
905.451	17341
905.569	17204
905.686	17360
905.803	17311
905.921	17056
906.038	17216
906.155	17052
906.272	16889
906.389	16847
906.506	16820
906.623	16889
906.74	16828
906.857	16641
906.974	16653
907.091	16694
907.208	17041
907.324	16831
907.441	16736
907.557	16618
907.674	16440
907.79	16440
907.907	16481
908.023	16596
908.139	16653
908.256	16462
908.372	16432
908.488	16363
908.604	16253
908.72	16200
908.836	16314
908.952	16200
909.068	16238
909.184	16303
909.3	16276
909.415	16337
909.531	16287
909.647	15922
909.762	15941
909.878	15869
909.993	16036
910.108	15937
910.224	15892
910.339	15907
910.454	15835
910.57	15755
910.685	15720
910.8	15972
910.915	15899
911.03	15835
911.145	15507
911.259	15587
911.374	15462
911.489	15469
911.604	15469
911.718	15374
911.833	15435
911.947	15192
912.062	15146
912.176	15310
912.291	15260
912.405	15233
912.519	15469
912.633	15439
912.748	15279
912.862	15237
912.976	15116
913.09	14998
913.204	15066
913.318	15142
913.431	15203
913.545	15142
913.659	15275
913.772	15001
913.886	14990
914	15024
914.113	15081
914.226	15062
914.34	15039
914.453	14883
914.566	14933
914.68	14944
914.793	14861
914.906	14663
915.019	14583
915.132	14476
915.245	14606
915.358	14598
915.47	14541
915.583	14636
915.696	14613
915.809	14720
915.921	14644
916.034	14488
916.146	14442
916.259	14480
916.371	14507
916.483	14560
916.595	14427
916.708	14431
916.82	14381
916.932	14412
917.044	14351
917.156	14385
917.268	14153
917.38	14301
917.491	14180
917.603	14267
917.715	14370
917.826	14271
917.938	14161
918.049	14065
918.161	14161
918.272	14248
918.384	14263
918.495	14282
918.606	14024
918.717	14001
918.828	14100
918.939	14096
919.05	13898
919.161	14069
919.272	13746
919.383	13879
919.494	14077
919.604	14206
919.715	13936
919.826	13982
919.936	13974
920.047	14054
920.157	13978
920.267	14164
920.378	14008
920.488	14016
920.598	14096
920.708	14237
920.818	14157
920.928	14134
921.038	14225
921.148	14214
921.258	13925
921.368	13837
921.477	13757
921.587	13757
921.697	13620
921.806	13712
921.916	13681
922.025	13487
922.134	13377
922.244	13350
922.353	13373
922.462	13236
922.571	13137
922.68	13046
922.789	13137
922.898	13076
923.007	12935
923.116	13031
923.224	12977
923.333	12951
923.442	12966
923.55	12954
923.659	12871
923.767	12905
923.876	12852
923.984	12913
924.092	12726
924.201	12852
924.309	12848
924.417	12711
924.525	12608
924.633	12711
924.741	13567
924.849	12555
924.956	12700
925.064	12494
925.172	12437
925.279	12528
925.387	12578
925.494	12448
925.602	12578
925.709	12490
925.816	12323
925.924	12410
926.031	12521
926.138	12327
926.245	12464
926.352	12350
926.459	12471
926.566	12509
926.673	12376
926.779	12178
926.886	12216
926.993	12114
927.099	12064
927.206	11988
927.312	12011
927.419	12167
927.525	12045
927.631	12136
927.737	11904
927.843	11843
927.95	11836
928.056	11817
928.162	11843
928.267	11901
928.373	12445
928.479	11923
928.585	11756
928.69	11897
928.796	11863
928.901	11783
929.007	11699
929.112	11767
929.218	11680
929.323	11676
929.428	11592
929.533	11646
929.638	11543
929.743	11630
929.848	11615
929.953	11581
930.058	11455
930.163	11269
930.267	11356
930.372	11471
930.477	11326
930.581	11497
930.685	11387
930.79	11280
930.894	11277
930.998	11166
931.103	11349
931.207	10995
931.311	10877
931.415	10904
931.519	10672
931.623	10672
