Data from test_V78500241_910.txt Node
Date: Fri Mar 25 15:16:11 CST 2022
User: usil
Spectrometer: V785-0024
Trigger mode: 0
Integration Time (sec): 4.000000E-1
Scans to average: 1
Nonlinearity correction enabled: false
Boxcar width: 0
Storing dark spectrum: false
XAxis mode: Wavelengths
Number of Pixels in Spectrum: 1024
>>>>>Begin Spectral Data<<<<<
801.071	28242
801.214	28150
801.356	27914
801.499	27945
801.641	27637
801.783	27808
801.926	27907
802.068	27850
802.211	27838
802.353	27724
802.496	27492
802.638	27557
802.78	27481
802.923	27397
803.065	27355
803.208	27561
803.35	27507
803.492	27652
803.635	27644
803.777	27485
803.919	27614
804.061	28006
804.204	27663
804.346	27587
804.488	27488
804.63	27652
804.773	27530
804.915	27747
805.057	27804
805.199	27686
805.341	27698
805.483	27789
805.626	27724
805.768	27675
805.91	27747
806.052	27880
806.194	27622
806.336	28044
806.478	27918
806.62	27743
806.762	27888
806.904	28112
807.046	28337
807.188	28215
807.33	28219
807.472	28280
807.614	28124
807.756	28188
807.898	28200
808.04	28006
808.182	28006
808.324	28173
808.465	28158
808.607	28371
808.749	28417
808.891	28451
809.033	28687
809.174	28622
809.316	28459
809.458	28478
809.6	28580
809.741	28649
809.883	28729
810.025	28858
810.166	28763
810.308	28748
810.45	28862
810.591	28729
810.733	28375
810.875	28485
811.016	28299
811.158	28497
811.299	28554
811.441	28557
811.582	28683
811.724	28489
811.865	28440
812.007	28656
812.148	28493
812.29	28508
812.431	28634
812.573	28900
812.714	28984
812.855	29067
812.997	29052
813.138	29402
813.279	29170
813.421	29018
813.562	29136
813.703	28835
813.845	28801
813.986	28535
814.127	28344
814.268	28272
814.41	28200
814.551	28147
814.692	28284
814.833	28093
814.974	28150
815.115	28109
815.256	28150
815.397	28200
815.539	28044
815.68	28051
815.821	27888
815.962	28040
816.103	27949
816.244	27873
816.385	27812
816.526	27766
816.666	27583
816.807	27488
816.948	27614
817.089	27629
817.23	27511
817.371	27507
817.512	27481
817.653	27485
817.793	27469
817.934	27557
818.075	27599
818.216	27424
818.356	27466
818.497	27344
818.638	27340
818.778	27173
818.919	27233
819.06	27359
819.2	27317
819.341	27393
819.481	27618
819.622	27603
819.762	27869
819.903	27930
820.043	27644
820.184	27667
820.324	27625
820.465	27724
820.605	27656
820.746	27599
820.886	27599
821.026	27713
821.167	27606
821.307	27591
821.447	27507
821.588	27492
821.728	27325
821.868	27203
822.008	27070
822.149	27062
822.289	26975
822.429	26743
822.569	26693
822.709	26606
822.849	26446
822.99	26564
823.13	26446
823.27	26488
823.41	26358
823.55	26187
823.69	26343
823.83	26252
823.97	26278
824.11	26138
824.25	26172
824.389	26199
824.529	26157
824.669	26225
824.809	26275
824.949	26278
825.089	26229
825.228	26218
825.368	26180
825.508	25982
825.648	26046
825.787	26191
825.927	26161
826.067	25997
826.206	26043
826.346	26077
826.485	26164
826.625	26111
826.765	26130
826.904	26005
827.044	25890
827.183	25826
827.323	25746
827.462	25814
827.601	25826
827.741	25845
827.88	25875
828.02	25719
828.159	25685
828.298	25788
828.437	25826
828.577	25696
828.716	25734
828.855	25696
828.994	25495
829.134	25354
829.273	25552
829.412	25293
829.551	25419
829.69	25441
829.829	25407
829.968	25559
830.107	25578
830.246	25590
830.385	25377
830.524	25297
830.663	25213
830.802	25362
830.941	25046
831.08	24924
831.219	25164
831.357	25236
831.496	25244
831.635	25050
831.774	25122
831.913	25008
832.051	24913
832.19	24863
832.329	24996
832.467	24715
832.606	24825
832.744	24673
832.883	24829
833.022	24654
833.16	24886
833.299	24753
833.437	24768
833.576	24810
833.714	24875
833.852	24886
833.991	24875
834.129	24829
834.267	24920
834.406	24810
834.544	24928
834.682	24867
834.821	24787
834.959	24924
835.097	24779
835.235	24779
835.373	24745
835.511	24825
835.65	24612
835.788	24684
835.926	24532
836.064	24426
836.202	24437
836.34	24715
836.478	24688
836.615	24661
836.753	24551
836.891	24730
837.029	24631
837.167	24540
837.305	24544
837.443	24547
837.58	24388
837.718	24661
837.856	24498
837.993	24342
838.131	24509
838.269	24372
838.406	24273
838.544	24342
838.681	24174
838.819	24098
838.956	24064
839.094	23927
839.231	23920
839.369	24038
839.506	24380
839.643	24102
839.781	23912
839.918	23961
840.055	23904
840.193	23977
840.33	23882
840.467	23965
840.604	23950
840.742	24049
840.879	23718
841.016	23764
841.153	23748
841.29	24060
841.427	23733
841.564	23832
841.701	23847
841.838	23794
841.975	23714
842.112	23691
842.249	23695
842.385	23551
842.522	23828
842.659	23619
842.796	23554
842.933	23668
843.069	23600
843.206	23535
843.343	23604
843.479	23516
843.616	23566
843.752	23467
843.889	23440
844.025	23589
844.162	23307
844.298	23448
844.435	23379
844.571	23265
844.708	23440
844.844	23627
844.98	23539
845.117	23436
845.253	23277
845.389	23227
845.525	23288
845.661	23147
845.798	23044
845.934	23086
846.07	23041
846.206	23128
846.342	23254
846.478	23060
846.614	22908
846.75	22771
846.886	22839
847.022	22957
847.158	22752
847.294	22862
847.429	22881
847.565	22828
847.701	23143
847.837	22577
847.972	22599
848.108	22679
848.244	22721
848.379	22493
848.515	22546
848.65	22481
848.786	22462
848.921	22459
849.057	22504
849.192	22516
849.328	22504
849.463	22405
849.598	22337
849.734	22291
849.869	22341
850.004	22135
850.14	22154
850.275	22162
850.41	22150
850.545	22116
850.68	22196
850.815	22124
850.95	22063
851.085	22329
851.22	22246
851.355	22215
851.49	22131
851.625	22226
851.76	22109
851.895	22090
852.03	22032
852.165	22166
852.299	22299
852.434	22242
852.569	22249
852.703	22166
852.838	22242
852.973	22299
853.107	22394
853.242	22154
853.376	22032
853.511	21846
853.645	22101
853.78	22067
853.914	21998
854.048	21994
854.183	22090
854.317	21960
854.451	22166
854.585	21953
854.72	22036
854.854	22044
854.988	21888
855.122	22067
855.256	21892
855.39	21968
855.524	22067
855.658	22040
855.792	22067
855.926	22150
856.06	22109
856.194	22002
856.327	22051
856.461	22010
856.595	21892
856.729	21941
856.862	22196
856.996	22017
857.13	22120
857.263	22188
857.397	22025
857.53	21998
857.664	22063
857.797	22086
857.931	22078
858.064	22139
858.197	22143
858.331	21934
858.464	21934
858.597	21861
858.731	21911
858.864	21998
858.997	21979
859.13	22063
859.263	21949
859.396	22040
859.529	21850
859.662	21892
859.795	21915
859.928	21964
860.061	22207
860.194	22150
860.327	22082
860.46	22131
860.592	22139
860.725	22185
860.858	22051
860.99	22112
861.123	22044
861.256	21907
861.388	21983
861.521	22805
861.653	22036
861.786	21720
861.918	21876
862.05	21972
862.183	21941
862.315	21873
862.447	21968
862.58	21956
862.712	21751
862.844	21675
862.976	21785
863.108	21717
863.24	22040
863.372	21564
863.504	21682
863.636	21686
863.768	21774
863.9	21686
864.032	21641
864.164	21816
864.296	21717
864.428	21800
864.559	21812
864.691	21709
864.823	21785
864.954	21705
865.086	21625
865.217	21606
865.349	21473
865.48	21622
865.612	21614
865.743	21610
865.875	21587
866.006	21561
866.137	21660
866.269	21595
866.4	21515
866.531	21450
866.662	21439
866.793	21538
866.924	21469
867.055	21504
867.186	21485
867.317	21538
867.448	21363
867.579	21561
867.71	21496
867.841	21359
867.972	21450
868.103	21458
868.233	21633
868.364	21488
868.495	21656
868.625	21717
868.756	21975
868.886	21694
869.017	21751
869.147	21686
869.278	21812
869.408	21739
869.539	21694
869.669	21770
869.799	21778
869.929	21911
870.06	21797
870.19	22116
870.32	21979
870.45	22078
870.58	22173
870.71	22318
870.84	22272
870.97	22135
871.1	22211
871.23	22341
871.36	22360
871.489	22128
871.619	22246
871.749	22398
871.879	22386
872.008	22565
872.138	22386
872.267	22341
872.397	22185
872.526	22177
872.656	22131
872.785	22211
872.915	22371
873.044	22417
873.173	22314
873.303	22295
873.432	22409
873.561	22436
873.69	22287
873.819	22356
873.948	22413
874.077	22436
874.206	22318
874.335	22341
874.464	22531
874.593	22596
874.722	22683
874.851	22626
874.979	22626
875.108	22557
875.237	22538
875.365	22596
875.494	22542
875.623	22626
875.751	22527
875.88	22588
876.008	22752
876.136	22691
876.265	22991
876.393	23029
876.521	23029
876.65	22991
876.778	22927
876.906	22991
877.034	22831
877.162	22908
877.29	22930
877.418	22828
877.546	22919
877.674	22972
877.802	22820
877.93	22965
878.058	22968
878.185	22843
878.313	22938
878.441	22805
878.568	22755
878.696	23086
878.824	23025
878.951	23018
879.079	23109
879.206	23178
879.333	23189
879.461	22927
879.588	23060
879.715	23052
879.842	23151
879.97	22984
880.097	22702
880.224	22767
880.351	22774
880.478	22752
880.605	22691
880.732	22717
880.859	22885
880.986	22790
881.112	22748
881.239	22687
881.366	22508
881.493	22360
881.619	22405
881.746	22348
881.872	22211
881.999	22249
882.125	22249
882.252	22356
882.378	22310
882.505	22500
882.631	22162
882.757	22013
882.883	22086
883.01	21972
883.136	21892
883.262	21903
883.388	21850
883.514	22021
883.64	22055
883.766	21968
883.892	21854
884.018	21789
884.143	21922
884.269	22048
884.395	21816
884.52	21557
884.646	21595
884.772	21572
884.897	21564
885.023	21675
885.148	21709
885.274	21876
885.399	21774
885.524	21557
885.65	21644
885.775	21679
885.9	21587
886.025	21755
886.15	21663
886.275	21538
886.4	21561
886.525	21545
886.65	21526
886.775	21481
886.9	21835
887.025	21812
887.149	21568
887.274	21488
887.399	21431
887.523	21359
887.648	21256
887.773	21272
887.897	21401
888.021	21492
888.146	21329
888.27	21511
888.395	21549
888.519	21473
888.643	21367
888.767	21408
888.891	21192
889.015	21233
889.139	21245
889.263	21199
889.387	21268
889.511	21443
889.635	21382
889.759	21123
889.883	21146
890.006	21207
890.13	21306
890.254	21142
890.377	21169
890.501	21024
890.624	20963
890.748	21081
890.871	20883
890.995	20746
891.118	20708
891.241	20739
891.364	20864
891.488	20910
891.611	20750
891.734	20811
891.857	20838
891.98	20830
892.103	20792
892.226	20735
892.349	20674
892.471	20530
892.594	20712
892.717	20716
892.839	20575
892.962	20556
893.085	20579
893.207	20655
893.33	20461
893.452	20533
893.575	20811
893.697	20625
893.819	20826
893.941	20857
894.064	20724
894.186	20537
894.308	20537
894.43	20762
894.552	20758
894.674	20724
894.796	20503
894.918	20678
895.04	20514
895.161	20701
895.283	20686
895.405	20636
895.526	20655
895.648	20533
895.769	20560
895.891	20708
896.012	20674
896.134	20762
896.255	20571
896.376	20594
896.498	20705
896.619	20686
896.74	20712
896.861	20587
896.982	20895
897.103	21062
897.224	20902
897.345	20754
897.466	20735
897.587	20750
897.708	20925
897.828	20861
897.949	20815
898.07	20655
898.19	20712
898.311	20960
898.431	20762
898.552	20819
898.672	21005
898.792	20941
898.913	20781
899.033	20731
899.153	20587
899.273	20533
899.393	20678
899.513	20621
899.633	20640
899.753	20564
899.873	20587
899.993	20617
900.113	20495
900.232	20518
900.352	20590
900.472	20412
900.591	20377
900.711	20389
900.83	20347
900.95	20419
901.069	20469
901.189	20168
901.308	19936
901.427	19951
901.546	19917
901.665	19955
901.784	20005
901.904	19772
902.023	19795
902.141	19616
902.26	19525
902.379	19601
902.498	19411
902.617	19487
902.735	19575
902.854	19346
902.973	19327
903.091	19141
903.21	19133
903.328	19099
903.446	19034
903.565	18821
903.683	18844
903.801	18848
903.919	18821
904.038	18806
904.156	18627
904.274	18745
904.392	18585
904.51	18631
904.627	18654
904.745	18730
904.863	18661
904.981	18456
905.098	18319
905.216	18213
905.334	18414
905.451	18403
905.569	18311
905.686	18407
905.803	18365
905.921	18174
906.038	18220
906.155	18216
906.272	17992
906.389	18083
906.506	17893
906.623	17988
906.74	17802
906.857	17722
906.974	17885
907.091	17916
907.208	17942
907.324	17889
907.441	17703
907.557	17615
907.674	17566
907.79	17524
907.907	17493
908.023	17615
908.139	17493
908.256	17604
908.372	17444
908.488	17471
908.604	17360
908.72	17330
908.836	17330
908.952	17269
909.068	17299
909.184	17417
909.3	17277
909.415	17292
909.531	17330
909.647	17045
909.762	16972
909.878	17060
909.993	17075
910.108	17033
910.224	16854
910.339	16930
910.454	16786
910.57	16774
910.685	16675
910.8	17003
910.915	16908
911.03	16774
911.145	16653
911.259	16554
911.374	16592
911.489	16462
911.604	16443
911.718	16333
911.833	16299
911.947	16211
912.062	16120
912.176	16188
912.291	16242
912.405	16284
912.519	16474
912.633	16432
912.748	16375
912.862	16337
912.976	16093
913.09	16002
913.204	16112
913.318	16154
913.431	16223
913.545	16185
913.659	16253
913.772	16059
913.886	16006
914	15903
914.113	15994
914.226	15945
914.34	15899
914.453	15819
914.566	16078
914.68	15831
914.793	15785
914.906	15629
915.019	15469
915.132	15587
915.245	15526
915.358	15644
915.47	15553
915.583	15519
915.696	15526
915.809	15641
915.921	15660
916.034	15443
916.146	15332
916.259	15389
916.371	15428
916.483	15428
916.595	15348
916.708	15351
916.82	15317
916.932	15302
917.044	15192
917.156	15264
917.268	15207
917.38	15150
917.491	15097
917.603	15108
917.715	15268
917.826	15279
917.938	15154
918.049	15051
918.161	15131
918.272	15302
918.384	15313
918.495	15142
918.606	14937
918.717	14861
918.828	14952
918.939	14929
919.05	14796
919.161	14925
919.272	14689
919.383	14735
919.494	14929
919.604	15032
919.715	14830
919.826	14765
919.936	14944
920.047	14876
920.157	14800
920.267	15062
920.378	14876
920.488	14838
920.598	15009
920.708	15112
920.818	14952
920.928	15028
921.038	15180
921.148	14975
921.258	14872
921.368	14792
921.477	14564
921.587	14644
921.697	14507
921.806	14492
921.916	14469
922.025	14278
922.134	14263
922.244	14058
922.353	14275
922.462	14161
922.571	14081
922.68	13894
922.789	13932
922.898	13963
923.007	13822
923.116	13898
923.224	13837
923.333	13830
923.442	13811
923.55	13750
923.659	13822
923.767	13681
923.876	13586
923.984	13769
924.092	13540
924.201	13597
924.309	13590
924.417	13525
924.525	13499
924.633	13495
924.741	14324
924.849	13377
924.956	13453
925.064	13289
925.172	13244
925.279	13278
925.387	13240
925.494	13289
925.602	13392
925.709	13240
925.816	13187
925.924	13110
926.031	13278
926.138	13232
926.245	13282
926.352	13129
926.459	13285
926.566	13327
926.673	13061
926.779	13061
926.886	13012
926.993	12916
927.099	12852
927.206	12859
927.312	12787
927.419	12814
927.525	12901
927.631	12783
927.737	12757
927.843	12654
927.95	12616
928.056	12589
928.162	12776
928.267	12639
928.373	13217
928.479	12764
928.585	12483
928.69	12559
928.796	12616
928.901	12445
929.007	12414
929.112	12528
929.218	12384
929.323	12365
929.428	12353
929.533	12479
929.638	12224
929.743	12194
929.848	12388
929.953	12308
930.058	12228
930.163	11977
930.267	11954
930.372	12209
930.477	11984
930.581	12220
930.685	12083
930.79	11980
930.894	11942
930.998	11912
931.103	12053
931.207	11695
931.311	11539
931.415	11478
931.519	11318
931.623	11170
