Data from test_V78500241_1580.txt Node
Date: Fri Mar 25 15:20:51 CST 2022
User: usil
Spectrometer: V785-0024
Trigger mode: 0
Integration Time (sec): 4.000000E-1
Scans to average: 1
Nonlinearity correction enabled: false
Boxcar width: 0
Storing dark spectrum: false
XAxis mode: Wavelengths
Number of Pixels in Spectrum: 1024
>>>>>Begin Spectral Data<<<<<
801.071	27762
801.214	27671
801.356	27389
801.499	27393
801.641	27230
801.783	27157
801.926	27275
802.068	27302
802.211	27173
802.353	27074
802.496	26872
802.638	26906
802.78	26815
802.923	26781
803.065	26724
803.208	26796
803.35	26872
803.492	26910
803.635	26975
803.777	26940
803.919	27036
804.061	27378
804.204	27233
804.346	27146
804.488	26963
804.63	27055
804.773	26910
804.915	27032
805.057	27077
805.199	27131
805.341	27169
805.483	27245
805.626	27329
805.768	27161
805.91	27245
806.052	27226
806.194	27036
806.336	27249
806.478	27211
806.62	27241
806.762	27283
806.904	27542
807.046	27633
807.188	27542
807.33	27679
807.472	27500
807.614	27466
807.756	27587
807.898	27515
808.04	27496
808.182	27462
808.324	27530
808.465	27477
808.607	27652
808.749	27709
808.891	27918
809.033	28021
809.174	27736
809.316	27846
809.458	27869
809.6	27762
809.741	27854
809.883	28017
810.025	28105
810.166	28158
810.308	27983
810.45	28048
810.591	28036
810.733	27747
810.875	27903
811.016	27564
811.158	27568
811.299	27884
811.441	27895
811.582	28010
811.724	27747
811.865	27751
812.007	27759
812.148	27759
812.29	27770
812.431	28032
812.573	28120
812.714	28333
812.855	28261
812.997	28440
813.138	28497
813.279	28516
813.421	28390
813.562	28295
813.703	28166
813.845	27941
813.986	27739
814.127	27526
814.268	27538
814.41	27519
814.551	27534
814.692	27515
814.833	27382
814.974	27424
815.115	27492
815.256	27405
815.397	27412
815.539	27504
815.68	27340
815.821	27176
815.962	27252
816.103	27302
816.244	27184
816.385	27028
816.526	27070
816.666	26868
816.807	26785
816.948	26754
817.089	26994
817.23	26811
817.371	26750
817.512	26754
817.653	26724
817.793	26727
817.934	26735
818.075	26830
818.216	26777
818.356	26788
818.497	26640
818.638	26526
818.778	26560
818.919	26518
819.06	26556
819.2	26568
819.341	26727
819.481	26785
819.622	26948
819.762	27108
819.903	26910
820.043	26933
820.184	26872
820.324	26990
820.465	27013
820.605	26929
820.746	26895
820.886	26739
821.026	26952
821.167	26861
821.307	26842
821.447	26678
821.588	26617
821.728	26507
821.868	26461
822.008	26267
822.149	26351
822.289	26183
822.429	26005
822.569	25921
822.709	26077
822.849	25860
822.99	25799
823.13	25719
823.27	25609
823.41	25559
823.55	25434
823.69	25715
823.83	25605
823.97	25578
824.11	25403
824.25	25335
824.389	25403
824.529	25544
824.669	25449
824.809	25502
824.949	25476
825.089	25430
825.228	25392
825.368	25133
825.508	25194
825.648	25183
825.787	25263
825.927	25331
826.067	25190
826.206	25301
826.346	25168
826.485	25206
826.625	25156
826.765	25324
826.904	25381
827.044	25312
827.183	25088
827.323	24981
827.462	24977
827.601	25076
827.741	24962
827.88	25012
828.02	24894
828.159	24954
828.298	24962
828.437	25080
828.577	24924
828.716	25057
828.855	24787
828.994	24825
829.134	24669
829.273	24627
829.412	24726
829.551	24650
829.69	24620
829.829	24673
829.968	24795
830.107	24753
830.246	24642
830.385	24753
830.524	24589
830.663	24604
830.802	24414
830.941	24239
831.08	24300
831.219	24399
831.357	24342
831.496	24589
831.635	24376
831.774	24171
831.913	24159
832.051	24106
832.19	24201
832.329	24190
832.467	23950
832.606	23954
832.744	23973
832.883	23939
833.022	23946
833.16	23965
833.299	24018
833.437	24068
833.576	23961
833.714	23954
833.852	24114
833.991	24041
834.129	24011
834.267	24155
834.406	24007
834.544	24125
834.682	24018
834.821	23984
834.959	24330
835.097	24102
835.235	23942
835.373	24072
835.511	23980
835.65	23958
835.788	23843
835.926	23767
836.064	23676
836.202	23748
836.34	23935
836.478	24007
836.615	23885
836.753	23824
836.891	23988
837.029	23984
837.167	23729
837.305	23855
837.443	23767
837.58	23657
837.718	23786
837.856	23851
837.993	23710
838.131	23805
838.269	23539
838.406	23551
838.544	23512
838.681	23406
838.819	23322
838.956	23052
839.094	23235
839.231	23273
839.369	23341
839.506	23554
839.643	23398
839.781	23128
839.918	23189
840.055	23052
840.193	23174
840.33	22999
840.467	23113
840.604	23109
840.742	23356
840.879	22930
841.016	23140
841.153	22999
841.29	23223
841.427	22957
841.564	23067
841.701	22999
841.838	23018
841.975	22938
842.112	22923
842.249	22923
842.385	22862
842.522	23029
842.659	22862
842.796	22885
842.933	22809
843.069	22854
843.206	22816
843.343	22904
843.479	22881
843.616	22839
843.752	22763
843.889	22721
844.025	22786
844.162	22592
844.298	22736
844.435	22668
844.571	22668
844.708	22675
844.844	22733
844.98	22584
845.117	22649
845.253	22497
845.389	22565
845.525	22561
845.661	22485
845.798	22352
845.934	22314
846.07	22432
846.206	22436
846.342	22424
846.478	22409
846.614	22268
846.75	22059
846.886	22051
847.022	22249
847.158	22090
847.294	22124
847.429	22139
847.565	22055
847.701	22363
847.837	21915
847.972	21785
848.108	21983
848.244	21926
848.379	21759
848.515	21717
848.65	21766
848.786	21717
848.921	21690
849.057	21854
849.192	21663
849.328	21660
849.463	21667
849.598	21656
849.734	21686
849.869	21576
850.004	21568
850.14	21583
850.275	21382
850.41	21496
850.545	21469
850.68	21428
850.815	21549
850.95	21439
851.085	21648
851.22	21618
851.355	21454
851.49	21355
851.625	21462
851.76	21382
851.895	21363
852.03	21367
852.165	21507
852.299	21466
852.434	21450
852.569	21469
852.703	21454
852.838	21515
852.973	21564
853.107	21618
853.242	21386
853.376	21351
853.511	21226
853.645	21268
853.78	21519
853.914	21268
854.048	21169
854.183	21249
854.317	21310
854.451	21481
854.585	21245
854.72	21203
854.854	21348
854.988	21203
855.122	21207
855.256	21146
855.39	21268
855.524	21332
855.658	21336
855.792	21325
855.926	21370
856.06	21431
856.194	21249
856.327	21279
856.461	21180
856.595	21222
856.729	21340
856.862	21351
856.996	21252
857.13	21325
857.263	21279
857.397	21393
857.53	21176
857.664	21340
857.797	21412
857.931	21435
858.064	21355
858.197	21325
858.331	21237
858.464	21336
858.597	21096
858.731	21382
858.864	21237
858.997	21256
859.13	21230
859.263	21359
859.396	21294
859.529	21264
859.662	21344
859.795	21272
859.928	21226
860.061	21401
860.194	21500
860.327	21291
860.46	21264
860.592	21504
860.725	21408
860.858	21245
860.99	21317
861.123	21310
861.256	21138
861.388	21180
861.521	21964
861.653	21173
861.786	21096
861.918	21188
862.05	21127
862.183	21199
862.315	21264
862.447	21302
862.58	21135
862.712	21039
862.844	20971
862.976	21127
863.108	21062
863.24	21389
863.372	21024
863.504	20899
863.636	21131
863.768	20941
863.9	21047
864.032	20887
864.164	21077
864.296	20963
864.428	21043
864.559	21074
864.691	21093
864.823	21074
864.954	20762
865.086	21013
865.217	20937
865.349	20750
865.48	20830
865.612	20800
865.743	21157
865.875	20849
866.006	20906
866.137	20811
866.269	20807
866.4	20872
866.531	20826
866.662	20819
866.793	20807
866.924	20838
867.055	20868
867.186	20910
867.317	20800
867.448	20724
867.579	20781
867.71	20731
867.841	20804
867.972	20796
868.103	20807
868.233	20868
868.364	20868
868.495	20899
868.625	21013
868.756	21089
868.886	21116
869.017	21062
869.147	21207
869.278	21146
869.408	20910
869.539	21043
869.669	21211
869.799	21112
869.929	21241
870.06	21047
870.19	21344
870.32	21306
870.45	21378
870.58	21332
870.71	21561
870.84	21477
870.97	21553
871.1	21405
871.23	21545
871.36	21713
871.489	21599
871.619	21549
871.749	21507
871.879	21660
872.008	21762
872.138	21690
872.267	21606
872.397	21523
872.526	21576
872.656	21469
872.785	21591
872.915	21641
873.044	21854
873.173	21739
873.303	21728
873.432	21663
873.561	21823
873.69	21603
873.819	21698
873.948	21713
874.077	21812
874.206	21622
874.335	21831
874.464	21759
874.593	21956
874.722	21876
874.851	21831
874.979	21975
875.108	21895
875.237	21968
875.365	21705
875.494	21869
875.623	22029
875.751	21892
875.88	21869
876.008	21968
876.136	21949
876.265	22257
876.393	22363
876.521	22341
876.65	22413
876.778	22333
876.906	22219
877.034	22196
877.162	22287
877.29	22181
877.418	22177
877.546	22169
877.674	22246
877.802	22204
877.93	22242
878.058	22143
878.185	21983
878.313	22169
878.441	22169
878.568	22211
878.696	22204
878.824	22131
878.951	22257
879.079	22470
879.206	22557
879.333	22417
879.461	22348
879.588	22291
879.715	22299
879.842	22500
879.97	22367
880.097	22131
880.224	22116
880.351	22131
880.478	22010
880.605	22002
880.732	22002
880.859	22344
880.986	22013
881.112	22101
881.239	21869
881.366	21774
881.493	21724
881.619	21663
881.746	21694
881.872	21842
881.999	21583
882.125	21530
882.252	21660
882.378	21583
882.505	21747
882.631	21549
882.757	21397
882.883	21424
883.01	21340
883.136	21245
883.262	21272
883.388	21127
883.514	21363
883.64	21291
883.766	21249
883.892	21157
884.018	21173
884.143	21386
884.269	21241
884.395	21074
884.52	20944
884.646	20921
884.772	20925
884.897	20918
885.023	21081
885.148	21108
885.274	21184
885.399	21077
885.524	21032
885.65	21024
885.775	21051
885.9	21020
886.025	21093
886.15	21036
886.275	20849
886.4	20956
886.525	20941
886.65	20967
886.775	20986
886.9	21104
887.025	21161
887.149	21036
887.274	20773
887.399	20773
887.523	20872
887.648	20777
887.773	20587
887.897	20708
888.021	20796
888.146	20724
888.27	20712
888.395	20906
888.519	20667
888.643	20773
888.767	20735
888.891	20724
889.015	20545
889.139	20526
889.263	20556
889.387	20689
889.511	20758
889.635	20629
889.759	20503
889.883	20579
890.006	20560
890.13	20670
890.254	20385
890.377	20514
890.501	20343
890.624	20256
890.748	20423
890.871	20183
890.995	20027
891.118	20031
891.241	20138
891.364	20115
891.488	20221
891.611	20149
891.734	20278
891.857	20092
891.98	19989
892.103	20149
892.226	20202
892.349	19909
892.471	19898
892.594	19993
892.717	20050
892.839	20046
892.962	20054
893.085	20107
893.207	19974
893.33	19833
893.452	19997
893.575	20081
893.697	20054
893.819	20142
893.941	20244
894.064	20168
894.186	19947
894.308	19932
894.43	20092
894.552	20168
894.674	20069
894.796	19970
894.918	20088
895.04	19974
895.161	19974
895.283	20046
895.405	20005
895.526	19940
895.648	19944
895.769	20115
895.891	20012
896.012	20073
896.134	20050
896.255	19986
896.376	20081
896.498	20039
896.619	20100
896.74	19967
896.861	19989
896.982	20244
897.103	20396
897.224	20256
897.345	20244
897.466	20252
897.587	20218
897.708	20374
897.828	20347
897.949	20183
898.07	20043
898.19	20195
898.311	20233
898.431	20054
898.552	20240
898.672	20324
898.792	20320
898.913	20252
899.033	20161
899.153	19947
899.273	19986
899.393	19974
899.513	20050
899.633	19963
899.753	19997
899.873	19940
899.993	19974
900.113	19940
900.232	19947
900.352	19913
900.472	19769
900.591	19830
900.711	19841
900.83	19620
900.95	19811
901.069	19883
901.189	19662
901.308	19320
901.427	19407
901.546	19289
901.665	19407
901.784	19335
901.904	19221
902.023	19145
902.141	18882
902.26	19008
902.379	18871
902.498	18852
902.617	18837
902.735	18825
902.854	18783
902.973	18905
903.091	18597
903.21	18460
903.328	18597
903.446	18330
903.565	18388
903.683	18277
903.801	18273
903.919	18262
904.038	18254
904.156	18174
904.274	18159
904.392	18129
904.51	18026
904.627	18072
904.745	18053
904.863	18140
904.981	17927
905.098	17885
905.216	17733
905.334	17832
905.451	17859
905.569	17824
905.686	17824
905.803	17794
905.921	17490
906.038	17615
906.155	17592
906.272	17501
906.389	17509
906.506	17349
906.623	17349
906.74	17330
906.857	17181
906.974	17307
907.091	17463
907.208	17471
907.324	17322
907.441	17227
907.557	17022
907.674	16972
907.79	16984
907.907	17079
908.023	17014
908.139	17056
908.256	16987
908.372	16919
908.488	16915
908.604	16729
908.72	16672
908.836	16854
908.952	16782
909.068	16744
909.184	16843
909.3	16858
909.415	16656
909.531	16702
909.647	16443
909.762	16485
909.878	16451
909.993	16462
910.108	16386
910.224	16394
910.339	16546
910.454	16371
910.57	16318
910.685	16158
910.8	16538
910.915	16447
911.03	16234
911.145	16147
911.259	16139
911.374	16059
911.489	15998
911.604	15994
911.718	15899
911.833	15778
911.947	15698
912.062	15682
912.176	15770
912.291	15747
912.405	15800
912.519	15945
912.633	15987
912.748	15842
912.862	15690
912.976	15633
913.09	15496
913.204	15523
913.318	15599
913.431	15724
913.545	15663
913.659	15709
913.772	15564
913.886	15424
914	15466
914.113	15462
914.226	15538
914.34	15500
914.453	15279
914.566	15515
914.68	15332
914.793	15329
914.906	15138
915.019	14982
915.132	15017
915.245	15009
915.358	15066
915.47	15028
915.583	15085
915.696	15055
915.809	15074
915.921	15135
916.034	15036
916.146	14910
916.259	14887
916.371	15005
916.483	14914
916.595	14830
916.708	14914
916.82	14868
916.932	14861
917.044	14762
917.156	14792
917.268	14610
917.38	14765
917.491	14651
917.603	14701
917.715	14853
917.826	14838
917.938	14549
918.049	14514
918.161	14663
918.272	14720
918.384	14739
918.495	14636
918.606	14549
918.717	14362
918.828	14434
918.939	14419
919.05	14374
919.161	14450
919.272	14301
919.383	14309
919.494	14484
919.604	14659
919.715	14389
919.826	14286
919.936	14415
920.047	14396
920.157	14461
920.267	14659
920.378	14499
920.488	14431
920.598	14507
920.708	14720
920.818	14625
920.928	14514
921.038	14697
921.148	14598
921.258	14309
921.368	14229
921.477	14161
921.587	14161
921.697	13974
921.806	14130
921.916	13928
922.025	13936
922.134	13746
922.244	13727
922.353	13826
922.462	13700
922.571	13548
922.68	13457
922.789	13453
922.898	13430
923.007	13377
923.116	13460
923.224	13434
923.333	13339
923.442	13377
923.55	13251
923.659	13278
923.767	13304
923.876	13240
923.984	13339
924.092	13206
924.201	13152
924.309	13289
924.417	13171
924.525	13076
924.633	13042
924.741	13940
924.849	12966
924.956	13057
925.064	12886
925.172	12863
925.279	12894
925.387	12886
925.494	12798
925.602	12966
925.709	12882
925.816	12734
925.924	12817
926.031	12882
926.138	12833
926.245	12802
926.352	12722
926.459	12806
926.566	12833
926.673	12738
926.779	12551
926.886	12662
926.993	12407
927.099	12410
927.206	12456
927.312	12346
927.419	12585
927.525	12429
927.631	12391
927.737	12365
927.843	12296
927.95	12235
928.056	12224
928.162	12213
928.267	12258
928.373	12878
928.479	12292
928.585	12076
928.69	12152
928.796	12232
928.901	12068
929.007	12026
929.112	12072
929.218	12106
929.323	12057
929.428	11878
929.533	12140
929.638	11870
929.743	11984
929.848	12007
929.953	11783
930.058	11828
930.163	11680
930.267	11672
930.372	11809
930.477	11623
930.581	11859
930.685	11688
930.79	11551
930.894	11570
930.998	11471
931.103	11737
931.207	11296
931.311	11227
931.415	11132
931.519	11025
931.623	10900
