Data from test_V78500241_1079.txt Node
Date: Fri Mar 25 15:17:22 CST 2022
User: usil
Spectrometer: V785-0024
Trigger mode: 0
Integration Time (sec): 4.000000E-1
Scans to average: 1
Nonlinearity correction enabled: false
Boxcar width: 0
Storing dark spectrum: false
XAxis mode: Wavelengths
Number of Pixels in Spectrum: 1024
>>>>>Begin Spectral Data<<<<<
801.071	28280
801.214	28196
801.356	27964
801.499	27838
801.641	27701
801.783	27545
801.926	27831
802.068	27667
802.211	27705
802.353	27591
802.496	27431
802.638	27298
802.78	27325
802.923	27336
803.065	27363
803.208	27329
803.35	27439
803.492	27492
803.635	27561
803.777	27534
803.919	27572
804.061	27842
804.204	27743
804.346	27667
804.488	27553
804.63	27641
804.773	27507
804.915	27694
805.057	27701
805.199	27538
805.341	27739
805.483	27778
805.626	27717
805.768	27713
805.91	27743
806.052	27778
806.194	27660
806.336	27880
806.478	27766
806.62	27751
806.762	27762
806.904	28105
807.046	28257
807.188	28090
807.33	28185
807.472	28249
807.614	28188
807.756	28109
807.898	28090
808.04	27994
808.182	27975
808.324	27991
808.465	28044
808.607	28082
808.749	28318
808.891	28649
809.033	28538
809.174	28466
809.316	28379
809.458	28337
809.6	28291
809.741	28523
809.883	28527
810.025	28573
810.166	28702
810.308	28641
810.45	28588
810.591	28512
810.733	28382
810.875	28207
811.016	28375
811.158	28325
811.299	28573
811.441	28489
811.582	28417
811.724	28421
811.865	28531
812.007	28401
812.148	28424
812.29	28360
812.431	28592
812.573	28740
812.714	28850
812.855	28828
812.997	29170
813.138	29250
813.279	29025
813.421	28896
813.562	28911
813.703	28649
813.845	28778
813.986	28226
814.127	28131
814.268	28238
814.41	27983
814.551	28017
814.692	28067
814.833	27941
814.974	27991
815.115	28116
815.256	27922
815.397	28010
815.539	27930
815.68	27846
815.821	27797
815.962	28128
816.103	27949
816.244	27686
816.385	27587
816.526	27728
816.666	27507
816.807	27405
816.948	27443
817.089	27549
817.23	27568
817.371	27447
817.512	27401
817.653	27443
817.793	27355
817.934	27401
818.075	27431
818.216	27545
818.356	27325
818.497	27256
818.638	27096
818.778	27165
818.919	27306
819.06	27154
819.2	27374
819.341	27443
819.481	27549
819.622	27656
819.762	27641
819.903	27656
820.043	27557
820.184	27504
820.324	27606
820.465	27530
820.605	27682
820.746	27416
820.886	27367
821.026	27469
821.167	27389
821.307	27591
821.447	27397
821.588	27340
821.728	27127
821.868	27017
822.008	26902
822.149	26944
822.289	26880
822.429	26598
822.569	26522
822.709	26644
822.849	26381
822.99	26453
823.13	26469
823.27	26271
823.41	26298
823.55	26138
823.69	26195
823.83	26275
823.97	26210
824.11	26062
824.25	26035
824.389	26062
824.529	26271
824.669	26119
824.809	26259
824.949	26122
825.089	26138
825.228	26096
825.368	25974
825.508	25875
825.648	26005
825.787	25966
825.927	25940
826.067	25986
826.206	25936
826.346	26020
826.485	26024
826.625	25932
826.765	26115
826.904	26001
827.044	25674
827.183	25655
827.323	25666
827.462	25685
827.601	25613
827.741	25776
827.88	25594
828.02	25582
828.159	25662
828.298	25693
828.437	25742
828.577	25620
828.716	25727
828.855	25556
828.994	25411
829.134	25358
829.273	25388
829.412	25381
829.551	25453
829.69	25320
829.829	25487
829.968	25430
830.107	25552
830.246	25289
830.385	25346
830.524	25320
830.663	25297
830.802	25000
830.941	24913
831.08	24981
831.219	25061
831.357	24909
831.496	25297
831.635	25004
831.774	24928
831.913	25027
832.051	24798
832.19	24798
832.329	24856
832.467	24738
832.606	24639
832.744	24582
832.883	24563
833.022	24616
833.16	24627
833.299	24795
833.437	24696
833.576	24730
833.714	24772
833.852	24882
833.991	24814
834.129	24882
834.267	24882
834.406	24730
834.544	24798
834.682	24787
834.821	24650
834.959	24901
835.097	24642
835.235	24738
835.373	24684
835.511	24692
835.65	24608
835.788	24612
835.926	24505
836.064	24467
836.202	24407
836.34	24509
836.478	24734
836.615	24589
836.753	24521
836.891	24745
837.029	24604
837.167	24498
837.305	24559
837.443	24452
837.58	24410
837.718	24448
837.856	24490
837.993	24429
838.131	24323
838.269	24239
838.406	24292
838.544	24182
838.681	24098
838.819	24053
838.956	23790
839.094	23851
839.231	24057
839.369	24072
839.506	24258
839.643	24117
839.781	23927
839.918	23684
840.055	23901
840.193	23794
840.33	23786
840.467	23783
840.604	23870
840.742	24095
840.879	23604
841.016	23760
841.153	23737
841.29	23889
841.427	23657
841.564	23847
841.701	23874
841.838	23775
841.975	23634
842.112	23699
842.249	23676
842.385	23535
842.522	23783
842.659	23592
842.796	23649
842.933	23528
843.069	23467
843.206	23474
843.343	23535
843.479	23566
843.616	23649
843.752	23406
843.889	23250
844.025	23585
844.162	23436
844.298	23471
844.435	23395
844.571	23235
844.708	23421
844.844	23474
844.98	23509
845.117	23398
845.253	23269
845.389	23212
845.525	23208
845.661	23223
845.798	23155
845.934	23185
846.07	23067
846.206	22965
846.342	23254
846.478	23048
846.614	22987
846.75	22672
846.886	22694
847.022	22972
847.158	22793
847.294	22816
847.429	22831
847.565	22683
847.701	23025
847.837	22592
847.972	22634
848.108	22679
848.244	22573
848.379	22535
848.515	22329
848.65	22535
848.786	22470
848.921	22390
849.057	22596
849.192	22451
849.328	22390
849.463	22367
849.598	22474
849.734	22246
849.869	22287
850.004	22097
850.14	22265
850.275	22196
850.41	22086
850.545	22242
850.68	22101
850.815	22223
850.95	22166
851.085	22314
851.22	22204
851.355	22219
851.49	22067
851.625	22169
851.76	22249
851.895	22097
852.03	22090
852.165	22200
852.299	22257
852.434	22207
852.569	22337
852.703	22238
852.838	22196
852.973	22367
853.107	22314
853.242	22188
853.376	22032
853.511	21827
853.645	21987
853.78	22131
853.914	22002
854.048	21895
854.183	21987
854.317	22017
854.451	22135
854.585	21930
854.72	22040
854.854	22128
854.988	21861
855.122	21987
855.256	21915
855.39	22017
855.524	21903
855.658	21930
855.792	22006
855.926	21937
856.06	22051
856.194	22150
856.327	21994
856.461	21937
856.595	21953
856.729	21968
856.862	22002
856.996	22013
857.13	22124
857.263	22086
857.397	22093
857.53	21922
857.664	21983
857.797	22036
857.931	22067
858.064	22010
858.197	22086
858.331	21895
858.464	22002
858.597	21873
858.731	21895
858.864	22025
858.997	21972
859.13	22070
859.263	22029
859.396	21960
859.529	22051
859.662	21785
859.795	21831
859.928	21945
860.061	22090
860.194	22200
860.327	22021
860.46	21998
860.592	22036
860.725	22017
860.858	22070
860.99	21987
861.123	21861
861.256	21869
861.388	21979
861.521	22497
861.653	21831
861.786	21827
861.918	21778
862.05	21857
862.183	21812
862.315	21998
862.447	21945
862.58	22006
862.712	21698
862.844	21652
862.976	21759
863.108	21766
863.24	22322
863.372	21652
863.504	21633
863.636	21713
863.768	21625
863.9	21625
864.032	21660
864.164	21720
864.296	21603
864.428	21755
864.559	21816
864.691	21766
864.823	21679
864.954	21629
865.086	21561
865.217	21553
865.349	21542
865.48	21572
865.612	21545
865.743	21709
865.875	21568
866.006	21625
866.137	21477
866.269	21690
866.4	21511
866.531	21511
866.662	21401
866.793	21431
866.924	21572
867.055	21481
867.186	21393
867.317	21515
867.448	21507
867.579	21500
867.71	21412
867.841	21397
867.972	21568
868.103	21401
868.233	21389
868.364	21591
868.495	21500
868.625	21823
868.756	21747
868.886	21728
869.017	21713
869.147	21751
869.278	21838
869.408	21747
869.539	21728
869.669	21793
869.799	21774
869.929	21895
870.06	21895
870.19	22051
870.32	22013
870.45	22051
870.58	22166
870.71	22280
870.84	22238
870.97	22032
871.1	22154
871.23	22265
871.36	22329
871.489	22325
871.619	22238
871.749	22428
871.879	22344
872.008	22485
872.138	22246
872.267	22360
872.397	22131
872.526	22169
872.656	22166
872.785	22162
872.915	22333
873.044	22538
873.173	22382
873.303	22356
873.432	22443
873.561	22497
873.69	22409
873.819	22261
873.948	22398
874.077	22405
874.206	22261
874.335	22306
874.464	22440
874.593	22717
874.722	22546
874.851	22535
874.979	22519
875.108	22698
875.237	22508
875.365	22386
875.494	22580
875.623	22641
875.751	22565
875.88	22561
876.008	22736
876.136	22752
876.265	22908
876.393	23128
876.521	23064
876.65	22953
876.778	22934
876.906	22930
877.034	22873
877.162	22900
877.29	22862
877.418	22904
877.546	22991
877.674	23018
877.802	22866
877.93	22866
878.058	22904
878.185	22820
878.313	22854
878.441	22881
878.568	22675
878.696	22786
878.824	22885
878.951	23029
879.079	23029
879.206	23151
879.333	22980
879.461	22930
879.588	22934
879.715	23010
879.842	23223
879.97	22900
880.097	22744
880.224	22759
880.351	22790
880.478	22626
880.605	22683
880.732	22679
880.859	22949
880.986	22717
881.112	22672
881.239	22519
881.366	22390
881.493	22287
881.619	22295
881.746	22413
881.872	22287
881.999	22390
882.125	22124
882.252	22413
882.378	22242
882.505	22367
882.631	22067
882.757	21964
882.883	22139
883.01	22032
883.136	21983
883.262	21869
883.388	21797
883.514	22135
883.64	21972
883.766	21968
883.892	21762
884.018	21789
884.143	21888
884.269	22013
884.395	21606
884.52	21614
884.646	21656
884.772	21663
884.897	21504
885.023	21694
885.148	21732
885.274	21720
885.399	21610
885.524	21698
885.65	21663
885.775	21606
885.9	21469
886.025	21663
886.15	21698
886.275	21656
886.4	21477
886.525	21652
886.65	21450
886.775	21583
886.9	21705
887.025	21804
887.149	21644
887.274	21458
887.399	21340
887.523	21363
887.648	21351
887.773	21306
887.897	21439
888.021	21367
888.146	21321
888.27	21382
888.395	21443
888.519	21424
888.643	21374
888.767	21431
888.891	21268
889.015	21264
889.139	21214
889.263	21138
889.387	21287
889.511	21351
889.635	21272
889.759	21169
889.883	21116
890.006	21203
890.13	21306
890.254	21085
890.377	21085
890.501	20891
890.624	20777
890.748	20925
890.871	20967
890.995	20769
891.118	20716
891.241	20872
891.364	20636
891.488	20902
891.611	20689
891.734	20762
891.857	20838
891.98	20765
892.103	20781
892.226	20712
892.349	20682
892.471	20579
892.594	20674
892.717	20651
892.839	20571
892.962	20583
893.085	20689
893.207	20686
893.33	20568
893.452	20476
893.575	20800
893.697	20587
893.819	20800
893.941	20796
894.064	20826
894.186	20438
894.308	20545
894.43	20785
894.552	20663
894.674	20693
894.796	20571
894.918	20587
895.04	20469
895.161	20629
895.283	20606
895.405	20590
895.526	20583
895.648	20590
895.769	20609
895.891	20689
896.012	20667
896.134	20579
896.255	20575
896.376	20556
896.498	20594
896.619	20609
896.74	20560
896.861	20701
896.982	20853
897.103	21093
897.224	20929
897.345	20800
897.466	20872
897.587	20811
897.708	20956
897.828	20788
897.949	20910
898.07	20644
898.19	20739
898.311	20823
898.431	20777
898.552	20830
898.672	20861
898.792	20849
898.913	20845
899.033	20720
899.153	20598
899.273	20514
899.393	20522
899.513	20583
899.633	20480
899.753	20583
899.873	20533
899.993	20590
900.113	20507
900.232	20537
900.352	20248
900.472	20450
900.591	20343
900.711	20320
900.83	20206
900.95	20298
901.069	20339
901.189	20244
901.308	19978
901.427	19944
901.546	19830
901.665	19841
901.784	19906
901.904	19818
902.023	19677
902.141	19544
902.26	19438
902.379	19483
902.498	19403
902.617	19320
902.735	19457
902.854	19358
902.973	19285
903.091	19088
903.21	19008
903.328	19023
903.446	18958
903.565	18947
903.683	18981
903.801	18814
903.919	18707
904.038	18810
904.156	18715
904.274	18768
904.392	18631
904.51	18646
904.627	18642
904.745	18658
904.863	18673
904.981	18479
905.098	18308
905.216	18342
905.334	18353
905.451	18289
905.569	18251
905.686	18372
905.803	18285
905.921	18091
906.038	18243
906.155	18098
906.272	18026
906.389	17999
906.506	17813
906.623	17771
906.74	17764
906.857	17726
906.974	17813
907.091	17882
907.208	17977
907.324	17821
907.441	17699
907.557	17528
907.674	17554
907.79	17512
907.907	17520
908.023	17562
908.139	17509
908.256	17524
908.372	17429
908.488	17459
908.604	17433
908.72	17318
908.836	17242
908.952	17239
909.068	17296
909.184	17299
909.3	17204
909.415	17322
909.531	17258
909.647	17045
909.762	17056
909.878	16999
909.993	16968
910.108	16961
910.224	16953
910.339	16927
910.454	16812
910.57	16805
910.685	16824
910.8	16961
910.915	16839
911.03	16679
911.145	16603
911.259	16481
911.374	16611
911.489	16550
911.604	16421
911.718	16265
911.833	16402
911.947	16192
912.062	16154
912.176	16299
912.291	16284
912.405	16318
912.519	16390
912.633	16508
912.748	16394
912.862	16101
912.976	16139
913.09	16120
913.204	16093
913.318	16048
913.431	16173
913.545	16223
913.659	16276
913.772	16051
913.886	16006
914	15915
914.113	15991
914.226	16013
914.34	15949
914.453	15781
914.566	15911
914.68	15739
914.793	15682
914.906	15500
915.019	15587
915.132	15477
915.245	15428
915.358	15507
915.47	15473
915.583	15477
915.696	15466
915.809	15595
915.921	15603
916.034	15492
916.146	15447
916.259	15405
916.371	15450
916.483	15344
916.595	15367
916.708	15306
916.82	15302
916.932	15310
917.044	15256
917.156	15180
917.268	15081
917.38	15077
917.491	15047
917.603	15192
917.715	15268
917.826	15252
917.938	15077
918.049	14967
918.161	15127
918.272	15119
918.384	15135
918.495	14998
918.606	15013
918.717	14838
918.828	14971
918.939	14811
919.05	14830
919.161	14815
919.272	14655
919.383	14773
919.494	14960
919.604	15195
919.715	14880
919.826	14895
919.936	14830
920.047	14895
920.157	14857
920.267	15024
920.378	14746
920.488	14883
920.598	15051
920.708	15116
920.818	14883
920.928	15047
921.038	15024
921.148	15036
921.258	14781
921.368	14678
921.477	14613
921.587	14568
921.697	14442
921.806	14537
921.916	14355
922.025	14210
922.134	14210
922.244	14172
922.353	14221
922.462	14088
922.571	13955
922.68	13833
922.789	13841
922.898	13963
923.007	13788
923.116	13833
923.224	13830
923.333	13776
923.442	13636
923.55	13643
923.659	13681
923.767	13708
923.876	13586
923.984	13700
924.092	13605
924.201	13658
924.309	13605
924.417	13601
924.525	13540
924.633	13533
924.741	14366
924.849	13304
924.956	13426
925.064	13331
925.172	13187
925.279	13232
925.387	13312
925.494	13266
925.602	13339
925.709	13308
925.816	13225
925.924	13168
926.031	13285
926.138	13110
926.245	13190
926.352	13072
926.459	13171
926.566	13312
926.673	13050
926.779	13012
926.886	12916
926.993	12901
927.099	12817
927.206	12814
927.312	12734
927.419	12867
927.525	12760
927.631	12817
927.737	12673
927.843	12627
927.95	12563
928.056	12639
928.162	12681
928.267	12597
928.373	13278
928.479	12665
928.585	12506
928.69	12551
928.796	12616
928.901	12448
929.007	12350
929.112	12502
929.218	12380
929.323	12403
929.428	12376
929.533	12483
929.638	12239
929.743	12365
929.848	12308
929.953	12262
930.058	12178
930.163	12007
930.267	12038
930.372	12190
930.477	11912
930.581	12300
930.685	12026
930.79	11874
930.894	11923
930.998	11863
931.103	11996
931.207	11623
931.311	11512
931.415	11433
931.519	11406
931.623	11242
