Data from test_V78500241_2410.txt Node
Date: Fri Mar 25 15:26:38 CST 2022
User: usil
Spectrometer: V785-0024
Trigger mode: 0
Integration Time (sec): 4.000000E-1
Scans to average: 1
Nonlinearity correction enabled: false
Boxcar width: 0
Storing dark spectrum: false
XAxis mode: Wavelengths
Number of Pixels in Spectrum: 1024
>>>>>Begin Spectral Data<<<<<
801.071	27211
801.214	27112
801.356	26914
801.499	26872
801.641	26682
801.783	26594
801.926	26705
802.068	26571
802.211	26697
802.353	26484
802.496	26336
802.638	26332
802.78	26172
802.923	26244
803.065	26202
803.208	26180
803.35	26206
803.492	26434
803.635	26423
803.777	26328
803.919	26404
804.061	26769
804.204	26564
804.346	26492
804.488	26389
804.63	26446
804.773	26419
804.915	26480
805.057	26514
805.199	26358
805.341	26461
805.483	26583
805.626	26465
805.768	26571
805.91	26503
806.052	26625
806.194	26488
806.336	26594
806.478	26587
806.62	26533
806.762	26571
806.904	26708
807.046	27058
807.188	26868
807.33	26975
807.472	26960
807.614	26876
807.756	26830
807.898	26724
808.04	26739
808.182	26636
808.324	26868
808.465	26990
808.607	27013
808.749	27017
808.891	27154
809.033	27230
809.174	27116
809.316	27135
809.458	27119
809.6	27165
809.741	27302
809.883	27275
810.025	27367
810.166	27275
810.308	27355
810.45	27416
810.591	27313
810.733	27157
810.875	27077
811.016	26937
811.158	26902
811.299	27203
811.441	27192
811.582	27325
811.724	27123
811.865	27005
812.007	27116
812.148	26967
812.29	27058
812.431	27218
812.573	27275
812.714	27583
812.855	27591
812.997	27671
813.138	27808
813.279	27762
813.421	27622
813.562	27739
813.703	27466
813.845	27363
813.986	26849
814.127	26792
814.268	26807
814.41	26842
814.551	26750
814.692	26819
814.833	26743
814.974	26667
815.115	26781
815.256	26640
815.397	26644
815.539	26636
815.68	26617
815.821	26385
815.962	26712
816.103	26507
816.244	26427
816.385	26305
816.526	26191
816.666	26221
816.807	26088
816.948	25936
817.089	26115
817.23	26065
817.371	26088
817.512	25940
817.653	26062
817.793	26058
817.934	25993
818.075	25963
818.216	26195
818.356	26035
818.497	25902
818.638	25833
818.778	25769
818.919	25719
819.06	25795
819.2	25894
819.341	26031
819.481	26069
819.622	26073
819.762	26278
819.903	26271
820.043	26084
820.184	26187
820.324	26149
820.465	26199
820.605	26081
820.746	26145
820.886	25986
821.026	26259
821.167	26122
821.307	26024
821.447	25951
821.588	26008
821.728	25932
821.868	25700
822.008	25643
822.149	25533
822.289	25514
822.429	25301
822.569	25221
822.709	25187
822.849	25122
822.99	24928
823.13	24973
823.27	24996
823.41	24802
823.55	24654
823.69	24871
823.83	25012
823.97	24764
824.11	24563
824.25	24635
824.389	24635
824.529	24719
824.669	24631
824.809	24745
824.949	24719
825.089	24734
825.228	24711
825.368	24391
825.508	24460
825.648	24346
825.787	24498
825.927	24483
826.067	24521
826.206	24498
826.346	24540
826.485	24456
826.625	24521
826.765	24585
826.904	24570
827.044	24372
827.183	24330
827.323	24201
827.462	24270
827.601	24209
827.741	24152
827.88	24251
828.02	24167
828.159	24304
828.298	24304
828.437	24273
828.577	24285
828.716	24334
828.855	24083
828.994	23942
829.134	23863
829.273	23958
829.412	24060
829.551	23855
829.69	23885
829.829	23946
829.968	23992
830.107	23942
830.246	23939
830.385	23729
830.524	23794
830.663	23710
830.802	23551
830.941	23535
831.08	23398
831.219	23596
831.357	23512
831.496	23786
831.635	23543
831.774	23280
831.913	23376
832.051	23345
832.19	23296
832.329	23330
832.467	23258
832.606	23174
832.744	23170
832.883	23239
833.022	23098
833.16	23265
833.299	23098
833.437	23223
833.576	23269
833.714	23398
833.852	23395
833.991	23280
834.129	23216
834.267	23353
834.406	23315
834.544	23159
834.682	23212
834.821	23250
834.959	23379
835.097	23231
835.235	23326
835.373	23200
835.511	23170
835.65	23132
835.788	23044
835.926	22968
836.064	22877
836.202	22934
836.34	23132
836.478	23178
836.615	23121
836.753	23105
836.891	23060
837.029	23067
837.167	23029
837.305	22953
837.443	23003
837.58	23006
837.718	23052
837.856	22904
837.993	22877
838.131	23090
838.269	22824
838.406	22881
838.544	22797
838.681	22634
838.819	22656
838.956	22428
839.094	22470
839.231	22493
839.369	22664
839.506	22892
839.643	22653
839.781	22424
839.918	22451
840.055	22512
840.193	22519
840.33	22394
840.467	22276
840.604	22470
840.742	22649
840.879	22177
841.016	22287
841.153	22253
841.29	22523
841.427	22299
841.564	22371
841.701	22314
841.838	22295
841.975	22223
842.112	22200
842.249	22166
842.385	22070
842.522	22333
842.659	22215
842.796	22044
842.933	22162
843.069	22097
843.206	22029
843.343	22215
843.479	22078
843.616	22120
843.752	21873
843.889	21903
844.025	22051
844.162	21869
844.298	21945
844.435	21922
844.571	21880
844.708	22010
844.844	22063
844.98	21956
845.117	21941
845.253	21880
845.389	21739
845.525	21911
845.661	21568
845.798	21633
845.934	21652
846.07	21641
846.206	21701
846.342	21785
846.478	21641
846.614	21412
846.75	21325
846.886	21325
847.022	21454
847.158	21325
847.294	21367
847.429	21363
847.565	21226
847.701	21595
847.837	21036
847.972	21100
848.108	21214
848.244	21150
848.379	21062
848.515	20910
848.65	20921
848.786	20956
848.921	20986
849.057	21112
849.192	21142
849.328	20986
849.463	20944
849.598	20853
849.734	20944
849.869	20830
850.004	20705
850.14	20785
850.275	20845
850.41	20587
850.545	20682
850.68	20636
850.815	20663
850.95	20667
851.085	20876
851.22	20899
851.355	20819
851.49	20800
851.625	20590
851.76	20750
851.895	20617
852.03	20632
852.165	20682
852.299	20811
852.434	20777
852.569	20842
852.703	20864
852.838	20792
852.973	20876
853.107	20899
853.242	20705
853.376	20579
853.511	20476
853.645	20396
853.78	20640
853.914	20568
854.048	20499
854.183	20552
854.317	20530
854.451	20838
854.585	20514
854.72	20609
854.854	20625
854.988	20518
855.122	20590
855.256	20598
855.39	20629
855.524	20655
855.658	20518
855.792	20617
855.926	20625
856.06	20613
856.194	20583
856.327	20625
856.461	20545
856.595	20385
856.729	20648
856.862	20758
856.996	20678
857.13	20689
857.263	20617
857.397	20785
857.53	20552
857.664	20625
857.797	20693
857.931	20655
858.064	20602
858.197	20724
858.331	20598
858.464	20518
858.597	20492
858.731	20476
858.864	20625
858.997	20560
859.13	20655
859.263	20651
859.396	20724
859.529	20541
859.662	20480
859.795	20511
859.928	20613
860.061	20697
860.194	20769
860.327	20617
860.46	20644
860.592	20804
860.725	20712
860.858	20537
860.99	20552
861.123	20514
861.256	20556
861.388	20629
861.521	21100
861.653	20358
861.786	20275
861.918	20393
862.05	20385
862.183	20454
862.315	20484
862.447	20530
862.58	20457
862.712	20275
862.844	20233
862.976	20423
863.108	20324
863.24	20648
863.372	20210
863.504	20347
863.636	20233
863.768	20210
863.9	20332
864.032	20214
864.164	20145
864.296	20286
864.428	20476
864.559	20374
864.691	20374
864.823	20355
864.954	20282
865.086	20294
865.217	20214
865.349	20008
865.48	20218
865.612	20187
865.743	20286
865.875	20225
866.006	20244
866.137	20115
866.269	20252
866.4	20214
866.531	20210
866.662	20153
866.793	20073
866.924	20126
867.055	20229
867.186	20084
867.317	20145
867.448	20103
867.579	20126
867.71	20054
867.841	19959
867.972	20218
868.103	20122
868.233	20240
868.364	20187
868.495	20210
868.625	20358
868.756	20404
868.886	20358
869.017	20374
869.147	20446
869.278	20412
869.408	20518
869.539	20377
869.669	20537
869.799	20393
869.929	20537
870.06	20473
870.19	20606
870.32	20655
870.45	20590
870.58	20883
870.71	20910
870.84	20899
870.97	20796
871.1	20754
871.23	20956
871.36	20956
871.489	20925
871.619	20868
871.749	21039
871.879	20998
872.008	21039
872.138	21032
872.267	21009
872.397	20864
872.526	20731
872.656	20796
872.785	20845
872.915	20918
873.044	21070
873.173	21024
873.303	21100
873.432	21020
873.561	21070
873.69	20975
873.819	21112
873.948	21032
874.077	21089
874.206	21001
874.335	21070
874.464	21233
874.593	21287
874.722	21142
874.851	21192
874.979	21176
875.108	21226
875.237	21264
875.365	21146
875.494	21077
875.623	21211
875.751	21264
875.88	21268
876.008	21287
876.136	21378
876.265	21637
876.393	21724
876.521	21599
876.65	21648
876.778	21812
876.906	21652
877.034	21656
877.162	21629
877.29	21606
877.418	21587
877.546	21606
877.674	21496
877.802	21545
877.93	21542
878.058	21564
878.185	21545
878.313	21618
878.441	21622
878.568	21504
878.696	21553
878.824	21675
878.951	21770
879.079	21724
879.206	21953
879.333	21720
879.461	21728
879.588	21652
879.715	21660
879.842	21827
879.97	21568
880.097	21412
880.224	21283
880.351	21473
880.478	21397
880.605	21306
880.732	21435
880.859	21694
880.986	21401
881.112	21359
881.239	21264
881.366	21161
881.493	21176
881.619	20960
881.746	21009
881.872	21066
881.999	20921
882.125	20933
882.252	21074
882.378	20990
882.505	21127
882.631	20773
882.757	20746
882.883	20727
883.01	20659
883.136	20632
883.262	20590
883.388	20507
883.514	20682
883.64	20625
883.766	20613
883.892	20492
884.018	20503
884.143	20750
884.269	20804
884.395	20454
884.52	20218
884.646	20415
884.772	20454
884.897	20263
885.023	20347
885.148	20476
885.274	20499
885.399	20457
885.524	20404
885.65	20381
885.775	20301
885.9	20511
886.025	20347
886.15	20393
886.275	20324
886.4	20271
886.525	20355
886.65	20263
886.775	20290
886.9	20366
887.025	20522
887.149	20374
887.274	20081
887.399	20157
887.523	20153
887.648	20031
887.773	20172
887.897	20138
888.021	20248
888.146	20001
888.27	20252
888.395	20233
888.519	20183
888.643	20115
888.767	20149
888.891	20005
889.015	19921
889.139	20126
889.263	19856
889.387	20103
889.511	20233
889.635	20119
889.759	19841
889.883	19841
890.006	19947
890.13	20058
890.254	19864
890.377	19833
890.501	19719
890.624	19677
890.748	19780
890.871	19578
890.995	19540
891.118	19468
891.241	19571
891.364	19632
891.488	19655
891.611	19586
891.734	19521
891.857	19537
891.98	19616
892.103	19643
892.226	19468
892.349	19434
892.471	19384
892.594	19301
892.717	19308
892.839	19324
892.962	19514
893.085	19525
893.207	19438
893.33	19225
893.452	19339
893.575	19343
893.697	19335
893.819	19639
893.941	19708
894.064	19521
894.186	19320
894.308	19354
894.43	19582
894.552	19537
894.674	19613
894.796	19362
894.918	19335
895.04	19331
895.161	19491
895.283	19540
895.405	19324
895.526	19362
895.648	19396
895.769	19457
895.891	19445
896.012	19430
896.134	19460
896.255	19422
896.376	19426
896.498	19419
896.619	19601
896.74	19480
896.861	19499
896.982	19681
897.103	19883
897.224	19677
897.345	19685
897.466	19514
897.587	19693
897.708	19799
897.828	19757
897.949	19533
898.07	19556
898.19	19651
898.311	19849
898.431	19605
898.552	19647
898.672	19757
898.792	19719
898.913	19601
899.033	19616
899.153	19491
899.273	19460
899.393	19468
899.513	19453
899.633	19464
899.753	19499
899.873	19430
899.993	19525
900.113	19381
900.232	19365
900.352	19339
900.472	19278
900.591	19156
900.711	19301
900.83	19145
900.95	19297
901.069	19346
901.189	18996
901.308	18802
901.427	18753
901.546	18920
901.665	18837
901.784	18798
901.904	18715
902.023	18585
902.141	18407
902.26	18327
902.379	18399
902.498	18315
902.617	18407
902.735	18410
902.854	18319
902.973	18224
903.091	18076
903.21	18015
903.328	17889
903.446	17946
903.565	17901
903.683	17771
903.801	17714
903.919	17672
904.038	17760
904.156	17707
904.274	17646
904.392	17695
904.51	17592
904.627	17600
904.745	17581
904.863	17592
904.981	17337
905.098	17261
905.216	17349
905.334	17307
905.451	17364
905.569	17269
905.686	17334
905.803	17239
905.921	17090
906.038	17178
906.155	17102
906.272	16938
906.389	16946
906.506	16869
906.623	16908
906.74	16816
906.857	16733
906.974	16618
907.091	16725
907.208	16873
907.324	16828
907.441	16771
907.557	16500
907.674	16622
907.79	16550
907.907	16455
908.023	16550
908.139	16443
908.256	16554
908.372	16516
908.488	16440
908.604	16382
908.72	16154
908.836	16280
908.952	16265
909.068	16246
909.184	16451
909.3	16295
909.415	16398
909.531	16230
909.647	16044
909.762	16021
909.878	15899
909.993	16032
910.108	15983
910.224	15964
910.339	15873
910.454	15774
910.57	15789
910.685	15724
910.8	16013
910.915	15888
911.03	15827
911.145	15675
911.259	15660
911.374	15633
911.489	15549
911.604	15534
911.718	15321
911.833	15370
911.947	15222
912.062	15127
912.176	15321
912.291	15283
912.405	15317
912.519	15454
912.633	15614
912.748	15393
912.862	15317
912.976	15260
913.09	15024
913.204	15093
913.318	15230
913.431	15195
913.545	15180
913.659	15230
913.772	15108
913.886	15131
914	14918
914.113	15020
914.226	15013
914.34	14975
914.453	14880
914.566	14937
914.68	14933
914.793	14705
914.906	14644
915.019	14571
915.132	14480
915.245	14575
915.358	14610
915.47	14571
915.583	14606
915.696	14579
915.809	14777
915.921	14708
916.034	14571
916.146	14545
916.259	14431
916.371	14530
916.483	14560
916.595	14374
916.708	14366
916.82	14408
916.932	14385
917.044	14347
917.156	14366
917.268	14172
917.38	14320
917.491	14271
917.603	14237
917.715	14244
917.826	14244
917.938	14168
918.049	14092
918.161	14237
918.272	14282
918.384	14210
918.495	14225
918.606	14001
918.717	14016
918.828	14043
918.939	14073
919.05	13986
919.161	13982
919.272	13769
919.383	13860
919.494	13974
919.604	14252
919.715	13989
919.826	13982
919.936	13970
920.047	14035
920.157	14081
920.267	14256
920.378	13986
920.488	13970
920.598	14157
920.708	14263
920.818	14084
920.928	14111
921.038	14317
921.148	14202
921.258	13925
921.368	13845
921.477	13784
921.587	13753
921.697	13693
921.806	13765
921.916	13540
922.025	13491
922.134	13289
922.244	13324
922.353	13362
922.462	13327
922.571	13168
922.68	13110
922.789	13091
922.898	13027
923.007	13072
923.116	13061
923.224	13046
923.333	12966
923.442	12871
923.55	12817
923.659	12856
923.767	12966
923.876	12829
923.984	12970
924.092	12787
924.201	12749
924.309	12928
924.417	12810
924.525	12719
924.633	12787
924.741	13601
924.849	12574
924.956	12696
925.064	12479
925.172	12429
925.279	12464
925.387	12513
925.494	12452
925.602	12540
925.709	12506
925.816	12357
925.924	12330
926.031	12502
926.138	12414
926.245	12483
926.352	12365
926.459	12464
926.566	12475
926.673	12353
926.779	12182
926.886	12281
926.993	12125
927.099	12011
927.206	12026
927.312	12091
927.419	12155
927.525	12003
927.631	12022
927.737	11920
927.843	11908
927.95	11836
928.056	11954
928.162	11897
928.267	11958
928.373	12574
928.479	12041
928.585	11710
928.69	11809
928.796	11885
928.901	11752
929.007	11623
929.112	11722
929.218	11714
929.323	11646
929.428	11619
929.533	11745
929.638	11615
929.743	11646
929.848	11577
929.953	11562
930.058	11501
930.163	11326
930.267	11311
930.372	11368
930.477	11208
930.581	11543
930.685	11387
930.79	11178
930.894	11334
930.998	11147
931.103	11341
931.207	10995
931.311	10915
931.415	10831
931.519	10626
931.623	10622
