Data from test_V78500241_1671.txt Node
Date: Fri Mar 25 15:21:29 CST 2022
User: usil
Spectrometer: V785-0024
Trigger mode: 0
Integration Time (sec): 4.000000E-1
Scans to average: 1
Nonlinearity correction enabled: false
Boxcar width: 0
Storing dark spectrum: false
XAxis mode: Wavelengths
Number of Pixels in Spectrum: 1024
>>>>>Begin Spectral Data<<<<<
801.071	27953
801.214	27903
801.356	27770
801.499	27701
801.641	27496
801.783	27466
801.926	27500
802.068	27447
802.211	27466
802.353	27249
802.496	27272
802.638	27283
802.78	27180
802.923	27085
803.065	27108
803.208	27077
803.35	27214
803.492	27473
803.635	27249
803.777	27135
803.919	27256
804.061	27679
804.204	27549
804.346	27351
804.488	27397
804.63	27310
804.773	27249
804.915	27283
805.057	27507
805.199	27355
805.341	27469
805.483	27431
805.626	27408
805.768	27401
805.91	27545
806.052	27427
806.194	27454
806.336	27732
806.478	27504
806.62	27420
806.762	27580
806.904	27720
807.046	28086
807.188	27956
807.33	27873
807.472	27911
807.614	27800
807.756	27819
807.898	27736
808.04	27789
808.182	27641
808.324	27743
808.465	27835
808.607	28036
808.749	28181
808.891	28310
809.033	28352
809.174	28253
809.316	28063
809.458	27998
809.6	28207
809.741	28181
809.883	28219
810.025	28474
810.166	28405
810.308	28436
810.45	28223
810.591	28261
810.733	28048
810.875	27964
811.016	27937
811.158	27998
811.299	28135
811.441	28253
811.582	28185
811.724	28173
811.865	28025
812.007	28010
812.148	28101
812.29	28299
812.431	28295
812.573	28569
812.714	28573
812.855	28778
812.997	28740
813.138	28835
813.279	28801
813.421	28672
813.562	28675
813.703	28440
813.845	28341
813.986	28010
814.127	27968
814.268	27945
814.41	27911
814.551	27827
814.692	27922
814.833	27766
814.974	27816
815.115	27816
815.256	27698
815.397	27675
815.539	27717
815.68	27473
815.821	27641
815.962	27686
816.103	27576
816.244	27591
816.385	27370
816.526	27302
816.666	27116
816.807	27146
816.948	27043
817.089	27237
817.23	27093
817.371	27146
817.512	27184
817.653	27039
817.793	27123
817.934	27024
818.075	27184
818.216	27013
818.356	27108
818.497	27032
818.638	26872
818.778	26899
818.919	26800
819.06	26960
819.2	27001
819.341	27051
819.481	27184
819.622	27336
819.762	27401
819.903	27298
820.043	27241
820.184	27283
820.324	27218
820.465	27275
820.605	27237
820.746	27199
820.886	27313
821.026	27218
821.167	27062
821.307	27222
821.447	27009
821.588	26990
821.728	26857
821.868	26697
822.008	26549
822.149	26674
822.289	26621
822.429	26252
822.569	26225
822.709	26290
822.849	26012
822.99	26096
823.13	25944
823.27	26046
823.41	25982
823.55	25807
823.69	25894
823.83	25879
823.97	25765
824.11	25708
824.25	25772
824.389	25700
824.529	25849
824.669	25685
824.809	25974
824.949	25807
825.089	25902
825.228	25708
825.368	25575
825.508	25635
825.648	25594
825.787	25575
825.927	25506
826.067	25643
826.206	25624
826.346	25791
826.485	25571
826.625	25590
826.765	25597
826.904	25647
827.044	25388
827.183	25369
827.323	25244
827.462	25422
827.601	25384
827.741	25213
827.88	25274
828.02	25263
828.159	25213
828.298	25301
828.437	25400
828.577	25278
828.716	25453
828.855	25209
828.994	24954
829.134	24973
829.273	25072
829.412	24996
829.551	24833
829.69	24840
829.829	25019
829.968	24992
830.107	25069
830.246	25080
830.385	24886
830.524	24867
830.663	25019
830.802	24779
830.941	24623
831.08	24654
831.219	24521
831.357	24802
831.496	24821
831.635	24604
831.774	24669
831.913	24642
832.051	24498
832.19	24380
832.329	24517
832.467	24296
832.606	24136
832.744	24308
832.883	24296
833.022	24273
833.16	24266
833.299	24429
833.437	24300
833.576	24384
833.714	24460
833.852	24300
833.991	24525
834.129	24437
834.267	24445
834.406	24353
834.544	24391
834.682	24365
834.821	24365
834.959	24536
835.097	24334
835.235	24410
835.373	24464
835.511	24350
835.65	24197
835.788	24277
835.926	24163
836.064	24018
836.202	24049
836.34	24254
836.478	24289
836.615	24228
836.753	24102
836.891	24232
837.029	24228
837.167	24003
837.305	24148
837.443	23965
837.58	24015
837.718	24136
837.856	24053
837.993	24015
838.131	24076
838.269	23965
838.406	23859
838.544	23794
838.681	23786
838.819	23638
838.956	23490
839.094	23539
839.231	23627
839.369	23779
839.506	23920
839.643	23832
839.781	23520
839.918	23524
840.055	23490
840.193	23497
840.33	23353
840.467	23372
840.604	23520
840.742	23608
840.879	23322
841.016	23360
841.153	23284
841.29	23376
841.427	23372
841.564	23353
841.701	23455
841.838	23345
841.975	23315
842.112	23269
842.249	23231
842.385	23227
842.522	23337
842.659	23299
842.796	23048
842.933	23029
843.069	23086
843.206	23121
843.343	23197
843.479	23086
843.616	23193
843.752	22915
843.889	22999
844.025	23098
844.162	22942
844.298	23113
844.435	23048
844.571	22930
844.708	23071
844.844	23060
844.98	23048
845.117	23060
845.253	22942
845.389	22755
845.525	22793
845.661	22778
845.798	22634
845.934	22858
846.07	22736
846.206	22698
846.342	22725
846.478	22611
846.614	22500
846.75	22409
846.886	22500
847.022	22557
847.158	22413
847.294	22538
847.429	22440
847.565	22409
847.701	22687
847.837	22105
847.972	22059
848.108	22158
848.244	22272
848.379	22036
848.515	22032
848.65	21972
848.786	22139
848.921	22063
849.057	22124
849.192	22013
849.328	22017
849.463	22013
849.598	21930
849.734	21915
849.869	21865
850.004	21789
850.14	21835
850.275	21861
850.41	21629
850.545	21686
850.68	21667
850.815	21717
850.95	21671
851.085	21937
851.22	21861
851.355	21713
851.49	21766
851.625	21781
851.76	21682
851.895	21644
852.03	21698
852.165	21915
852.299	21835
852.434	21812
852.569	21804
852.703	21751
852.838	21842
852.973	21892
853.107	21823
853.242	21637
853.376	21591
853.511	21587
853.645	21519
853.78	21720
853.914	21557
854.048	21549
854.183	21439
854.317	21648
854.451	21770
854.585	21641
854.72	21568
854.854	21812
854.988	21667
855.122	21660
855.256	21466
855.39	21671
855.524	21663
855.658	21526
855.792	21610
855.926	21644
856.06	21625
856.194	21587
856.327	21553
856.461	21625
856.595	21614
856.729	21656
856.862	21705
856.996	21705
857.13	21652
857.263	21561
857.397	21660
857.53	21622
857.664	21633
857.797	21644
857.931	21698
858.064	21572
858.197	21671
858.331	21675
858.464	21561
858.597	21420
858.731	21644
858.864	21576
858.997	21443
859.13	21549
859.263	21656
859.396	21625
859.529	21473
859.662	21496
859.795	21553
859.928	21561
860.061	21720
860.194	21797
860.327	21728
860.46	21595
860.592	21827
860.725	21679
860.858	21743
860.99	21774
861.123	21515
861.256	21595
861.388	21564
861.521	22230
861.653	21435
861.786	21450
861.918	21458
862.05	21416
862.183	21435
862.315	21564
862.447	21542
862.58	21488
862.712	21294
862.844	21332
862.976	21389
863.108	21412
863.24	21789
863.372	21264
863.504	21313
863.636	21260
863.768	21325
863.9	21370
864.032	21218
864.164	21256
864.296	21340
864.428	21473
864.559	21348
864.691	21275
864.823	21325
864.954	21180
865.086	21264
865.217	21199
865.349	21058
865.48	21199
865.612	21226
865.743	21348
865.875	21214
866.006	21233
866.137	21085
866.269	21116
866.4	21135
866.531	21184
866.662	21096
866.793	21024
866.924	21138
867.055	21093
867.186	21146
867.317	21150
867.448	21062
867.579	21017
867.71	21020
867.841	21085
867.972	21173
868.103	21127
868.233	21207
868.364	21135
868.495	21203
868.625	21389
868.756	21458
868.886	21336
869.017	21355
869.147	21462
869.278	21462
869.408	21408
869.539	21355
869.669	21405
869.799	21454
869.929	21435
870.06	21591
870.19	21694
870.32	21614
870.45	21812
870.58	21736
870.71	21888
870.84	21770
870.97	21789
871.1	21827
871.23	21838
871.36	21956
871.489	21827
871.619	21846
871.749	21911
871.879	21869
872.008	22002
872.138	21903
872.267	21964
872.397	21865
872.526	21682
872.656	21739
872.785	21842
872.915	21918
873.044	22017
873.173	22082
873.303	21983
873.432	22025
873.561	22059
873.69	22006
873.819	21987
873.948	22055
874.077	22055
874.206	21968
874.335	21994
874.464	22029
874.593	22185
874.722	22059
874.851	22215
874.979	22299
875.108	22181
875.237	22120
875.365	22128
875.494	22211
875.623	22238
875.751	22150
875.88	22253
876.008	22325
876.136	22398
876.265	22611
876.393	22786
876.521	22630
876.65	22561
876.778	22641
876.906	22405
877.034	22615
877.162	22508
877.29	22462
877.418	22542
877.546	22618
877.674	22508
877.802	22542
877.93	22523
878.058	22451
878.185	22325
878.313	22565
878.441	22512
878.568	22379
878.696	22523
878.824	22607
878.951	22626
879.079	22733
879.206	22797
879.333	22729
879.461	22577
879.588	22607
879.715	22790
879.842	22828
879.97	22626
880.097	22348
880.224	22356
880.351	22405
880.478	22402
880.605	22287
880.732	22337
880.859	22687
880.986	22500
881.112	22432
881.239	22386
881.366	22055
881.493	21987
881.619	21926
881.746	21937
881.872	21915
881.999	21937
882.125	21842
882.252	21945
882.378	21865
882.505	21987
882.631	21648
882.757	21606
882.883	21656
883.01	21652
883.136	21641
883.262	21431
883.388	21587
883.514	21736
883.64	21572
883.766	21576
883.892	21351
884.018	21374
884.143	21500
884.269	21686
884.395	21348
884.52	21252
884.646	21203
884.772	21287
884.897	21283
885.023	21348
885.148	21355
885.274	21492
885.399	21454
885.524	21313
885.65	21283
885.775	21169
885.9	21279
886.025	21359
886.15	21264
886.275	21252
886.4	21135
886.525	21256
886.65	21161
886.775	21249
886.9	21378
887.025	21431
887.149	21226
887.274	21199
887.399	21001
887.523	21024
887.648	20967
887.773	20952
887.897	21173
888.021	21043
888.146	20994
888.27	21062
888.395	21138
888.519	21070
888.643	21001
888.767	21104
888.891	21001
889.015	20925
889.139	20765
889.263	20712
889.387	20979
889.511	21036
889.635	20998
889.759	20807
889.883	20731
890.006	20777
890.13	20956
890.254	20712
890.377	20815
890.501	20648
890.624	20613
890.748	20636
890.871	20434
890.995	20431
891.118	20328
891.241	20427
891.364	20446
891.488	20590
891.611	20511
891.734	20404
891.857	20495
891.98	20412
892.103	20461
892.226	20450
892.349	20328
892.471	20259
892.594	20278
892.717	20389
892.839	20374
892.962	20351
893.085	20332
893.207	20355
893.33	20237
893.452	20317
893.575	20507
893.697	20298
893.819	20423
893.941	20541
894.064	20632
894.186	20393
894.308	20328
894.43	20446
894.552	20446
894.674	20442
894.796	20191
894.918	20244
895.04	20259
895.161	20396
895.283	20381
895.405	20328
895.526	20256
895.648	20355
895.769	20294
895.891	20381
896.012	20336
896.134	20415
896.255	20229
896.376	20275
896.498	20290
896.619	20427
896.74	20275
896.861	20377
896.982	20533
897.103	20807
897.224	20621
897.345	20537
897.466	20492
897.587	20465
897.708	20560
897.828	20556
897.949	20377
898.07	20355
898.19	20404
898.311	20568
898.431	20518
898.552	20492
898.672	20731
898.792	20533
898.913	20602
899.033	20393
899.153	20332
899.273	20275
899.393	20199
899.513	20301
899.633	20176
899.753	20381
899.873	20130
899.993	20282
900.113	20225
900.232	20263
900.352	20183
900.472	20130
900.591	20008
900.711	20199
900.83	19951
900.95	20001
901.069	20134
901.189	19951
901.308	19788
901.427	19616
901.546	19624
901.665	19712
901.784	19727
901.904	19472
902.023	19381
902.141	19179
902.26	19183
902.379	19346
902.498	19168
902.617	19004
902.735	19129
902.854	19194
902.973	19000
903.091	18947
903.21	18894
903.328	18837
903.446	18741
903.565	18661
903.683	18631
903.801	18513
903.919	18578
904.038	18582
904.156	18365
904.274	18441
904.392	18407
904.51	18361
904.627	18239
904.745	18433
904.863	18414
904.981	18190
905.098	18083
905.216	18079
905.334	18144
905.451	18045
905.569	17992
905.686	18106
905.803	18053
905.921	17866
906.038	17912
906.155	17866
906.272	17718
906.389	17794
906.506	17547
906.623	17592
906.74	17486
906.857	17512
906.974	17551
907.091	17695
907.208	17703
907.324	17737
907.441	17440
907.557	17296
907.674	17288
907.79	17269
907.907	17220
908.023	17379
908.139	17265
908.256	17193
908.372	17220
908.488	17124
908.604	17014
908.72	16908
908.836	16946
908.952	16972
909.068	16980
909.184	17060
909.3	16923
909.415	16946
909.531	16991
909.647	16755
909.762	16755
909.878	16713
909.993	16752
910.108	16660
910.224	16664
910.339	16615
910.454	16687
910.57	16527
910.685	16459
910.8	16683
910.915	16588
911.03	16531
911.145	16325
911.259	16276
911.374	16303
911.489	16322
911.604	16219
911.718	16063
911.833	16051
911.947	15968
912.062	15945
912.176	16025
912.291	16086
912.405	15987
912.519	16215
912.633	16116
912.748	15998
912.862	15899
912.976	15819
913.09	15743
913.204	15892
913.318	15747
913.431	15926
913.545	15998
913.659	15918
913.772	15819
913.886	15739
914	15644
914.113	15709
914.226	15755
914.34	15679
914.453	15576
914.566	15580
914.68	15469
914.793	15443
914.906	15408
915.019	15310
915.132	15287
915.245	15214
915.358	15302
915.47	15302
915.583	15188
915.696	15275
915.809	15359
915.921	15412
916.034	15260
916.146	15211
916.259	15127
916.371	15230
916.483	15199
916.595	15146
916.708	15112
916.82	15199
916.932	15024
917.044	15097
917.156	15074
917.268	14826
917.38	14906
917.491	14899
917.603	14914
917.715	15020
917.826	15097
917.938	14815
918.049	14773
918.161	14868
918.272	14971
918.384	14990
918.495	14834
918.606	14769
918.717	14575
918.828	14712
918.939	14712
919.05	14678
919.161	14682
919.272	14450
919.383	14511
919.494	14632
919.604	14842
919.715	14640
919.826	14590
919.936	14613
920.047	14750
920.157	14682
920.267	14739
920.378	14629
920.488	14571
920.598	14845
920.708	14941
920.818	14705
920.928	14735
921.038	14967
921.148	14781
921.258	14579
921.368	14530
921.477	14351
921.587	14324
921.697	14317
921.806	14336
921.916	14199
922.025	14168
922.134	14058
922.244	13944
922.353	14088
922.462	13875
922.571	13693
922.68	13647
922.789	13651
922.898	13674
923.007	13540
923.116	13681
923.224	13556
923.333	13582
923.442	13563
923.55	13415
923.659	13502
923.767	13571
923.876	13381
923.984	13521
924.092	13369
924.201	13453
924.309	13411
924.417	13381
924.525	13327
924.633	13343
924.741	14107
924.849	13141
924.956	13179
925.064	13122
925.172	13042
925.279	13008
925.387	13171
925.494	12981
925.602	13217
925.709	13061
925.816	12981
925.924	13004
926.031	13129
926.138	12973
926.245	13057
926.352	12833
926.459	13091
926.566	12993
926.673	12905
926.779	12787
926.886	12787
926.993	12684
927.099	12681
927.206	12688
927.312	12601
927.419	12662
927.525	12528
927.631	12707
927.737	12555
927.843	12494
927.95	12403
928.056	12433
928.162	12498
928.267	12509
928.373	13099
928.479	12502
928.585	12258
928.69	12376
928.796	12445
928.901	12365
929.007	12167
929.112	12220
929.218	12216
929.323	12144
929.428	12121
929.533	12342
929.638	12072
929.743	12095
929.848	12171
929.953	12007
930.058	11942
930.163	11904
930.267	11855
930.372	11958
930.477	11809
930.581	11954
930.685	11908
930.79	11695
930.894	11684
930.998	11779
931.103	11779
931.207	11516
931.311	11414
931.415	11311
931.519	11117
931.623	11052
