Data from test_V78500241_3582.txt Node
Date: Fri Mar 25 15:34:48 CST 2022
User: usil
Spectrometer: V785-0024
Trigger mode: 0
Integration Time (sec): 4.000000E-1
Scans to average: 1
Nonlinearity correction enabled: false
Boxcar width: 0
Storing dark spectrum: false
XAxis mode: Wavelengths
Number of Pixels in Spectrum: 1024
>>>>>Begin Spectral Data<<<<<
801.071	27325
801.214	27386
801.356	27116
801.499	26982
801.641	27001
801.783	26849
801.926	26929
802.068	26921
802.211	26815
802.353	26613
802.496	26598
802.638	26495
802.78	26590
802.923	26461
803.065	26404
803.208	26415
803.35	26606
803.492	26571
803.635	26739
803.777	26727
803.919	26701
804.061	26845
804.204	26693
804.346	26617
804.488	26590
804.63	26590
804.773	26503
804.915	26602
805.057	26804
805.199	26689
805.341	26720
805.483	26663
805.626	26689
805.768	26876
805.91	26845
806.052	26823
806.194	26708
806.336	26853
806.478	26693
806.62	26796
806.762	26906
806.904	27127
807.046	27302
807.188	27199
807.33	27116
807.472	27222
807.614	26952
807.756	27180
807.898	26918
808.04	26910
808.182	26914
808.324	27066
808.465	27077
808.607	27146
808.749	27405
808.891	27568
809.033	27462
809.174	27435
809.316	27264
809.458	27443
809.6	27306
809.741	27416
809.883	27542
810.025	27564
810.166	27671
810.308	27561
810.45	27523
810.591	27485
810.733	27344
810.875	27321
811.016	27264
811.158	27291
811.299	27401
811.441	27591
811.582	27485
811.724	27355
811.865	27291
812.007	27397
812.148	27408
812.29	27302
812.431	27515
812.573	27641
812.714	27759
812.855	27869
812.997	27918
813.138	28032
813.279	28120
813.421	27907
813.562	27800
813.703	27587
813.845	27519
813.986	27325
814.127	27055
814.268	27020
814.41	27013
814.551	26948
814.692	27043
814.833	26975
814.974	26952
815.115	27005
815.256	26895
815.397	26960
815.539	26864
815.68	26777
815.821	26663
815.962	26682
816.103	26804
816.244	26670
816.385	26705
816.526	26590
816.666	26431
816.807	26309
816.948	26320
817.089	26374
817.23	26377
817.371	26317
817.512	26256
817.653	26263
817.793	26286
817.934	26351
818.075	26332
818.216	26343
818.356	26210
818.497	26195
818.638	25993
818.778	26008
818.919	25974
819.06	26149
819.2	26233
819.341	26259
819.481	26221
819.622	26381
819.762	26663
819.903	26583
820.043	26400
820.184	26408
820.324	26324
820.465	26419
820.605	26518
820.746	26362
820.886	26172
821.026	26366
821.167	26278
821.307	26434
821.447	26191
821.588	26187
821.728	26008
821.868	25944
822.008	25845
822.149	25807
822.289	25712
822.429	25392
822.569	25346
822.709	25335
822.849	25225
822.99	25225
823.13	25384
823.27	25221
823.41	24992
823.55	24981
823.69	25103
823.83	24989
823.97	25046
824.11	24939
824.25	24867
824.389	24935
824.529	24954
824.669	24791
824.809	25168
824.949	24992
825.089	25076
825.228	24989
825.368	24764
825.508	24696
825.648	24738
825.787	24715
825.927	24719
826.067	24779
826.206	24795
826.346	24783
826.485	24863
826.625	24837
826.765	24848
826.904	24859
827.044	24665
827.183	24471
827.323	24391
827.462	24540
827.601	24525
827.741	24399
827.88	24532
828.02	24391
828.159	24418
828.298	24502
828.437	24441
828.577	24403
828.716	24574
828.855	24346
828.994	24155
829.134	24163
829.273	24197
829.412	24167
829.551	24060
829.69	24232
829.829	24213
829.968	24300
830.107	24350
830.246	24262
830.385	24064
830.524	24129
830.663	24060
830.802	23946
830.941	23672
831.08	23756
831.219	23961
831.357	23908
831.496	24034
831.635	23843
831.774	23752
831.913	23695
832.051	23554
832.19	23490
832.329	23516
832.467	23531
832.606	23493
832.744	23436
832.883	23417
833.022	23486
833.16	23501
833.299	23570
833.437	23543
833.576	23581
833.714	23585
833.852	23745
833.991	23699
834.129	23649
834.267	23676
834.406	23547
834.544	23600
834.682	23596
834.821	23573
834.959	23649
835.097	23589
835.235	23566
835.373	23619
835.511	23615
835.65	23467
835.788	23589
835.926	23311
836.064	23181
836.202	23265
836.34	23478
836.478	23547
836.615	23368
836.753	23471
836.891	23345
837.029	23573
837.167	23345
837.305	23299
837.443	23273
837.58	23216
837.718	23284
837.856	23292
837.993	23258
838.131	23261
838.269	23200
838.406	23159
838.544	23041
838.681	23018
838.819	22889
838.956	22740
839.094	22694
839.231	22805
839.369	22991
839.506	23132
839.643	22968
839.781	22752
839.918	22752
840.055	22809
840.193	22755
840.33	22664
840.467	22778
840.604	22675
840.742	22930
840.879	22577
841.016	22550
841.153	22554
841.29	22721
841.427	22603
841.564	22744
841.701	22580
841.838	22664
841.975	22679
842.112	22710
842.249	22649
842.385	22409
842.522	22725
842.659	22462
842.796	22512
842.933	22504
843.069	22451
843.206	22451
843.343	22527
843.479	22402
843.616	22402
843.752	22093
843.889	22314
844.025	22390
844.162	22207
844.298	22230
844.435	22154
844.571	22169
844.708	22211
844.844	22382
844.98	22360
845.117	22325
845.253	22131
845.389	22067
845.525	21994
845.661	22036
845.798	21930
845.934	22048
846.07	21930
846.206	21941
846.342	22097
846.478	21949
846.614	21873
846.75	21656
846.886	21709
847.022	21804
847.158	21717
847.294	21736
847.429	21827
847.565	21682
847.701	21892
847.837	21367
847.972	21435
848.108	21549
848.244	21500
848.379	21378
848.515	21306
848.65	21184
848.786	21294
848.921	21291
849.057	21393
849.192	21370
849.328	21329
849.463	21313
849.598	21283
849.734	21264
849.869	21043
850.004	21119
850.14	21184
850.275	21108
850.41	21104
850.545	21024
850.68	21077
850.815	21036
850.95	21077
851.085	21279
851.22	21214
851.355	21070
851.49	20998
851.625	21024
851.76	21077
851.895	20979
852.03	20906
852.165	20998
852.299	21093
852.434	21272
852.569	21077
852.703	21074
852.838	21142
852.973	21214
853.107	21199
853.242	20929
853.376	20921
853.511	20830
853.645	20849
853.78	20868
853.914	20883
854.048	21039
854.183	20823
854.317	20891
854.451	21070
854.585	20918
854.72	20857
854.854	20990
854.988	20796
855.122	20823
855.256	20724
855.39	20952
855.524	20899
855.658	20975
855.792	20823
855.926	20952
856.06	20971
856.194	20986
856.327	20910
856.461	20777
856.595	20796
856.729	20960
856.862	20902
856.996	20891
857.13	20952
857.263	21051
857.397	20990
857.53	20956
857.664	20864
857.797	20990
857.931	20979
858.064	20887
858.197	21005
858.331	20838
858.464	20872
858.597	20750
858.731	20815
858.864	20880
858.997	20792
859.13	20880
859.263	20815
859.396	20914
859.529	20830
859.662	20838
859.795	20746
859.928	20906
860.061	21055
860.194	21089
860.327	20899
860.46	20864
860.592	20979
860.725	20910
860.858	20982
860.99	20861
861.123	20864
861.256	20876
861.388	20864
861.521	21751
861.653	20743
861.786	20625
861.918	20560
862.05	20819
862.183	20891
862.315	20811
862.447	20872
862.58	20758
862.712	20587
862.844	20579
862.976	20667
863.108	20689
863.24	20994
863.372	20545
863.504	20648
863.636	20575
863.768	20667
863.9	20530
864.032	20621
864.164	20556
864.296	20530
864.428	20705
864.559	20686
864.691	20743
864.823	20667
864.954	20499
865.086	20598
865.217	20484
865.349	20400
865.48	20457
865.612	20583
865.743	20606
865.875	20651
866.006	20514
866.137	20556
866.269	20476
866.4	20549
866.531	20366
866.662	20404
866.793	20358
866.924	20461
867.055	20438
867.186	20465
867.317	20503
867.448	20400
867.579	20336
867.71	20278
867.841	20465
867.972	20419
868.103	20385
868.233	20469
868.364	20438
868.495	20461
868.625	20697
868.756	20743
868.886	20663
869.017	20735
869.147	20823
869.278	20777
869.408	20701
869.539	20712
869.669	20724
869.799	20708
869.929	20785
870.06	20781
870.19	20963
870.32	20990
870.45	21013
870.58	21176
870.71	21104
870.84	21081
870.97	21074
871.1	21070
871.23	21245
871.36	21310
871.489	21218
871.619	21283
871.749	21199
871.879	21142
872.008	21374
872.138	21195
872.267	21272
872.397	21173
872.526	21085
872.656	21214
872.785	21085
872.915	21294
873.044	21412
873.173	21310
873.303	21294
873.432	21424
873.561	21519
873.69	21340
873.819	21214
873.948	21386
874.077	21249
874.206	21260
874.335	21161
874.464	21393
874.593	21603
874.722	21515
874.851	21473
874.979	21568
875.108	21679
875.237	21458
875.365	21504
875.494	21473
875.623	21644
875.751	21542
875.88	21523
876.008	21641
876.136	21686
876.265	21888
876.393	22090
876.521	22082
876.65	22032
876.778	21926
876.906	21724
877.034	21876
877.162	21994
877.29	21876
877.418	21876
877.546	21808
877.674	21945
877.802	21861
877.93	21892
878.058	21956
878.185	21808
878.313	21808
878.441	21972
878.568	21785
878.696	21873
878.824	22063
878.951	21918
879.079	21983
879.206	22116
879.333	22021
879.461	21911
879.588	21964
879.715	22112
879.842	22188
879.97	22017
880.097	21736
880.224	21759
880.351	21694
880.478	21766
880.605	21652
880.732	21759
880.859	22040
880.986	21736
881.112	21781
881.239	21629
881.366	21542
881.493	21477
881.619	21241
881.746	21405
881.872	21370
881.999	21260
882.125	21264
882.252	21332
882.378	21359
882.505	21420
882.631	21279
882.757	21032
882.883	21077
883.01	21009
883.136	21017
883.262	20971
883.388	20781
883.514	21013
883.64	21062
883.766	20815
883.892	20682
884.018	20845
884.143	21066
884.269	21085
884.395	20781
884.52	20689
884.646	20716
884.772	20549
884.897	20587
885.023	20644
885.148	20758
885.274	20807
885.399	20792
885.524	20644
885.65	20731
885.775	20735
885.9	20648
886.025	20811
886.15	20659
886.275	20606
886.4	20632
886.525	20735
886.65	20503
886.775	20541
886.9	20746
887.025	20743
887.149	20533
887.274	20385
887.399	20454
887.523	20438
887.648	20438
887.773	20370
887.897	20488
888.021	20507
888.146	20362
888.27	20480
888.395	20594
888.519	20499
888.643	20526
888.767	20431
888.891	20419
889.015	20339
889.139	20294
889.263	20252
889.387	20366
889.511	20590
889.635	20324
889.759	20214
889.883	20256
890.006	20221
890.13	20275
890.254	20199
890.377	20206
890.501	20020
890.624	20012
890.748	20084
890.871	19887
890.995	19841
891.118	19750
891.241	19769
891.364	19890
891.488	19841
891.611	19837
891.734	19822
891.857	19731
891.98	19883
892.103	19917
892.226	19788
892.349	19685
892.471	19601
892.594	19620
892.717	19734
892.839	19746
892.962	19753
893.085	19856
893.207	19670
893.33	19616
893.452	19693
893.575	19814
893.697	19628
893.819	19917
893.941	19849
894.064	19837
894.186	19734
894.308	19712
894.43	19837
894.552	19921
894.674	19887
894.796	19609
894.918	19757
895.04	19704
895.161	19693
895.283	19685
895.405	19734
895.526	19620
895.648	19624
895.769	19715
895.891	19776
896.012	19772
896.134	19944
896.255	19731
896.376	19681
896.498	19723
896.619	19693
896.74	19658
896.861	19913
896.982	20008
897.103	20191
897.224	20191
897.345	20012
897.466	19982
897.587	19932
897.708	20313
897.828	19997
897.949	19928
898.07	19776
898.19	19822
898.311	20035
898.431	19936
898.552	20046
898.672	20054
898.792	19955
898.913	19967
899.033	19898
899.153	19750
899.273	19731
899.393	19643
899.513	19902
899.633	19613
899.753	19666
899.873	19628
899.993	19788
900.113	19651
900.232	19708
900.352	19544
900.472	19567
900.591	19449
900.711	19506
900.83	19381
900.95	19616
901.069	19597
901.189	19419
901.308	19088
901.427	19110
901.546	19084
901.665	19118
901.784	19004
901.904	18993
902.023	18821
902.141	18696
902.26	18604
902.379	18593
902.498	18597
902.617	18627
902.735	18711
902.854	18509
902.973	18422
903.091	18285
903.21	18178
903.328	18361
903.446	18114
903.565	18194
903.683	18110
903.801	17973
903.919	18015
904.038	18087
904.156	17882
904.274	17988
904.392	17828
904.51	17821
904.627	17790
904.745	17863
904.863	17889
904.981	17566
905.098	17551
905.216	17505
905.334	17558
905.451	17512
905.569	17554
905.686	17535
905.803	17554
905.921	17345
906.038	17501
906.155	17372
906.272	17193
906.389	17292
906.506	17052
906.623	17136
906.74	17060
906.857	16957
906.974	16896
907.091	17094
907.208	17197
907.324	17189
907.441	16957
907.557	16930
907.674	16786
907.79	16717
907.907	16869
908.023	16866
908.139	16820
908.256	16710
908.372	16618
908.488	16675
908.604	16504
908.72	16554
908.836	16531
908.952	16542
909.068	16497
909.184	16519
909.3	16455
909.415	16565
909.531	16523
909.647	16154
909.762	16306
909.878	16177
909.993	16131
910.108	16131
910.224	16029
910.339	16219
910.454	16063
910.57	15979
910.685	15884
910.8	16249
910.915	16135
911.03	16105
911.145	15895
911.259	15918
911.374	15827
911.489	15739
911.604	15679
911.718	15500
911.833	15633
911.947	15458
912.062	15538
912.176	15591
912.291	15739
912.405	15622
912.519	15694
912.633	15804
912.748	15690
912.862	15526
912.976	15420
913.09	15264
913.204	15355
913.318	15374
913.431	15568
913.545	15469
913.659	15500
913.772	15256
913.886	15268
914	15138
914.113	15317
914.226	15332
914.34	15226
914.453	15055
914.566	15218
914.68	15024
914.793	15009
914.906	14982
915.019	14864
915.132	14701
915.245	14796
915.358	14830
915.47	14804
915.583	14785
915.696	14746
915.809	14910
915.921	14952
916.034	14743
916.146	14594
916.259	14708
916.371	14902
916.483	14849
916.595	14655
916.708	14556
916.82	14613
916.932	14613
917.044	14587
917.156	14606
917.268	14370
917.38	14454
917.491	14389
917.603	14590
917.715	14583
917.826	14625
917.938	14473
918.049	14377
918.161	14461
918.272	14571
918.384	14530
918.495	14427
918.606	14309
918.717	14107
918.828	14256
918.939	14187
919.05	14214
919.161	14202
919.272	13982
919.383	14084
919.494	14248
919.604	14412
919.715	14168
919.826	14119
919.936	14233
920.047	14317
920.157	14176
920.267	14454
920.378	14187
920.488	14107
920.598	14419
920.708	14522
920.818	14446
920.928	14404
921.038	14537
921.148	14438
921.258	14088
921.368	14058
921.477	13898
921.587	13978
921.697	13871
921.806	13944
921.916	13795
922.025	13590
922.134	13639
922.244	13578
922.353	13639
922.462	13419
922.571	13400
922.68	13282
922.789	13175
922.898	13308
923.007	13217
923.116	13244
923.224	13179
923.333	13266
923.442	13145
923.55	12981
923.659	13179
923.767	13187
923.876	12962
923.984	12989
924.092	13012
924.201	13034
924.309	12943
924.417	12993
924.525	12867
924.633	12973
924.741	13833
924.849	12684
924.956	12840
925.064	12665
925.172	12623
925.279	12642
925.387	12707
925.494	12707
925.602	12825
925.709	12650
925.816	12517
925.924	12650
926.031	12734
926.138	12582
926.245	12597
926.352	12536
926.459	12555
926.566	12764
926.673	12464
926.779	12475
926.886	12509
926.993	12311
927.099	12216
927.206	12148
927.312	12232
927.419	12346
927.525	12209
927.631	12285
927.737	12182
927.843	12045
927.95	11942
928.056	12030
928.162	12030
928.267	12133
928.373	12604
928.479	12144
928.585	11908
928.69	11984
928.796	12117
928.901	11897
929.007	11775
929.112	11973
929.218	11927
929.323	11870
929.428	11783
929.533	11908
929.638	11805
929.743	11840
929.848	11802
929.953	11745
930.058	11657
930.163	11433
930.267	11528
930.372	11638
930.477	11467
930.581	11676
930.685	11539
930.79	11425
930.894	11459
930.998	11383
931.103	11535
931.207	11136
931.311	11090
931.415	10961
931.519	10774
931.623	10839
