Data from test_V78500241_1352.txt Node
Date: Fri Mar 25 15:19:16 CST 2022
User: usil
Spectrometer: V785-0024
Trigger mode: 0
Integration Time (sec): 4.000000E-1
Scans to average: 1
Nonlinearity correction enabled: false
Boxcar width: 0
Storing dark spectrum: false
XAxis mode: Wavelengths
Number of Pixels in Spectrum: 1024
>>>>>Begin Spectral Data<<<<<
801.071	28196
801.214	28154
801.356	27873
801.499	27869
801.641	27667
801.783	27637
801.926	27724
802.068	27682
802.211	27656
802.353	27496
802.496	27447
802.638	27222
802.78	27321
802.923	27351
803.065	27245
803.208	27184
803.35	27382
803.492	27462
803.635	27500
803.777	27515
803.919	27545
804.061	27755
804.204	27564
804.346	27401
804.488	27431
804.63	27378
804.773	27401
804.915	27519
805.057	27679
805.199	27599
805.341	27583
805.483	27648
805.626	27663
805.768	27606
805.91	27583
806.052	27629
806.194	27561
806.336	27884
806.478	27736
806.62	27644
806.762	27892
806.904	27972
807.046	28238
807.188	27972
807.33	28032
807.472	28131
807.614	28040
807.756	28131
807.898	28086
808.04	27785
808.182	27869
808.324	28059
808.465	27979
808.607	28105
808.749	28379
808.891	28295
809.033	28481
809.174	28443
809.316	28284
809.458	28268
809.6	28405
809.741	28504
809.883	28489
810.025	28557
810.166	28550
810.308	28596
810.45	28348
810.591	28512
810.733	28409
810.875	28272
811.016	28200
811.158	28375
811.299	28390
811.441	28413
811.582	28409
811.724	28436
811.865	28215
812.007	28401
812.148	28287
812.29	28303
812.431	28440
812.573	28744
812.714	28774
812.855	28843
812.997	28911
813.138	29071
813.279	29018
813.421	28953
813.562	28938
813.703	28717
813.845	28554
813.986	28310
814.127	28200
814.268	28109
814.41	27968
814.551	28040
814.692	28055
814.833	28109
814.974	27914
815.115	28131
815.256	27903
815.397	27759
815.539	27907
815.68	27713
815.821	27713
815.962	27827
816.103	27869
816.244	27679
816.385	27599
816.526	27492
816.666	27397
816.807	27344
816.948	27275
817.089	27473
817.23	27302
817.371	27523
817.512	27203
817.653	27370
817.793	27230
817.934	27348
818.075	27306
818.216	27393
818.356	27260
818.497	27203
818.638	27085
818.778	27112
818.919	27077
819.06	27180
819.2	27260
819.341	27329
819.481	27336
819.622	27317
819.762	27450
819.903	27629
820.043	27561
820.184	27587
820.324	27367
820.465	27614
820.605	27439
820.746	27256
820.886	27176
821.026	27386
821.167	27477
821.307	27557
821.447	27287
821.588	27294
821.728	27001
821.868	26891
822.008	26727
822.149	26796
822.289	26765
822.429	26533
822.569	26453
822.709	26495
822.849	26286
822.99	26332
823.13	26229
823.27	26282
823.41	26278
823.55	25986
823.69	26107
823.83	26046
823.97	26115
824.11	25940
824.25	25966
824.389	25944
824.529	25963
824.669	25997
824.809	25963
824.949	26084
825.089	25989
825.228	26005
825.368	25746
825.508	25909
825.648	25830
825.787	25909
825.927	25902
826.067	25666
826.206	25852
826.346	25822
826.485	25734
826.625	25753
826.765	25833
826.904	25898
827.044	25540
827.183	25514
827.323	25445
827.462	25537
827.601	25464
827.741	25487
827.88	25609
828.02	25392
828.159	25506
828.298	25537
828.437	25700
828.577	25540
828.716	25780
828.855	25441
828.994	25415
829.134	25228
829.273	25362
829.412	25183
829.551	25175
829.69	25278
829.829	25221
829.968	25308
830.107	25255
830.246	25088
830.385	25202
830.524	25179
830.663	24992
830.802	25000
830.941	24856
831.08	24806
831.219	24821
831.357	24947
831.496	25000
831.635	24916
831.774	24787
831.913	24696
832.051	24589
832.19	24620
832.329	24639
832.467	24635
832.606	24505
832.744	24486
832.883	24475
833.022	24456
833.16	24642
833.299	24536
833.437	24525
833.576	24471
833.714	24498
833.852	24627
833.991	24578
834.129	24658
834.267	24688
834.406	24696
834.544	24642
834.682	24513
834.821	24532
834.959	24768
835.097	24585
835.235	24616
835.373	24585
835.511	24578
835.65	24441
835.788	24437
835.926	24243
836.064	24319
836.202	24266
836.34	24334
836.478	24460
836.615	24292
836.753	24471
836.891	24475
837.029	24471
837.167	24308
837.305	24391
837.443	24285
837.58	24285
837.718	24338
837.856	24289
837.993	24155
838.131	24178
838.269	24125
838.406	24121
838.544	24072
838.681	23832
838.819	24015
838.956	23745
839.094	23764
839.231	23752
839.369	23840
839.506	24148
839.643	23999
839.781	23684
839.918	23767
840.055	23786
840.193	23608
840.33	23471
840.467	23729
840.604	23619
840.742	24003
840.879	23406
841.016	23497
841.153	23459
841.29	23714
841.427	23596
841.564	23551
841.701	23573
841.838	23539
841.975	23436
842.112	23471
842.249	23341
842.385	23341
842.522	23619
842.659	23425
842.796	23227
842.933	23349
843.069	23364
843.206	23292
843.343	23391
843.479	23398
843.616	23444
843.752	23117
843.889	23124
844.025	23258
844.162	23178
844.298	23269
844.435	23143
844.571	23086
844.708	23208
844.844	23292
844.98	23307
845.117	23220
845.253	22968
845.389	23041
845.525	22965
845.661	22915
845.798	22877
845.934	22953
846.07	22839
846.206	22927
846.342	22987
846.478	22793
846.614	22557
846.75	22599
846.886	22557
847.022	22618
847.158	22580
847.294	22660
847.429	22527
847.565	22630
847.701	22885
847.837	22333
847.972	22272
848.108	22466
848.244	22470
848.379	22192
848.515	22204
848.65	22154
848.786	22188
848.921	22215
849.057	22341
849.192	22188
849.328	22242
849.463	22268
849.598	22192
849.734	22101
849.869	22040
850.004	22032
850.14	22002
850.275	21953
850.41	21949
850.545	21930
850.68	21884
850.815	21934
850.95	21854
851.085	22143
851.22	22067
851.355	21865
851.49	21888
851.625	21918
851.76	21869
851.895	21945
852.03	21907
852.165	21918
852.299	21937
852.434	22131
852.569	22032
852.703	21991
852.838	21937
852.973	21983
853.107	22070
853.242	21895
853.376	21842
853.511	21637
853.645	21709
853.78	21956
853.914	21903
854.048	21671
854.183	21747
854.317	21785
854.451	21934
854.585	21679
854.72	21747
854.854	21884
854.988	21739
855.122	21770
855.256	21641
855.39	21720
855.524	21869
855.658	21838
855.792	21759
855.926	21797
856.06	21865
856.194	21842
856.327	21911
856.461	21667
856.595	21675
856.729	21800
856.862	21850
856.996	21766
857.13	21873
857.263	21964
857.397	21918
857.53	21819
857.664	21918
857.797	21739
857.931	21892
858.064	21698
858.197	21861
858.331	21774
858.464	21724
858.597	21610
858.731	21625
858.864	21698
858.997	21759
859.13	21736
859.263	21766
859.396	21869
859.529	21622
859.662	21671
859.795	21663
859.928	21831
860.061	21800
860.194	22006
860.327	21709
860.46	21850
860.592	21937
860.725	21949
860.858	21895
860.99	21797
861.123	21660
861.256	21774
861.388	21759
861.521	22352
861.653	21580
861.786	21564
861.918	21614
862.05	21606
862.183	21622
862.315	21690
862.447	21804
862.58	21747
862.712	21534
862.844	21363
862.976	21557
863.108	21458
863.24	21766
863.372	21420
863.504	21401
863.636	21435
863.768	21526
863.9	21374
864.032	21367
864.164	21488
864.296	21561
864.428	21580
864.559	21439
864.691	21625
864.823	21397
864.954	21469
865.086	21416
865.217	21401
865.349	21241
865.48	21355
865.612	21332
865.743	21534
865.875	21370
866.006	21329
866.137	21370
866.269	21466
866.4	21351
866.531	21359
866.662	21245
866.793	21218
866.924	21332
867.055	21294
867.186	21252
867.317	21256
867.448	21131
867.579	21195
867.71	21203
867.841	21272
867.972	21249
868.103	21279
868.233	21332
868.364	21195
868.495	21336
868.625	21568
868.756	21561
868.886	21534
869.017	21454
869.147	21690
869.278	21595
869.408	21595
869.539	21587
869.669	21637
869.799	21488
869.929	21663
870.06	21694
870.19	21812
870.32	21827
870.45	21850
870.58	21873
870.71	22070
870.84	22124
870.97	21880
871.1	21842
871.23	22067
871.36	22139
871.489	22013
871.619	22086
871.749	22169
871.879	22147
872.008	22013
872.138	22101
872.267	22105
872.397	21861
872.526	21808
872.656	22055
872.785	21956
872.915	22120
873.044	22246
873.173	22086
873.303	22249
873.432	22162
873.561	22177
873.69	22147
873.819	22169
873.948	22226
874.077	22109
874.206	22162
874.335	22253
874.464	22219
874.593	22386
874.722	22276
874.851	22398
874.979	22405
875.108	22405
875.237	22371
875.365	22177
875.494	22417
875.623	22363
875.751	22246
875.88	22394
876.008	22447
876.136	22573
876.265	22725
876.393	22869
876.521	22694
876.65	22816
876.778	22790
876.906	22729
877.034	22542
877.162	22706
877.29	22733
877.418	22656
877.546	22729
877.674	22702
877.802	22634
877.93	22736
878.058	22607
878.185	22721
878.313	22733
878.441	22603
878.568	22478
878.696	22710
878.824	22683
878.951	22710
879.079	22892
879.206	22965
879.333	22744
879.461	22698
879.588	22858
879.715	22862
879.842	22908
879.97	22725
880.097	22493
880.224	22432
880.351	22542
880.478	22607
880.605	22603
880.732	22462
880.859	22618
880.986	22580
881.112	22584
881.239	22272
881.366	22287
881.493	22162
881.619	22120
881.746	22131
881.872	22234
881.999	22070
882.125	22078
882.252	22177
882.378	22074
882.505	22249
882.631	21960
882.757	21861
882.883	21907
883.01	21793
883.136	21705
883.262	21572
883.388	21644
883.514	21797
883.64	21774
883.766	21610
883.892	21557
884.018	21523
884.143	21671
884.269	21869
884.395	21439
884.52	21272
884.646	21469
884.772	21336
884.897	21344
885.023	21367
885.148	21492
885.274	21466
885.399	21466
885.524	21325
885.65	21359
885.775	21428
885.9	21405
886.025	21458
886.15	21412
886.275	21389
886.4	21306
886.525	21424
886.65	21370
886.775	21321
886.9	21580
887.025	21667
887.149	21336
887.274	21275
887.399	21138
887.523	21169
887.648	21180
887.773	21055
887.897	21272
888.021	21310
888.146	21070
888.27	21222
888.395	21214
888.519	21241
888.643	21245
888.767	21199
888.891	21047
889.015	20906
889.139	21123
889.263	21036
889.387	21161
889.511	21074
889.635	21104
889.759	21005
889.883	20937
890.006	20979
890.13	21142
890.254	20891
890.377	20971
890.501	20701
890.624	20758
890.748	20842
890.871	20632
890.995	20522
891.118	20514
891.241	20621
891.364	20556
891.488	20743
891.611	20488
891.734	20556
891.857	20492
891.98	20499
892.103	20522
892.226	20480
892.349	20609
892.471	20328
892.594	20400
892.717	20431
892.839	20282
892.962	20438
893.085	20511
893.207	20484
893.33	20339
893.452	20324
893.575	20480
893.697	20282
893.819	20484
893.941	20727
894.064	20602
894.186	20313
894.308	20218
894.43	20503
894.552	20552
894.674	20484
894.796	20317
894.918	20404
895.04	20339
895.161	20450
895.283	20408
895.405	20347
895.526	20442
895.648	20393
895.769	20492
895.891	20374
896.012	20339
896.134	20492
896.255	20438
896.376	20347
896.498	20476
896.619	20522
896.74	20484
896.861	20541
896.982	20667
897.103	20906
897.224	20743
897.345	20727
897.466	20568
897.587	20609
897.708	20788
897.828	20587
897.949	20507
898.07	20533
898.19	20678
898.311	20674
898.431	20693
898.552	20686
898.672	20686
898.792	20697
898.913	20625
899.033	20575
899.153	20400
899.273	20305
899.393	20381
899.513	20476
899.633	20488
899.753	20450
899.873	20328
899.993	20446
900.113	20294
900.232	20298
900.352	20317
900.472	20271
900.591	20161
900.711	20305
900.83	20161
900.95	20298
901.069	20332
901.189	20065
901.308	19822
901.427	19769
901.546	19837
901.665	19856
901.784	19693
901.904	19632
902.023	19556
902.141	19468
902.26	19460
902.379	19324
902.498	19350
902.617	19137
902.735	19266
902.854	19213
902.973	19137
903.091	18977
903.21	19031
903.328	18932
903.446	19023
903.565	18764
903.683	18688
903.801	18658
903.919	18719
904.038	18612
904.156	18475
904.274	18551
904.392	18517
904.51	18418
904.627	18475
904.745	18509
904.863	18563
904.981	18334
905.098	18243
905.216	18216
905.334	18209
905.451	18224
905.569	18152
905.686	18174
905.803	18144
905.921	18007
906.038	18091
906.155	17942
906.272	17847
906.389	17984
906.506	17729
906.623	17733
906.74	17634
906.857	17539
906.974	17604
907.091	17745
907.208	17847
907.324	17726
907.441	17638
907.557	17528
907.674	17486
907.79	17372
907.907	17360
908.023	17493
908.139	17410
908.256	17387
908.372	17288
908.488	17284
908.604	17098
908.72	17143
908.836	17162
908.952	17151
909.068	17166
909.184	17299
909.3	17090
909.415	17155
909.531	17193
909.647	16790
909.762	16984
909.878	16873
909.993	16968
910.108	16847
910.224	16839
910.339	16786
910.454	16744
910.57	16611
910.685	16630
910.8	16786
910.915	16793
911.03	16565
911.145	16466
911.259	16470
911.374	16474
911.489	16382
911.604	16303
911.718	16154
911.833	16211
911.947	16150
912.062	16071
912.176	16200
912.291	16143
912.405	16135
912.519	16295
912.633	16341
912.748	16173
912.862	16139
912.976	16097
913.09	15884
913.204	15956
913.318	16059
913.431	16097
913.545	16086
913.659	16147
913.772	15941
913.886	15876
914	15899
914.113	15884
914.226	15880
914.34	15850
914.453	15675
914.566	15728
914.68	15713
914.793	15637
914.906	15492
915.019	15408
915.132	15412
915.245	15363
915.358	15355
915.47	15466
915.583	15298
915.696	15439
915.809	15420
915.921	15530
916.034	15344
916.146	15329
916.259	15165
916.371	15382
916.483	15214
916.595	15310
916.708	15180
916.82	15264
916.932	15119
917.044	15165
917.156	15154
917.268	15039
917.38	15097
917.491	14986
917.603	14990
917.715	14990
917.826	15173
917.938	14982
918.049	14731
918.161	14979
918.272	15119
918.384	15032
918.495	14887
918.606	14804
918.717	14807
918.828	14815
918.939	14838
919.05	14549
919.161	14765
919.272	14632
919.383	14590
919.494	14758
919.604	15020
919.715	14689
919.826	14674
919.936	14727
920.047	14781
920.157	14720
920.267	14925
920.378	14792
920.488	14640
920.598	14891
920.708	15066
920.818	14891
920.928	14895
921.038	14891
921.148	14967
921.258	14693
921.368	14621
921.477	14507
921.587	14438
921.697	14320
921.806	14526
921.916	14301
922.025	14180
922.134	14210
922.244	14069
922.353	14107
922.462	14005
922.571	13917
922.68	13746
922.789	13807
922.898	13776
923.007	13689
923.116	13765
923.224	13666
923.333	13708
923.442	13518
923.55	13483
923.659	13567
923.767	13624
923.876	13540
923.984	13571
924.092	13441
924.201	13476
924.309	13453
924.417	13422
924.525	13460
924.633	13453
924.741	14191
924.849	13179
924.956	13392
925.064	13126
925.172	13152
925.279	13114
925.387	13194
925.494	13183
925.602	13278
925.709	13301
925.816	13141
925.924	13129
926.031	13152
926.138	13171
926.245	13114
926.352	13031
926.459	13175
926.566	13179
926.673	12996
926.779	12943
926.886	12939
926.993	12722
927.099	12722
927.206	12700
927.312	12681
927.419	12817
927.525	12669
927.631	12757
927.737	12578
927.843	12597
927.95	12464
928.056	12464
928.162	12490
928.267	12525
928.373	13164
928.479	12620
928.585	12334
928.69	12475
928.796	12536
928.901	12395
929.007	12262
929.112	12452
929.218	12319
929.323	12281
929.428	12258
929.533	12372
929.638	12296
929.743	12190
929.848	12239
929.953	12190
930.058	12072
930.163	11855
930.267	11916
930.372	12114
930.477	11878
930.581	12159
930.685	12011
930.79	11832
930.894	11817
930.998	11752
931.103	12022
931.207	11524
931.311	11532
931.415	11383
931.519	11246
931.623	11227
