Data from test_V78500241_1051.txt Node
Date: Fri Mar 25 15:17:10 CST 2022
User: usil
Spectrometer: V785-0024
Trigger mode: 0
Integration Time (sec): 4.000000E-1
Scans to average: 1
Nonlinearity correction enabled: false
Boxcar width: 0
Storing dark spectrum: false
XAxis mode: Wavelengths
Number of Pixels in Spectrum: 1024
>>>>>Begin Spectral Data<<<<<
801.071	28055
801.214	28143
801.356	27709
801.499	27804
801.641	27682
801.783	27587
801.926	27800
802.068	27644
802.211	27595
802.353	27542
802.496	27424
802.638	27443
802.78	27351
802.923	27321
803.065	27298
803.208	27241
803.35	27336
803.492	27408
803.635	27580
803.777	27386
803.919	27660
804.061	27705
804.204	27637
804.346	27420
804.488	27427
804.63	27355
804.773	27447
804.915	27622
805.057	27755
805.199	27511
805.341	27694
805.483	27667
805.626	27755
805.768	27526
805.91	27679
806.052	27667
806.194	27587
806.336	27899
806.478	27686
806.62	27728
806.762	27937
806.904	27979
807.046	28131
807.188	28070
807.33	28002
807.472	28192
807.614	28116
807.756	28169
807.898	27994
808.04	27857
808.182	27979
808.324	28025
808.465	28006
808.607	28257
808.749	28344
808.891	28322
809.033	28565
809.174	28367
809.316	28234
809.458	28363
809.6	28341
809.741	28413
809.883	28516
810.025	28725
810.166	28653
810.308	28694
810.45	28584
810.591	28527
810.733	28519
810.875	28200
811.016	28150
811.158	28211
811.299	28497
811.441	28531
811.582	28447
811.724	28306
811.865	28344
812.007	28360
812.148	28360
812.29	28318
812.431	28546
812.573	28641
812.714	28580
812.855	28843
812.997	29018
813.138	29113
813.279	28927
813.421	28991
813.562	28820
813.703	28702
813.845	28653
813.986	28337
814.127	28154
814.268	28234
814.41	28025
814.551	28070
814.692	28032
814.833	28128
814.974	28169
815.115	28082
815.256	27960
815.397	27895
815.539	27922
815.68	28006
815.821	27850
815.962	27835
816.103	27785
816.244	27641
816.385	27568
816.526	27633
816.666	27504
816.807	27336
816.948	27370
817.089	27545
817.23	27340
817.371	27321
817.512	27374
817.653	27386
817.793	27393
817.934	27374
818.075	27488
818.216	27439
818.356	27329
818.497	27279
818.638	27131
818.778	27062
818.919	27112
819.06	27237
819.2	27256
819.341	27382
819.481	27397
819.622	27545
819.762	27660
819.903	27663
820.043	27656
820.184	27591
820.324	27367
820.465	27447
820.605	27367
820.746	27469
820.886	27275
821.026	27496
821.167	27515
821.307	27386
821.447	27424
821.588	27298
821.728	27089
821.868	27104
822.008	26845
822.149	26769
822.289	26758
822.429	26625
822.569	26537
822.709	26594
822.849	26412
822.99	26442
823.13	26290
823.27	26282
823.41	26092
823.55	26046
823.69	26145
823.83	26180
823.97	26138
824.11	26035
824.25	25940
824.389	25986
824.529	26088
824.669	26054
824.809	26065
824.949	26164
825.089	26168
825.228	26077
825.368	25852
825.508	25868
825.648	26062
825.787	26043
825.927	25986
826.067	25978
826.206	25940
826.346	26024
826.485	26062
826.625	25860
826.765	25951
826.904	25959
827.044	25734
827.183	25658
827.323	25639
827.462	25696
827.601	25772
827.741	25624
827.88	25765
828.02	25483
828.159	25597
828.298	25655
828.437	25620
828.577	25472
828.716	25811
828.855	25544
828.994	25426
829.134	25343
829.273	25384
829.412	25255
829.551	25244
829.69	25403
829.829	25339
829.968	25430
830.107	25411
830.246	25377
830.385	25255
830.524	25175
830.663	25126
830.802	25114
830.941	24966
831.08	24707
831.219	24962
831.357	24977
831.496	25194
831.635	25008
831.774	24905
831.913	24734
832.051	24757
832.19	24741
832.329	24692
832.467	24772
832.606	24684
832.744	24505
832.883	24620
833.022	24559
833.16	24623
833.299	24760
833.437	24585
833.576	24753
833.714	24646
833.852	24760
833.991	24852
834.129	24787
834.267	24620
834.406	24658
834.544	24749
834.682	24840
834.821	24593
834.959	24829
835.097	24692
835.235	24650
835.373	24795
835.511	24734
835.65	24563
835.788	24521
835.926	24505
836.064	24346
836.202	24414
836.34	24486
836.478	24711
836.615	24650
836.753	24502
836.891	24665
837.029	24593
837.167	24437
837.305	24456
837.443	24437
837.58	24399
837.718	24433
837.856	24426
837.993	24232
838.131	24350
838.269	24216
838.406	24213
838.544	24148
838.681	23988
838.819	24068
838.956	23779
839.094	23767
839.231	23931
839.369	24106
839.506	24251
839.643	24030
839.781	23920
839.918	23866
840.055	23840
840.193	23748
840.33	23672
840.467	23882
840.604	23824
840.742	24079
840.879	23676
841.016	23813
841.153	23653
841.29	23859
841.427	23695
841.564	23680
841.701	23813
841.838	23691
841.975	23646
842.112	23642
842.249	23455
842.385	23516
842.522	23805
842.659	23486
842.796	23600
842.933	23467
843.069	23512
843.206	23592
843.343	23539
843.479	23516
843.616	23623
843.752	23296
843.889	23341
844.025	23520
844.162	23322
844.298	23421
844.435	23334
844.571	23284
844.708	23231
844.844	23440
844.98	23509
845.117	23402
845.253	23296
845.389	23185
845.525	23204
845.661	23212
845.798	22896
845.934	23071
846.07	23010
846.206	23189
846.342	23109
846.478	22984
846.614	22835
846.75	22679
846.886	22656
847.022	22763
847.158	22774
847.294	22740
847.429	22763
847.565	22656
847.701	23041
847.837	22527
847.972	22546
848.108	22615
848.244	22615
848.379	22424
848.515	22394
848.65	22341
848.786	22295
848.921	22428
849.057	22554
849.192	22432
849.328	22306
849.463	22253
849.598	22348
849.734	22337
849.869	22173
850.004	22101
850.14	22150
850.275	22150
850.41	22048
850.545	21998
850.68	22051
850.815	22158
850.95	22150
851.085	22207
851.22	22223
851.355	22188
851.49	22101
851.625	22090
851.76	22006
851.895	21991
852.03	21994
852.165	22055
852.299	22166
852.434	22188
852.569	22097
852.703	22067
852.838	22219
852.973	22188
853.107	22322
853.242	22032
853.376	21960
853.511	21823
853.645	21869
853.78	22032
853.914	21937
854.048	21949
854.183	21884
854.317	22032
854.451	22070
854.585	21895
854.72	21865
854.854	21922
854.988	21770
855.122	21812
855.256	21854
855.39	21838
855.524	21991
855.658	21884
855.792	21907
855.926	22051
856.06	21983
856.194	22006
856.327	21907
856.461	21892
856.595	21850
856.729	21823
856.862	22025
856.996	21880
857.13	21960
857.263	22090
857.397	21884
857.53	21983
857.664	22025
857.797	22074
857.931	22067
858.064	22006
858.197	21972
858.331	21918
858.464	21838
858.597	21854
858.731	21964
858.864	21983
858.997	21762
859.13	21869
859.263	21907
859.396	22109
859.529	21884
859.662	21827
859.795	21816
859.928	21949
860.061	21926
860.194	22147
860.327	22067
860.46	21972
860.592	22044
860.725	22131
860.858	21873
860.99	21918
861.123	21934
861.256	21819
861.388	22078
861.521	22634
861.653	21854
861.786	21679
861.918	21770
862.05	21819
862.183	21797
862.315	21899
862.447	21888
862.58	21915
862.712	21648
862.844	21606
862.976	21694
863.108	21682
863.24	22112
863.372	21542
863.504	21701
863.636	21663
863.768	21701
863.9	21637
864.032	21511
864.164	21637
864.296	21660
864.428	21622
864.559	21747
864.691	21816
864.823	21690
864.954	21686
865.086	21595
865.217	21428
865.349	21431
865.48	21542
865.612	21526
865.743	21679
865.875	21492
866.006	21530
866.137	21511
866.269	21492
866.4	21466
866.531	21378
866.662	21431
866.793	21443
866.924	21492
867.055	21504
867.186	21458
867.317	21378
867.448	21287
867.579	21469
867.71	21306
867.841	21412
867.972	21462
868.103	21500
868.233	21458
868.364	21568
868.495	21568
868.625	21644
868.756	21682
868.886	21720
869.017	21728
869.147	21816
869.278	21827
869.408	21675
869.539	21622
869.669	21766
869.799	21800
869.929	21793
870.06	21804
870.19	22013
870.32	21979
870.45	21975
870.58	22120
870.71	22169
870.84	22169
870.97	22010
871.1	22158
871.23	22234
871.36	22295
871.489	22036
871.619	22211
871.749	22169
871.879	22341
872.008	22246
872.138	22405
872.267	22261
872.397	22177
872.526	22128
872.656	21991
872.785	22207
872.915	22280
873.044	22379
873.173	22223
873.303	22284
873.432	22314
873.561	22485
873.69	22276
873.819	22226
873.948	22413
874.077	22394
874.206	22291
874.335	22272
874.464	22394
874.593	22603
874.722	22561
874.851	22531
874.979	22516
875.108	22668
875.237	22432
875.365	22394
875.494	22546
875.623	22508
875.751	22542
875.88	22565
876.008	22679
876.136	22786
876.265	22923
876.393	23117
876.521	22942
876.65	22995
876.778	22946
876.906	22892
877.034	22911
877.162	22858
877.29	22767
877.418	22923
877.546	22820
877.674	22877
877.802	22843
877.93	22889
878.058	22812
878.185	22744
878.313	22828
878.441	22877
878.568	22679
878.696	22873
878.824	22904
878.951	22942
879.079	23014
879.206	23159
879.333	22987
879.461	22854
879.588	22934
879.715	22987
879.842	23250
879.97	23041
880.097	22733
880.224	22634
880.351	22675
880.478	22596
880.605	22497
880.732	22580
880.859	22862
880.986	22706
881.112	22607
881.239	22481
881.366	22341
881.493	22413
881.619	22299
881.746	22234
881.872	22196
881.999	22253
882.125	22135
882.252	22234
882.378	22219
882.505	22268
882.631	22128
882.757	21857
882.883	21994
883.01	21968
883.136	21857
883.262	21850
883.388	21793
883.514	21972
883.64	21945
883.766	21800
883.892	21603
884.018	21812
884.143	21846
884.269	21915
884.395	21599
884.52	21557
884.646	21705
884.772	21507
884.897	21359
885.023	21462
885.148	21686
885.274	21644
885.399	21682
885.524	21511
885.65	21462
885.775	21545
885.9	21633
886.025	21751
886.15	21572
886.275	21507
886.4	21405
886.525	21553
886.65	21336
886.775	21542
886.9	21538
887.025	21755
887.149	21557
887.274	21363
887.399	21291
887.523	21393
887.648	21359
887.773	21214
887.897	21245
888.021	21245
888.146	21321
888.27	21283
888.395	21405
888.519	21367
888.643	21397
888.767	21416
888.891	21268
889.015	21096
889.139	21272
889.263	21127
889.387	21302
889.511	21389
889.635	21161
889.759	21184
889.883	21077
890.006	21249
890.13	21203
890.254	21081
890.377	20944
890.501	20826
890.624	20853
890.748	20979
890.871	20754
890.995	20701
891.118	20564
891.241	20689
891.364	20739
891.488	20762
891.611	20739
891.734	20678
891.857	20819
891.98	20716
892.103	20724
892.226	20655
892.349	20693
892.471	20537
892.594	20602
892.717	20587
892.839	20613
892.962	20651
893.085	20648
893.207	20609
893.33	20556
893.452	20537
893.575	20617
893.697	20625
893.819	20682
893.941	20781
894.064	20625
894.186	20499
894.308	20480
894.43	20667
894.552	20735
894.674	20716
894.796	20454
894.918	20530
895.04	20629
895.161	20530
895.283	20590
895.405	20609
895.526	20640
895.648	20545
895.769	20530
895.891	20473
896.012	20746
896.134	20526
896.255	20613
896.376	20560
896.498	20667
896.619	20545
896.74	20640
896.861	20602
896.982	20944
897.103	21013
897.224	20807
897.345	20785
897.466	20590
897.587	20708
897.708	20811
897.828	20868
897.949	20727
898.07	20537
898.19	20754
898.311	20811
898.431	20640
898.552	20629
898.672	20716
898.792	20804
898.913	20693
899.033	20579
899.153	20655
899.273	20415
899.393	20492
899.513	20564
899.633	20556
899.753	20499
899.873	20503
899.993	20503
900.113	20374
900.232	20450
900.352	20431
900.472	20431
900.591	20263
900.711	20328
900.83	20195
900.95	20298
901.069	20381
901.189	20084
901.308	19875
901.427	19788
901.546	19898
901.665	19803
901.784	19917
901.904	19765
902.023	19609
902.141	19464
902.26	19384
902.379	19449
902.498	19327
902.617	19285
902.735	19373
902.854	19270
902.973	19209
903.091	18993
903.21	19050
903.328	19023
903.446	19038
903.565	18867
903.683	18802
903.801	18738
903.919	18852
904.038	18669
904.156	18658
904.274	18654
904.392	18502
904.51	18540
904.627	18582
904.745	18703
904.863	18745
904.981	18410
905.098	18209
905.216	18178
905.334	18357
905.451	18369
905.569	18171
905.686	18330
905.803	18258
905.921	18091
906.038	18125
906.155	18095
906.272	17965
906.389	18015
906.506	17889
906.623	17863
906.74	17802
906.857	17726
906.974	17714
907.091	17840
907.208	17946
907.324	17813
907.441	17634
907.557	17558
907.674	17512
907.79	17421
907.907	17444
908.023	17524
908.139	17528
908.256	17543
908.372	17395
908.488	17383
908.604	17360
908.72	17258
908.836	17223
908.952	17197
909.068	17227
909.184	17303
909.3	17181
909.415	17337
909.531	17261
909.647	16911
909.762	16987
909.878	16744
909.993	16938
910.108	16915
910.224	16847
910.339	16896
910.454	16767
910.57	16744
910.685	16656
910.8	16923
910.915	16843
911.03	16687
911.145	16554
911.259	16500
911.374	16504
911.489	16371
911.604	16432
911.718	16253
911.833	16299
911.947	16219
912.062	16162
912.176	16226
912.291	16154
912.405	16177
912.519	16382
912.633	16432
912.748	16295
912.862	16230
912.976	16082
913.09	16010
913.204	16010
913.318	16162
913.431	16219
913.545	16116
913.659	16196
913.772	15960
913.886	15873
914	15842
914.113	15930
914.226	15941
914.34	15934
914.453	15759
914.566	15850
914.68	15823
914.793	15778
914.906	15523
915.019	15454
915.132	15447
915.245	15538
915.358	15462
915.47	15553
915.583	15450
915.696	15477
915.809	15435
915.921	15652
916.034	15367
916.146	15405
916.259	15329
916.371	15367
916.483	15336
916.595	15340
916.708	15317
916.82	15275
916.932	15116
917.044	15291
917.156	15233
917.268	15093
917.38	15199
917.491	15123
917.603	15085
917.715	15028
917.826	15058
917.938	15043
918.049	14979
918.161	15108
918.272	15203
918.384	15237
918.495	14963
918.606	14929
918.717	14769
918.828	14902
918.939	14933
919.05	14754
919.161	14864
919.272	14712
919.383	14682
919.494	14937
919.604	14937
919.715	14754
919.826	14724
919.936	14613
920.047	14857
920.157	14777
920.267	14918
920.378	14792
920.488	14735
920.598	14944
920.708	15074
920.818	14994
920.928	14910
921.038	15112
921.148	15028
921.258	14769
921.368	14598
921.477	14495
921.587	14514
921.697	14366
921.806	14514
921.916	14301
922.025	14142
922.134	14187
922.244	14134
922.353	14210
922.462	14077
922.571	13989
922.68	13811
922.789	13807
922.898	13883
923.007	13849
923.116	13799
923.224	13738
923.333	13875
923.442	13723
923.55	13620
923.659	13685
923.767	13704
923.876	13449
923.984	13643
924.092	13586
924.201	13502
924.309	13480
924.417	13533
924.525	13441
924.633	13529
924.741	14457
924.849	13312
924.956	13381
925.064	13244
925.172	13126
925.279	13244
925.387	13164
925.494	13240
925.602	13320
925.709	13282
925.816	13145
925.924	13187
926.031	13198
926.138	13213
926.245	13190
926.352	13065
926.459	13183
926.566	13202
926.673	13088
926.779	12897
926.886	12947
926.993	12730
927.099	12760
927.206	12749
927.312	12768
927.419	12688
927.525	12779
927.631	12772
927.737	12677
927.843	12654
927.95	12517
928.056	12540
928.162	12608
928.267	12623
928.373	13206
928.479	12563
928.585	12467
928.69	12570
928.796	12589
928.901	12460
929.007	12289
929.112	12502
929.218	12350
929.323	12319
929.428	12308
929.533	12467
929.638	12300
929.743	12289
929.848	12369
929.953	12216
930.058	12098
930.163	11912
930.267	11977
930.372	12098
930.477	11912
930.581	12186
930.685	12091
930.79	11897
930.894	11882
930.998	11870
931.103	11942
931.207	11642
931.311	11570
931.415	11474
931.519	11307
931.623	11269
