Data from test_V78500241_680.txt Node
Date: Fri Mar 25 15:14:35 CST 2022
User: usil
Spectrometer: V785-0024
Trigger mode: 0
Integration Time (sec): 4.000000E-1
Scans to average: 1
Nonlinearity correction enabled: false
Boxcar width: 0
Storing dark spectrum: false
XAxis mode: Wavelengths
Number of Pixels in Spectrum: 1024
>>>>>Begin Spectral Data<<<<<
801.071	28017
801.214	27987
801.356	27827
801.499	27922
801.641	27599
801.783	27637
801.926	27667
802.068	27599
802.211	27599
802.353	27488
802.496	27462
802.638	27218
802.78	27351
802.923	27302
803.065	27154
803.208	27344
803.35	27416
803.492	27363
803.635	27462
803.777	27450
803.919	27504
804.061	27739
804.204	27610
804.346	27382
804.488	27355
804.63	27462
804.773	27294
804.915	27382
805.057	27599
805.199	27553
805.341	27599
805.483	27785
805.626	27545
805.768	27496
805.91	27603
806.052	27671
806.194	27671
806.336	27831
806.478	27724
806.62	27576
806.762	27667
806.904	27998
807.046	28124
807.188	28067
807.33	27850
807.472	28181
807.614	27869
807.756	28101
807.898	28006
808.04	27812
808.182	27854
808.324	27846
808.465	27972
808.607	28093
808.749	28303
808.891	28341
809.033	28440
809.174	28341
809.316	28322
809.458	28352
809.6	28261
809.741	28417
809.883	28367
810.025	28523
810.166	28577
810.308	28645
810.45	28596
810.591	28542
810.733	28436
810.875	28375
811.016	28143
811.158	28166
811.299	28390
811.441	28413
811.582	28447
811.724	28291
811.865	28120
812.007	28337
812.148	28417
812.29	28344
812.431	28592
812.573	28752
812.714	28881
812.855	28801
812.997	28999
813.138	29048
813.279	28927
813.421	28976
813.562	28850
813.703	28691
813.845	28698
813.986	28379
814.127	28147
814.268	28002
814.41	28017
814.551	27949
814.692	28116
814.833	28040
814.974	28082
815.115	28002
815.256	27873
815.397	27827
815.539	27964
815.68	27884
815.821	27770
815.962	27880
816.103	27732
816.244	27648
816.385	27625
816.526	27614
816.666	27466
816.807	27401
816.948	27348
817.089	27629
817.23	27450
817.371	27378
817.512	27367
817.653	27473
817.793	27378
817.934	27374
818.075	27363
818.216	27408
818.356	27199
818.497	27207
818.638	27138
818.778	27058
818.919	27131
819.06	27230
819.2	27131
819.341	27313
819.481	27207
819.622	27545
819.762	27583
819.903	27614
820.043	27641
820.184	27564
820.324	27450
820.465	27443
820.605	27340
820.746	27389
820.886	27317
821.026	27344
821.167	27336
821.307	27488
821.447	27222
821.588	27199
821.728	27096
821.868	26994
822.008	26804
822.149	26777
822.289	26804
822.429	26579
822.569	26492
822.709	26499
822.849	26244
822.99	26404
823.13	26191
823.27	26225
823.41	26229
823.55	26001
823.69	26161
823.83	26065
823.97	26084
824.11	25917
824.25	25860
824.389	25909
824.529	26130
824.669	26031
824.809	26088
824.949	26119
825.089	25974
825.228	25932
825.368	25917
825.508	25902
825.648	25845
825.787	25818
825.927	25822
826.067	25776
826.206	25818
826.346	25765
826.485	25845
826.625	25841
826.765	25917
826.904	25913
827.044	25677
827.183	25594
827.323	25438
827.462	25567
827.601	25533
827.741	25563
827.88	25597
828.02	25419
828.159	25613
828.298	25392
828.437	25662
828.577	25407
828.716	25613
828.855	25441
828.994	25354
829.134	25206
829.273	25369
829.412	25209
829.551	25244
829.69	25316
829.829	25320
829.968	25384
830.107	25293
830.246	25213
830.385	25244
830.524	25107
830.663	25076
830.802	24913
830.941	24833
831.08	24821
831.219	24905
831.357	24833
831.496	25084
831.635	24897
831.774	24768
831.913	24760
832.051	24760
832.19	24783
832.329	24669
832.467	24540
832.606	24544
832.744	24559
832.883	24559
833.022	24532
833.16	24563
833.299	24631
833.437	24585
833.576	24597
833.714	24582
833.852	24627
833.991	24696
834.129	24684
834.267	24688
834.406	24692
834.544	24745
834.682	24612
834.821	24677
834.959	24749
835.097	24559
835.235	24665
835.373	24677
835.511	24570
835.65	24532
835.788	24441
835.926	24296
836.064	24342
836.202	24346
836.34	24509
836.478	24445
836.615	24330
836.753	24494
836.891	24426
837.029	24323
837.167	24369
837.305	24289
837.443	24281
837.58	24281
837.718	24330
837.856	24296
837.993	24235
838.131	24186
838.269	24163
838.406	24129
838.544	24057
838.681	23927
838.819	23889
838.956	23836
839.094	23676
839.231	23855
839.369	23939
839.506	24106
839.643	23988
839.781	23710
839.918	23718
840.055	23855
840.193	23699
840.33	23665
840.467	23581
840.604	23665
840.742	23912
840.879	23600
841.016	23684
841.153	23581
841.29	23783
841.427	23604
841.564	23585
841.701	23676
841.838	23608
841.975	23619
842.112	23455
842.249	23653
842.385	23440
842.522	23493
842.659	23524
842.796	23383
842.933	23440
843.069	23448
843.206	23402
843.343	23421
843.479	23284
843.616	23429
843.752	23143
843.889	23098
844.025	23227
844.162	23166
844.298	23242
844.435	23200
844.571	23181
844.708	23181
844.844	23330
844.98	23376
845.117	23398
845.253	23071
845.389	22968
845.525	23113
845.661	22987
845.798	22934
845.934	22976
846.07	22824
846.206	22980
846.342	23071
846.478	22835
846.614	22885
846.75	22611
846.886	22615
847.022	22656
847.158	22755
847.294	22561
847.429	22649
847.565	22649
847.701	22759
847.837	22303
847.972	22291
848.108	22421
848.244	22386
848.379	22379
848.515	22223
848.65	22188
848.786	22352
848.921	22249
849.057	22436
849.192	22371
849.328	22268
849.463	22284
849.598	22192
849.734	22204
849.869	22128
850.004	21968
850.14	21991
850.275	21991
850.41	21774
850.545	21968
850.68	21895
850.815	21994
850.95	21998
851.085	22131
851.22	22067
851.355	22074
851.49	21987
851.625	21960
851.76	21899
851.895	21922
852.03	21804
852.165	21892
852.299	22067
852.434	22036
852.569	22021
852.703	21960
852.838	22013
852.973	22112
853.107	22120
853.242	21835
853.376	21884
853.511	21660
853.645	21778
853.78	21895
853.914	21800
854.048	21717
854.183	21762
854.317	21823
854.451	21937
854.585	21846
854.72	21850
854.854	21899
854.988	21823
855.122	21762
855.256	21789
855.39	21755
855.524	21800
855.658	21846
855.792	21854
855.926	21774
856.06	21880
856.194	21854
856.327	21759
856.461	21800
856.595	21812
856.729	21835
856.862	21884
856.996	21892
857.13	21808
857.263	21846
857.397	21892
857.53	21781
857.664	21808
857.797	22013
857.931	21945
858.064	21850
858.197	21907
858.331	21797
858.464	21827
858.597	21698
858.731	21781
858.864	21660
858.997	21686
859.13	21808
859.263	21762
859.396	21831
859.529	21800
859.662	21770
859.795	21705
859.928	21884
860.061	22017
860.194	22090
860.327	21869
860.46	21907
860.592	21998
860.725	21960
860.858	21915
860.99	21854
861.123	21701
861.256	21759
861.388	21747
861.521	22592
861.653	21709
861.786	21713
861.918	21530
862.05	21690
862.183	21694
862.315	21762
862.447	21774
862.58	21880
862.712	21568
862.844	21485
862.976	21637
863.108	21557
863.24	21846
863.372	21519
863.504	21424
863.636	21473
863.768	21564
863.9	21473
864.032	21466
864.164	21424
864.296	21428
864.428	21595
864.559	21705
864.691	21583
864.823	21492
864.954	21511
865.086	21485
865.217	21443
865.349	21291
865.48	21351
865.612	21435
865.743	21504
865.875	21443
866.006	21386
866.137	21336
866.269	21374
866.4	21363
866.531	21412
866.662	21260
866.793	21283
866.924	21272
867.055	21374
867.186	21378
867.317	21378
867.448	21291
867.579	21439
867.71	21370
867.841	21264
867.972	21408
868.103	21256
868.233	21298
868.364	21336
868.495	21435
868.625	21542
868.756	21641
868.886	21450
869.017	21576
869.147	21637
869.278	21736
869.408	21576
869.539	21526
869.669	21610
869.799	21599
869.929	21648
870.06	21663
870.19	21842
870.32	21698
870.45	21888
870.58	21979
870.71	22013
870.84	21972
870.97	22051
871.1	21861
871.23	22147
871.36	22143
871.489	22093
871.619	22040
871.749	22109
871.879	22090
872.008	22173
872.138	22147
872.267	22116
872.397	22059
872.526	22051
872.656	21922
872.785	22013
872.915	22078
873.044	22253
873.173	22139
873.303	22272
873.432	22261
873.561	22196
873.69	22207
873.819	22093
873.948	22192
874.077	22325
874.206	22166
874.335	22188
874.464	22249
874.593	22356
874.722	22181
874.851	22421
874.979	22607
875.108	22451
875.237	22344
875.365	22147
875.494	22276
875.623	22462
875.751	22375
875.88	22497
876.008	22371
876.136	22455
876.265	22835
876.393	22904
876.521	22782
876.65	22877
876.778	22946
876.906	22683
877.034	22733
877.162	22641
877.29	22706
877.418	22809
877.546	22759
877.674	22694
877.802	22862
877.93	22698
878.058	22664
878.185	22637
878.313	22588
878.441	22801
878.568	22497
878.696	22691
878.824	22706
878.951	22729
879.079	22934
879.206	22908
879.333	22930
879.461	22767
879.588	22759
879.715	22965
879.842	22938
879.97	22869
880.097	22557
880.224	22630
880.351	22565
880.478	22588
880.605	22569
880.732	22497
880.859	22862
880.986	22409
881.112	22542
881.239	22402
881.366	22284
881.493	22188
881.619	22070
881.746	22128
881.872	22200
881.999	22177
882.125	22166
882.252	22128
882.378	22188
882.505	22200
882.631	21991
882.757	21846
882.883	21907
883.01	21865
883.136	21785
883.262	21759
883.388	21572
883.514	21781
883.64	21846
883.766	21827
883.892	21538
884.018	21637
884.143	21759
884.269	21899
884.395	21542
884.52	21321
884.646	21435
884.772	21325
884.897	21256
885.023	21603
885.148	21538
885.274	21618
885.399	21458
885.524	21466
885.65	21526
885.775	21481
885.9	21443
886.025	21564
886.15	21492
886.275	21435
886.4	21401
886.525	21473
886.65	21363
886.775	21317
886.9	21507
887.025	21507
887.149	21416
887.274	21340
887.399	21214
887.523	21287
887.648	21096
887.773	21074
887.897	21214
888.021	21207
888.146	21180
888.27	21329
888.395	21294
888.519	21268
888.643	21268
888.767	21176
888.891	21119
889.015	21051
889.139	21100
889.263	20910
889.387	21020
889.511	21058
889.635	21112
889.759	20990
889.883	20963
890.006	21119
890.13	21017
890.254	20887
890.377	20944
890.501	20712
890.624	20708
890.748	20773
890.871	20579
890.995	20609
891.118	20537
891.241	20583
891.364	20636
891.488	20697
891.611	20526
891.734	20667
891.857	20518
891.98	20461
892.103	20568
892.226	20461
892.349	20492
892.471	20358
892.594	20488
892.717	20507
892.839	20431
892.962	20484
893.085	20571
893.207	20503
893.33	20362
893.452	20431
893.575	20473
893.697	20381
893.819	20579
893.941	20659
894.064	20602
894.186	20419
894.308	20446
894.43	20438
894.552	20609
894.674	20564
894.796	20442
894.918	20389
895.04	20488
895.161	20511
895.283	20412
895.405	20465
895.526	20476
895.648	20488
895.769	20465
895.891	20389
896.012	20518
896.134	20545
896.255	20461
896.376	20374
896.498	20552
896.619	20480
896.74	20400
896.861	20469
896.982	20701
897.103	20948
897.224	20629
897.345	20674
897.466	20613
897.587	20651
897.708	20754
897.828	20701
897.949	20644
898.07	20438
898.19	20693
898.311	20625
898.431	20651
898.552	20609
898.672	20800
898.792	20693
898.913	20686
899.033	20533
899.153	20545
899.273	20362
899.393	20393
899.513	20495
899.633	20415
899.753	20461
899.873	20339
899.993	20393
900.113	20286
900.232	20351
900.352	20290
900.472	20355
900.591	20172
900.711	20275
900.83	20199
900.95	20377
901.069	20214
901.189	20020
901.308	19852
901.427	19780
901.546	19757
901.665	19803
901.784	19734
901.904	19696
902.023	19548
902.141	19365
902.26	19324
902.379	19339
902.498	19297
902.617	19324
902.735	19301
902.854	19266
902.973	19187
903.091	18886
903.21	19084
903.328	19023
903.446	18935
903.565	18707
903.683	18730
903.801	18707
903.919	18681
904.038	18620
904.156	18498
904.274	18589
904.392	18350
904.51	18502
904.627	18593
904.745	18669
904.863	18623
904.981	18426
905.098	18243
905.216	18224
905.334	18262
905.451	18232
905.569	18136
905.686	18220
905.803	18163
905.921	18076
906.038	18087
906.155	17988
906.272	17946
906.389	17832
906.506	17775
906.623	17691
906.74	17748
906.857	17630
906.974	17665
907.091	17783
907.208	17855
907.324	17729
907.441	17642
907.557	17459
907.674	17543
907.79	17436
907.907	17391
908.023	17543
908.139	17516
908.256	17391
908.372	17315
908.488	17292
908.604	17239
908.72	17212
908.836	17269
908.952	17086
909.068	17113
909.184	17227
909.3	17216
909.415	17235
909.531	17025
909.647	16919
909.762	16908
909.878	16946
909.993	16850
910.108	16885
910.224	16843
910.339	16854
910.454	16740
910.57	16763
910.685	16607
910.8	16919
910.915	16790
911.03	16721
911.145	16462
911.259	16428
911.374	16523
911.489	16398
911.604	16363
911.718	16173
911.833	16116
911.947	16192
912.062	15953
912.176	16196
912.291	16124
912.405	16249
912.519	16337
912.633	16405
912.748	16276
912.862	16211
912.976	16010
913.09	15865
913.204	15911
913.318	16013
913.431	16112
913.545	16002
913.659	16166
913.772	15926
913.886	15819
914	15774
914.113	15907
914.226	15975
914.34	15812
914.453	15701
914.566	15827
914.68	15637
914.793	15622
914.906	15515
915.019	15408
915.132	15374
915.245	15447
915.358	15462
915.47	15382
915.583	15443
915.696	15462
915.809	15507
915.921	15622
916.034	15367
916.146	15336
916.259	15188
916.371	15408
916.483	15317
916.595	15256
916.708	15272
916.82	15233
916.932	15173
917.044	15233
917.156	15184
917.268	15119
917.38	15020
917.491	15062
917.603	14952
917.715	15112
917.826	15001
917.938	14887
918.049	14883
918.161	14925
918.272	15089
918.384	15138
918.495	14975
918.606	14876
918.717	14788
918.828	14845
918.939	14781
919.05	14689
919.161	14785
919.272	14712
919.383	14697
919.494	14807
919.604	15024
919.715	14792
919.826	14765
919.936	14705
920.047	14849
920.157	14781
920.267	14921
920.378	14788
920.488	14769
920.598	14937
920.708	15089
920.818	14857
920.928	14918
921.038	15047
921.148	14986
921.258	14705
921.368	14682
921.477	14613
921.587	14351
921.697	14396
921.806	14419
921.916	14282
922.025	14256
922.134	14058
922.244	13963
922.353	14119
922.462	14103
922.571	13944
922.68	13811
922.789	13746
922.898	13807
923.007	13776
923.116	13811
923.224	13731
923.333	13757
923.442	13586
923.55	13597
923.659	13567
923.767	13666
923.876	13578
923.984	13609
924.092	13426
924.201	13571
924.309	13487
924.417	13506
924.525	13438
924.633	13506
924.741	14157
924.849	13255
924.956	13362
925.064	13187
925.172	13091
925.279	13103
925.387	13194
925.494	13164
925.602	13270
925.709	13076
925.816	13080
925.924	13084
926.031	13118
926.138	13156
926.245	13141
926.352	13034
926.459	13149
926.566	13122
926.673	13031
926.779	12901
926.886	12772
926.993	12726
927.099	12734
927.206	12692
927.312	12726
927.419	12764
927.525	12711
927.631	12791
927.737	12703
927.843	12551
927.95	12407
928.056	12623
928.162	12551
928.267	12570
928.373	13228
928.479	12677
928.585	12361
928.69	12479
928.796	12540
928.901	12365
929.007	12266
929.112	12395
929.218	12311
929.323	12334
929.428	12308
929.533	12479
929.638	12175
929.743	12201
929.848	12243
929.953	12247
930.058	12148
930.163	11996
930.267	11935
930.372	12209
930.477	12045
930.581	12117
930.685	11965
930.79	11847
930.894	11885
930.998	11805
931.103	11961
931.207	11619
931.311	11509
931.415	11395
931.519	11277
931.623	11223
