Data from test_V78500241_531.txt Node
Date: Fri Mar 25 15:13:33 CST 2022
User: usil
Spectrometer: V785-0024
Trigger mode: 0
Integration Time (sec): 4.000000E-1
Scans to average: 1
Nonlinearity correction enabled: false
Boxcar width: 0
Storing dark spectrum: false
XAxis mode: Wavelengths
Number of Pixels in Spectrum: 1024
>>>>>Begin Spectral Data<<<<<
801.071	27374
801.214	27340
801.356	27222
801.499	27001
801.641	26902
801.783	26956
801.926	26906
802.068	26902
802.211	26826
802.353	26716
802.496	26575
802.638	26724
802.78	26651
802.923	26583
803.065	26488
803.208	26518
803.35	26621
803.492	26807
803.635	26792
803.777	26667
803.919	26857
804.061	27055
804.204	26754
804.346	26667
804.488	26731
804.63	26712
804.773	26640
804.915	26792
805.057	26910
805.199	26788
805.341	26792
805.483	26910
805.626	26762
805.768	26765
805.91	26823
806.052	26906
806.194	26800
806.336	27074
806.478	26853
806.62	26887
806.762	26868
806.904	27058
807.046	27268
807.188	27287
807.33	27367
807.472	27272
807.614	27230
807.756	27150
807.898	27226
808.04	27138
808.182	27020
808.324	27207
808.465	27211
808.607	27207
808.749	27481
808.891	27405
809.033	27720
809.174	27644
809.316	27515
809.458	27481
809.6	27477
809.741	27538
809.883	27618
810.025	27679
810.166	27770
810.308	27873
810.45	27736
810.591	27838
810.733	27644
810.875	27538
811.016	27386
811.158	27450
811.299	27542
811.441	27698
811.582	27629
811.724	27504
811.865	27473
812.007	27431
812.148	27618
812.29	27439
812.431	27572
812.573	27781
812.714	27918
812.855	27953
812.997	28032
813.138	28196
813.279	28162
813.421	28059
813.562	27968
813.703	27778
813.845	27728
813.986	27458
814.127	27310
814.268	27245
814.41	27100
814.551	27013
814.692	27222
814.833	27085
814.974	27211
815.115	27138
815.256	26921
815.397	27123
815.539	27089
815.68	26956
815.821	27024
815.962	27093
816.103	26887
816.244	26811
816.385	26720
816.526	26609
816.666	26545
816.807	26473
816.948	26552
817.089	26499
817.23	26412
817.371	26499
817.512	26495
817.653	26431
817.793	26389
817.934	26389
818.075	26606
818.216	26438
818.356	26415
818.497	26267
818.638	26142
818.778	26130
818.919	26172
819.06	26396
819.2	26191
819.341	26461
819.481	26492
819.622	26564
819.762	26678
819.903	26636
820.043	26575
820.184	26617
820.324	26530
820.465	26606
820.605	26632
820.746	26522
820.886	26396
821.026	26636
821.167	26465
821.307	26579
821.447	26465
821.588	26305
821.728	26282
821.868	26031
822.008	25955
822.149	25830
822.289	25826
822.429	25769
822.569	25616
822.709	25597
822.849	25411
822.99	25468
823.13	25331
823.27	25350
823.41	25152
823.55	25160
823.69	25084
823.83	25179
823.97	25198
824.11	24920
824.25	24947
824.389	25038
824.529	25076
824.669	25050
824.809	25148
824.949	25118
825.089	25160
825.228	25152
825.368	24859
825.508	24886
825.648	24852
825.787	25050
825.927	24992
826.067	24901
826.206	24859
826.346	24871
826.485	24886
826.625	24840
826.765	25065
826.904	24844
827.044	24738
827.183	24700
827.323	24555
827.462	24601
827.601	24639
827.741	24757
827.88	24665
828.02	24410
828.159	24559
828.298	24551
828.437	24616
828.577	24616
828.716	24665
828.855	24551
828.994	24338
829.134	24292
829.273	24391
829.412	24311
829.551	24243
829.69	24365
829.829	24391
829.968	24338
830.107	24346
830.246	24422
830.385	24353
830.524	24209
830.663	24155
830.802	23999
830.941	23878
831.08	24026
831.219	24057
831.357	23923
831.496	24178
831.635	23980
831.774	23847
831.913	23920
832.051	23779
832.19	23817
832.329	23859
832.467	23577
832.606	23649
832.744	23653
832.883	23630
833.022	23649
833.16	23505
833.299	23809
833.437	23764
833.576	23699
833.714	23649
833.852	23703
833.991	23874
834.129	23775
834.267	23802
834.406	23729
834.544	23847
834.682	23687
834.821	23714
834.959	23760
835.097	23665
835.235	23760
835.373	23665
835.511	23790
835.65	23524
835.788	23516
835.926	23524
836.064	23414
836.202	23330
836.34	23585
836.478	23554
836.615	23539
836.753	23562
836.891	23630
837.029	23611
837.167	23528
837.305	23490
837.443	23349
837.58	23315
837.718	23490
837.856	23444
837.993	23414
838.131	23356
838.269	23292
838.406	23239
838.544	23174
838.681	23064
838.819	22881
838.956	22835
839.094	22949
839.231	22824
839.369	22999
839.506	23239
839.643	23098
839.781	22805
839.918	22839
840.055	22953
840.193	22801
840.33	22759
840.467	22839
840.604	22866
840.742	23083
840.879	22641
841.016	22755
841.153	22675
841.29	22835
841.427	22839
841.564	22938
841.701	22858
841.838	22824
841.975	22694
842.112	22687
842.249	22565
842.385	22546
842.522	22752
842.659	22500
842.796	22538
842.933	22500
843.069	22531
843.206	22413
843.343	22550
843.479	22535
843.616	22691
843.752	22230
843.889	22367
844.025	22402
844.162	22291
844.298	22462
844.435	22314
844.571	22287
844.708	22314
844.844	22466
844.98	22447
845.117	22417
845.253	22196
845.389	22150
845.525	22257
845.661	22246
845.798	22078
845.934	22086
846.07	22040
846.206	22029
846.342	22261
846.478	21945
846.614	21975
846.75	21679
846.886	21800
847.022	21785
847.158	21861
847.294	21827
847.429	21888
847.565	21682
847.701	21983
847.837	21591
847.972	21336
848.108	21705
848.244	21633
848.379	21374
848.515	21401
848.65	21355
848.786	21237
848.921	21435
849.057	21511
849.192	21504
849.328	21443
849.463	21500
849.598	21344
849.734	21386
849.869	21272
850.004	21138
850.14	21233
850.275	21252
850.41	21104
850.545	21157
850.68	21150
850.815	21108
850.95	21043
851.085	21344
851.22	21192
851.355	21226
851.49	21230
851.625	21017
851.76	21081
851.895	21062
852.03	20990
852.165	21108
852.299	21176
852.434	21252
852.569	21116
852.703	21150
852.838	21264
852.973	21264
853.107	21252
853.242	21009
853.376	20948
853.511	20986
853.645	20921
853.78	21169
853.914	20921
854.048	20864
854.183	20937
854.317	20906
854.451	21096
854.585	20948
854.72	21020
854.854	21036
854.988	20918
855.122	20948
855.256	20906
855.39	20883
855.524	20952
855.658	20948
855.792	20910
855.926	21058
856.06	21017
856.194	21070
856.327	20948
856.461	20887
856.595	20853
856.729	20994
856.862	21131
856.996	21020
857.13	21043
857.263	21043
857.397	21116
857.53	21047
857.664	21055
857.797	21001
857.931	21024
858.064	20956
858.197	20986
858.331	21005
858.464	20899
858.597	20887
858.731	21066
858.864	20925
858.997	20952
859.13	21070
859.263	20979
859.396	21066
859.529	20967
859.662	20815
859.795	20963
859.928	20971
860.061	21173
860.194	21195
860.327	20952
860.46	21001
860.592	21165
860.725	21062
860.858	21077
860.99	20887
861.123	20948
861.256	20918
861.388	20864
861.521	21675
861.653	20864
861.786	20819
861.918	20880
862.05	20891
862.183	20800
862.315	20929
862.447	21066
862.58	20826
862.712	20682
862.844	20674
862.976	20689
863.108	20804
863.24	21005
863.372	20674
863.504	20697
863.636	20636
863.768	20765
863.9	20693
864.032	20594
864.164	20697
864.296	20724
864.428	20705
864.559	20762
864.691	20731
864.823	20701
864.954	20609
865.086	20602
865.217	20621
865.349	20480
865.48	20575
865.612	20598
865.743	20697
865.875	20621
866.006	20629
866.137	20575
866.269	20602
866.4	20708
866.531	20473
866.662	20602
866.793	20537
866.924	20484
867.055	20606
867.186	20594
867.317	20465
867.448	20522
867.579	20507
867.71	20469
867.841	20358
867.972	20533
868.103	20495
868.233	20526
868.364	20438
868.495	20587
868.625	20788
868.756	20823
868.886	20731
869.017	20788
869.147	20842
869.278	20823
869.408	20819
869.539	20762
869.669	20804
869.799	20880
869.929	20910
870.06	20792
870.19	21146
870.32	21005
870.45	21127
870.58	21173
870.71	21256
870.84	21169
870.97	21252
871.1	21142
871.23	21340
871.36	21359
871.489	21233
871.619	21431
871.749	21321
871.879	21302
872.008	21511
872.138	21298
872.267	21260
872.397	21135
872.526	21123
872.656	21192
872.785	21169
872.915	21412
873.044	21405
873.173	21473
873.303	21473
873.432	21526
873.561	21485
873.69	21393
873.819	21424
873.948	21454
874.077	21294
874.206	21306
874.335	21363
874.464	21530
874.593	21739
874.722	21675
874.851	21709
874.979	21679
875.108	21751
875.237	21534
875.365	21481
875.494	21564
875.623	21713
875.751	21564
875.88	21656
876.008	21717
876.136	21713
876.265	21876
876.393	22120
876.521	21934
876.65	22025
876.778	22002
876.906	21880
877.034	21941
877.162	21937
877.29	21827
877.418	21994
877.546	21934
877.674	21994
877.802	21956
877.93	22044
878.058	21907
878.185	21937
878.313	21930
878.441	21956
878.568	21831
878.696	21987
878.824	22025
878.951	22078
879.079	22139
879.206	22192
879.333	22082
879.461	21994
879.588	22032
879.715	22150
879.842	22276
879.97	22128
880.097	21816
880.224	21804
880.351	21827
880.478	21793
880.605	21701
880.732	21705
880.859	22013
880.986	21831
881.112	21759
881.239	21667
881.366	21462
881.493	21488
881.619	21408
881.746	21428
881.872	21424
881.999	21428
882.125	21363
882.252	21405
882.378	21344
882.505	21397
882.631	21279
882.757	21017
882.883	21085
883.01	21036
883.136	20952
883.262	20967
883.388	20796
883.514	21104
883.64	21043
883.766	20990
883.892	20872
884.018	20811
884.143	21036
884.269	21218
884.395	20735
884.52	20644
884.646	20659
884.772	20621
884.897	20587
885.023	20754
885.148	20861
885.274	20834
885.399	20826
885.524	20712
885.65	20682
885.775	20693
885.9	20636
886.025	20731
886.15	20834
886.275	20651
886.4	20731
886.525	20636
886.65	20625
886.775	20602
886.9	20845
887.025	20910
887.149	20655
887.274	20499
887.399	20492
887.523	20320
887.648	20404
887.773	20377
887.897	20526
888.021	20564
888.146	20412
888.27	20609
888.395	20503
888.519	20457
888.643	20568
888.767	20526
888.891	20427
889.015	20256
889.139	20237
889.263	20396
889.387	20438
889.511	20446
889.635	20400
889.759	20199
889.883	20343
890.006	20313
890.13	20431
890.254	20199
890.377	20065
890.501	20031
890.624	19978
890.748	19974
890.871	19959
890.995	19894
891.118	19864
891.241	19864
891.364	19852
891.488	20035
891.611	19917
891.734	19761
891.857	20027
891.98	19734
892.103	19947
892.226	19811
892.349	19970
892.471	19597
892.594	19856
892.717	19753
892.839	19776
892.962	19875
893.085	19814
893.207	19799
893.33	19689
893.452	19674
893.575	19799
893.697	19746
893.819	19936
893.941	19898
894.064	19833
894.186	19761
894.308	19761
894.43	19761
894.552	19879
894.674	19921
894.796	19677
894.918	19765
895.04	19746
895.161	19734
895.283	19761
895.405	19677
895.526	19715
895.648	19696
895.769	19734
895.891	19761
896.012	19852
896.134	19883
896.255	19750
896.376	19674
896.498	19833
896.619	19822
896.74	19753
896.861	19818
896.982	20172
897.103	20237
897.224	19970
897.345	20027
897.466	20050
897.587	19917
897.708	20153
897.828	20107
897.949	19909
898.07	19906
898.19	19849
898.311	20111
898.431	19974
898.552	20024
898.672	20027
898.792	20084
898.913	19871
899.033	19807
899.153	19841
899.273	19662
899.393	19693
899.513	19655
899.633	19826
899.753	19655
899.873	19742
899.993	19674
900.113	19693
900.232	19674
900.352	19708
900.472	19499
900.591	19460
900.711	19415
900.83	19426
900.95	19662
901.069	19620
901.189	19438
901.308	19388
901.427	19065
901.546	19202
901.665	19118
901.784	19027
901.904	18962
902.023	18977
902.141	18700
902.26	18623
902.379	18837
902.498	18555
902.617	18574
902.735	18631
902.854	18593
902.973	18635
903.091	18372
903.21	18365
903.328	18384
903.446	18167
903.565	18110
903.683	18129
903.801	17939
903.919	18011
904.038	18030
904.156	17828
904.274	17908
904.392	17798
904.51	17870
904.627	17916
904.745	17996
904.863	18030
904.981	17729
905.098	17539
905.216	17558
905.334	17634
905.451	17566
905.569	17471
905.686	17608
905.803	17535
905.921	17303
906.038	17429
906.155	17398
906.272	17193
906.389	17143
906.506	17060
906.623	17113
906.74	17113
906.857	17109
906.974	16942
907.091	17124
907.208	17277
907.324	17052
907.441	16987
907.557	16915
907.674	16805
907.79	16767
907.907	16733
908.023	16904
908.139	16793
908.256	16771
908.372	16717
908.488	16626
908.604	16603
908.72	16432
908.836	16459
908.952	16584
909.068	16588
909.184	16641
909.3	16626
909.415	16630
909.531	16550
909.647	16459
909.762	16276
909.878	16253
909.993	16272
910.108	16348
910.224	16329
910.339	16246
910.454	16048
910.57	16059
910.685	16002
910.8	16291
910.915	16105
911.03	16048
911.145	15922
911.259	15816
911.374	15846
911.489	15823
911.604	15637
911.718	15694
911.833	15652
911.947	15572
912.062	15492
912.176	15545
912.291	15584
912.405	15591
912.519	15850
912.633	15713
912.748	15755
912.862	15504
912.976	15370
913.09	15325
913.204	15466
913.318	15424
913.431	15542
913.545	15523
913.659	15443
913.772	15317
913.886	15218
914	15188
914.113	15348
914.226	15313
914.34	15241
914.453	15207
914.566	15260
914.68	15169
914.793	15043
914.906	14975
915.019	14891
915.132	14823
915.245	14830
915.358	14739
915.47	14716
915.583	14842
915.696	14777
915.809	14967
915.921	14929
916.034	14769
916.146	14773
916.259	14720
916.371	14785
916.483	14773
916.595	14636
916.708	14606
916.82	14640
916.932	14632
917.044	14625
917.156	14613
917.268	14480
917.38	14560
917.491	14484
917.603	14556
917.715	14556
917.826	14594
917.938	14503
918.049	14374
918.161	14404
918.272	14511
918.384	14480
918.495	14473
918.606	14282
918.717	14225
918.828	14313
918.939	14271
919.05	14206
919.161	14164
919.272	14103
919.383	14161
919.494	14366
919.604	14537
919.715	14328
919.826	14138
919.936	14225
920.047	14343
920.157	14233
920.267	14533
920.378	14233
920.488	14305
920.598	14355
920.708	14564
920.818	14400
920.928	14309
921.038	14522
921.148	14495
921.258	14191
921.368	14065
921.477	14062
921.587	13986
921.697	13883
921.806	13978
921.916	13830
922.025	13670
922.134	13655
922.244	13540
922.353	13639
922.462	13518
922.571	13381
922.68	13362
922.789	13278
922.898	13232
923.007	13175
923.116	13384
923.224	13278
923.333	13202
923.442	13133
923.55	13023
923.659	13034
923.767	13225
923.876	12947
923.984	13038
924.092	13050
924.201	13072
924.309	13019
924.417	13038
924.525	13034
924.633	13031
924.741	13658
924.849	12753
924.956	12844
925.064	12749
925.172	12662
925.279	12623
925.387	12707
925.494	12753
925.602	12829
925.709	12741
925.816	12627
925.924	12627
926.031	12703
926.138	12639
926.245	12642
926.352	12540
926.459	12692
926.566	12677
926.673	12631
926.779	12528
926.886	12456
926.993	12391
927.099	12289
927.206	12251
927.312	12201
927.419	12319
927.525	12239
927.631	12346
927.737	12178
927.843	12110
927.95	12034
928.056	12087
928.162	12076
928.267	12190
928.373	12650
928.479	12197
928.585	11912
928.69	12140
928.796	12102
928.901	11984
929.007	11840
929.112	11916
929.218	11923
929.323	11897
929.428	11847
929.533	11904
929.638	11779
929.743	11771
929.848	11790
929.953	11836
930.058	11748
930.163	11543
930.267	11547
930.372	11642
930.477	11490
930.581	11684
930.685	11524
930.79	11410
930.894	11398
930.998	11398
931.103	11589
931.207	11166
931.311	11117
931.415	10930
931.519	10793
931.623	10869
