Data from test_V78500241_2273.txt Node
Date: Fri Mar 25 15:25:41 CST 2022
User: usil
Spectrometer: V785-0024
Trigger mode: 0
Integration Time (sec): 4.000000E-1
Scans to average: 1
Nonlinearity correction enabled: false
Boxcar width: 0
Storing dark spectrum: false
XAxis mode: Wavelengths
Number of Pixels in Spectrum: 1024
>>>>>Begin Spectral Data<<<<<
801.071	27641
801.214	27469
801.356	27264
801.499	27230
801.641	27100
801.783	27165
801.926	27260
802.068	27032
802.211	26960
802.353	26982
802.496	26845
802.638	26823
802.78	26864
802.923	26720
803.065	26533
803.208	26686
803.35	26727
803.492	26720
803.635	27028
803.777	26861
803.919	26982
804.061	27279
804.204	26971
804.346	26853
804.488	26845
804.63	26960
804.773	26895
804.915	26887
805.057	26994
805.199	26842
805.341	27001
805.483	27154
805.626	27123
805.768	26929
805.91	27192
806.052	27085
806.194	27100
806.336	27127
806.478	27032
806.62	27112
806.762	27169
806.904	27306
807.046	27580
807.188	27473
807.33	27488
807.472	27667
807.614	27370
807.756	27427
807.898	27367
808.04	27214
808.182	27332
808.324	27332
808.465	27538
808.607	27637
808.749	27587
808.891	27930
809.033	27789
809.174	27633
809.316	27656
809.458	27804
809.6	27633
809.741	27876
809.883	27774
810.025	27888
810.166	27949
810.308	27903
810.45	27926
810.591	27899
810.733	27545
810.875	27648
811.016	27751
811.158	27549
811.299	27618
811.441	27736
811.582	27690
811.724	27747
811.865	27743
812.007	27595
812.148	27629
812.29	27732
812.431	27842
812.573	27945
812.714	28200
812.855	28105
812.997	28329
813.138	28550
813.279	28322
813.421	28131
813.562	28048
813.703	27972
813.845	27842
813.986	27603
814.127	27504
814.268	27412
814.41	27367
814.551	27310
814.692	27424
814.833	27279
814.974	27363
815.115	27355
815.256	27336
815.397	27329
815.539	27093
815.68	27108
815.821	26967
815.962	27188
816.103	27256
816.244	27020
816.385	26800
816.526	26921
816.666	26644
816.807	26716
816.948	26663
817.089	26682
817.23	26651
817.371	26667
817.512	26552
817.653	26632
817.793	26438
817.934	26663
818.075	26678
818.216	26667
818.356	26579
818.497	26480
818.638	26324
818.778	26412
818.919	26393
819.06	26423
819.2	26492
819.341	26644
819.481	26606
819.622	26758
819.762	26944
819.903	26853
820.043	26765
820.184	26636
820.324	26705
820.465	26796
820.605	26697
820.746	26667
820.886	26583
821.026	26644
821.167	26583
821.307	26743
821.447	26606
821.588	26522
821.728	26415
821.868	26461
822.008	26111
822.149	26096
822.289	26043
822.429	25845
822.569	25776
822.709	25734
822.849	25586
822.99	25559
823.13	25506
823.27	25510
823.41	25381
823.55	25289
823.69	25563
823.83	25419
823.97	25274
824.11	25198
824.25	25126
824.389	25175
824.529	25327
824.669	25270
824.809	25331
824.949	25244
825.089	25362
825.228	25209
825.368	25080
825.508	25171
825.648	25065
825.787	25168
825.927	25091
826.067	25072
826.206	25076
826.346	25034
826.485	25206
826.625	25023
826.765	25232
826.904	25187
827.044	24913
827.183	24951
827.323	24745
827.462	24905
827.601	24798
827.741	24772
827.88	24852
828.02	24696
828.159	24684
828.298	24787
828.437	24901
828.577	24741
828.716	24875
828.855	24779
828.994	24494
829.134	24601
829.273	24441
829.412	24448
829.551	24509
829.69	24483
829.829	24639
829.968	24612
830.107	24642
830.246	24627
830.385	24589
830.524	24262
830.663	24239
830.802	24388
830.941	24136
831.08	24117
831.219	24102
831.357	24110
831.496	24407
831.635	24136
831.774	24148
831.913	23958
832.051	23935
832.19	23809
832.329	23961
832.467	23802
832.606	23684
832.744	23798
832.883	23889
833.022	23802
833.16	23737
833.299	23847
833.437	23882
833.576	23950
833.714	23748
833.852	23817
833.991	23802
834.129	23935
834.267	24018
834.406	23893
834.544	23923
834.682	23798
834.821	23726
834.959	23965
835.097	23847
835.235	23939
835.373	23813
835.511	23817
835.65	23722
835.788	23733
835.926	23501
836.064	23577
836.202	23558
836.34	23604
836.478	23847
836.615	23722
836.753	23707
836.891	23748
837.029	23649
837.167	23554
837.305	23478
837.443	23486
837.58	23505
837.718	23691
837.856	23581
837.993	23524
838.131	23493
838.269	23364
838.406	23391
838.544	23356
838.681	23197
838.819	23193
838.956	22835
839.094	22953
839.231	23132
839.369	23121
839.506	23368
839.643	23269
839.781	23022
839.918	22999
840.055	22892
840.193	22892
840.33	22965
840.467	22930
840.604	22934
840.742	23155
840.879	22744
841.016	22949
841.153	22873
841.29	22953
841.427	22896
841.564	22919
841.701	22873
841.838	22999
841.975	22752
842.112	22854
842.249	22752
842.385	22569
842.522	22858
842.659	22660
842.796	22588
842.933	22725
843.069	22668
843.206	22580
843.343	22736
843.479	22683
843.616	22607
843.752	22356
843.889	22557
844.025	22713
844.162	22360
844.298	22599
844.435	22451
844.571	22432
844.708	22478
844.844	22478
844.98	22596
845.117	22516
845.253	22386
845.389	22219
845.525	22280
845.661	22299
845.798	22207
845.934	22268
846.07	22261
846.206	22169
846.342	22166
846.478	22048
846.614	21960
846.75	21854
846.886	21994
847.022	22082
847.158	21968
847.294	21922
847.429	21816
847.565	21934
847.701	22013
847.837	21644
847.972	21606
848.108	21652
848.244	21667
848.379	21606
848.515	21439
848.65	21374
848.786	21610
848.921	21538
849.057	21583
849.192	21583
849.328	21648
849.463	21458
849.598	21534
849.734	21416
849.869	21363
850.004	21283
850.14	21264
850.275	21283
850.41	21245
850.545	21199
850.68	21176
850.815	21275
850.95	21226
851.085	21340
851.22	21340
851.355	21378
851.49	21249
851.625	21241
851.76	21260
851.895	21188
852.03	21096
852.165	21165
852.299	21302
852.434	21291
852.569	21176
852.703	21283
852.838	21344
852.973	21336
853.107	21378
853.242	21226
853.376	21058
853.511	21032
853.645	21112
853.78	21135
853.914	21123
854.048	21154
854.183	21199
854.317	21195
854.451	21325
854.585	21138
854.72	21119
854.854	21249
854.988	21051
855.122	21074
855.256	21020
855.39	21028
855.524	21093
855.658	21157
855.792	21146
855.926	21146
856.06	21218
856.194	21169
856.327	21017
856.461	20994
856.595	21036
856.729	21039
856.862	21233
856.996	21070
857.13	21207
857.263	21146
857.397	21207
857.53	21169
857.664	21199
857.797	21108
857.931	21233
858.064	21150
858.197	21195
858.331	21085
858.464	21051
858.597	20941
858.731	20948
858.864	21039
858.997	20986
859.13	20937
859.263	20986
859.396	21096
859.529	21062
859.662	21074
859.795	20956
859.928	21226
860.061	21211
860.194	21272
860.327	21173
860.46	21138
860.592	21131
860.725	21275
860.858	21142
860.99	20998
861.123	20933
861.256	21005
861.388	21127
861.521	21854
861.653	21093
861.786	20845
861.918	20876
862.05	20800
862.183	20952
862.315	21089
862.447	21020
862.58	20933
862.712	20807
862.844	20785
862.976	20899
863.108	20883
863.24	21131
863.372	20724
863.504	20640
863.636	20750
863.768	20754
863.9	20773
864.032	20716
864.164	20800
864.296	20800
864.428	20929
864.559	20876
864.691	20826
864.823	20830
864.954	20739
865.086	20800
865.217	20758
865.349	20648
865.48	20739
865.612	20769
865.743	20781
865.875	20819
866.006	20564
866.137	20765
866.269	20792
866.4	20549
866.531	20651
866.662	20549
866.793	20568
866.924	20686
867.055	20556
867.186	20701
867.317	20686
867.448	20457
867.579	20579
867.71	20549
867.841	20564
867.972	20644
868.103	20644
868.233	20621
868.364	20689
868.495	20739
868.625	20754
868.756	20921
868.886	20849
869.017	20705
869.147	20929
869.278	20937
869.408	20876
869.539	20834
869.669	20880
869.799	20910
869.929	21081
870.06	20963
870.19	21233
870.32	21188
870.45	21260
870.58	21283
870.71	21367
870.84	21431
870.97	21291
871.1	21302
871.23	21363
871.36	21428
871.489	21462
871.619	21435
871.749	21325
871.879	21488
872.008	21511
872.138	21656
872.267	21439
872.397	21310
872.526	21431
872.656	21131
872.785	21138
872.915	21386
873.044	21591
873.173	21515
873.303	21473
873.432	21450
873.561	21618
873.69	21473
873.819	21534
873.948	21454
874.077	21488
874.206	21408
874.335	21481
874.464	21583
874.593	21690
874.722	21724
874.851	21766
874.979	21705
875.108	21831
875.237	21679
875.365	21679
875.494	21705
875.623	21747
875.751	21701
875.88	21717
876.008	21751
876.136	21865
876.265	22116
876.393	22268
876.521	22166
876.65	22215
876.778	22090
876.906	21949
877.034	22093
877.162	22048
877.29	22215
877.418	22070
877.546	22059
877.674	22105
877.802	22029
877.93	22181
878.058	22067
878.185	21918
878.313	21975
878.441	22036
878.568	21964
878.696	21918
878.824	22078
878.951	22158
879.079	22280
879.206	22249
879.333	22230
879.461	22131
879.588	22249
879.715	22219
879.842	22367
879.97	22272
880.097	21899
880.224	21899
880.351	21941
880.478	21911
880.605	21789
880.732	21888
880.859	22147
880.986	21972
881.112	21861
881.239	21648
881.366	21561
881.493	21507
881.619	21439
881.746	21519
881.872	21492
881.999	21408
882.125	21325
882.252	21485
882.378	21420
882.505	21622
882.631	21294
882.757	21226
882.883	21340
883.01	21195
883.136	21119
883.262	21047
883.388	21028
883.514	21123
883.64	21252
883.766	21188
883.892	20937
884.018	21047
884.143	21058
884.269	21310
884.395	20826
884.52	20765
884.646	20830
884.772	20769
884.897	20777
885.023	20857
885.148	20899
885.274	20944
885.399	20746
885.524	20929
885.65	20857
885.775	20906
885.9	20705
886.025	20823
886.15	20902
886.275	20800
886.4	20735
886.525	20716
886.65	20762
886.775	20792
886.9	20994
887.025	20990
887.149	20788
887.274	20556
887.399	20606
887.523	20636
887.648	20674
887.773	20446
887.897	20537
888.021	20629
888.146	20598
888.27	20697
888.395	20568
888.519	20583
888.643	20686
888.767	20617
888.891	20480
889.015	20423
889.139	20469
889.263	20305
889.387	20438
889.511	20583
889.635	20537
889.759	20461
889.883	20278
890.006	20366
890.13	20442
890.254	20396
890.377	20317
890.501	20054
890.624	20122
890.748	20183
890.871	20050
890.995	19986
891.118	19818
891.241	20039
891.364	20043
891.488	20119
891.611	19955
891.734	19974
891.857	19970
891.98	20005
892.103	20039
892.226	19959
892.349	19811
892.471	19776
892.594	19917
892.717	19864
892.839	19849
892.962	19822
893.085	19978
893.207	19936
893.33	19849
893.452	19799
893.575	19898
893.697	19795
893.819	20031
893.941	20035
894.064	19978
894.186	19883
894.308	19944
894.43	19909
894.552	20046
894.674	19989
894.796	19807
894.918	19856
895.04	19765
895.161	19921
895.283	19921
895.405	19780
895.526	19890
895.648	19944
895.769	19833
895.891	19909
896.012	19940
896.134	19928
896.255	19978
896.376	19788
896.498	19959
896.619	19883
896.74	19791
896.861	19944
896.982	20240
897.103	20305
897.224	20100
897.345	19925
897.466	19963
897.587	20073
897.708	20168
897.828	20199
897.949	19967
898.07	19955
898.19	20043
898.311	20244
898.431	20027
898.552	20088
898.672	20164
898.792	20069
898.913	20145
899.033	19951
899.153	19837
899.273	19750
899.393	19788
899.513	19887
899.633	19849
899.753	19864
899.873	19826
899.993	19898
900.113	19791
900.232	19841
900.352	19704
900.472	19685
900.591	19753
900.711	19525
900.83	19677
900.95	19826
901.069	19753
901.189	19590
901.308	19362
901.427	19221
901.546	19171
901.665	19160
901.784	19274
901.904	19015
902.023	19061
902.141	18829
902.26	18768
902.379	18867
902.498	18802
902.617	18692
902.735	18669
902.854	18658
902.973	18658
903.091	18471
903.21	18395
903.328	18357
903.446	18315
903.565	18232
903.683	18251
903.801	18087
903.919	18121
904.038	18220
904.156	17916
904.274	18015
904.392	17965
904.51	18011
904.627	18003
904.745	18057
904.863	18117
904.981	17771
905.098	17672
905.216	17684
905.334	17726
905.451	17581
905.569	17676
905.686	17657
905.803	17592
905.921	17383
906.038	17558
906.155	17516
906.272	17452
906.389	17284
906.506	17200
906.623	17174
906.74	17189
906.857	17113
906.974	17151
907.091	17273
907.208	17315
907.324	17143
907.441	17003
907.557	16885
907.674	16850
907.79	16885
907.907	16881
908.023	16957
908.139	16854
908.256	16835
908.372	16668
908.488	16778
908.604	16634
908.72	16615
908.836	16637
908.952	16561
909.068	16748
909.184	16694
909.3	16607
909.415	16683
909.531	16599
909.647	16382
909.762	16360
909.878	16204
909.993	16405
910.108	16341
910.224	16276
910.339	16303
910.454	16196
910.57	16196
910.685	16090
910.8	16253
910.915	16234
911.03	16135
911.145	15918
911.259	15960
911.374	15983
911.489	15838
911.604	15850
911.718	15690
911.833	15694
911.947	15515
912.062	15439
912.176	15625
912.291	15671
912.405	15603
912.519	15747
912.633	15850
912.748	15637
912.862	15587
912.976	15606
913.09	15462
913.204	15488
913.318	15625
913.431	15618
913.545	15652
913.659	15553
913.772	15492
913.886	15397
914	15279
914.113	15428
914.226	15370
914.34	15420
914.453	15226
914.566	15298
914.68	15195
914.793	15097
914.906	15013
915.019	14891
915.132	14849
915.245	14971
915.358	14902
915.47	14914
915.583	14929
915.696	14948
915.809	15036
915.921	15074
916.034	14815
916.146	14819
916.259	14773
916.371	14887
916.483	14842
916.595	14769
916.708	14838
916.82	14678
916.932	14644
917.044	14727
917.156	14648
917.268	14480
917.38	14674
917.491	14648
917.603	14651
917.715	14659
917.826	14724
917.938	14454
918.049	14336
918.161	14495
918.272	14602
918.384	14625
918.495	14503
918.606	14408
918.717	14377
918.828	14404
918.939	14396
919.05	14202
919.161	14370
919.272	14168
919.383	14164
919.494	14404
919.604	14457
919.715	14412
919.826	14210
919.936	14275
920.047	14362
920.157	14324
920.267	14511
920.378	14271
920.488	14271
920.598	14473
920.708	14613
920.818	14465
920.928	14442
921.038	14549
921.148	14568
921.258	14214
921.368	14183
921.477	14054
921.587	14046
921.697	13925
921.806	13978
921.916	13875
922.025	13708
922.134	13696
922.244	13658
922.353	13666
922.462	13552
922.571	13487
922.68	13346
922.789	13312
922.898	13301
923.007	13190
923.116	13304
923.224	13228
923.333	13324
923.442	13232
923.55	13133
923.659	13168
923.767	13289
923.876	13187
923.984	13160
924.092	12951
924.201	13118
924.309	13110
924.417	13133
924.525	13015
924.633	13107
924.741	13715
924.849	12829
924.956	12928
925.064	12844
925.172	12631
925.279	12719
925.387	12757
925.494	12738
925.602	12886
925.709	12787
925.816	12730
925.924	12669
926.031	12753
926.138	12677
926.245	12779
926.352	12612
926.459	12745
926.566	12753
926.673	12639
926.779	12452
926.886	12498
926.993	12304
927.099	12327
927.206	12304
927.312	12270
927.419	12346
927.525	12308
927.631	12369
927.737	12254
927.843	12197
927.95	12079
928.056	12148
928.162	12224
928.267	12205
928.373	12791
928.479	12175
928.585	12038
928.69	12098
928.796	12068
928.901	12022
929.007	11866
929.112	12019
929.218	12015
929.323	11965
929.428	11859
929.533	12011
929.638	11813
929.743	11912
929.848	11920
929.953	11821
930.058	11718
930.163	11573
930.267	11539
930.372	11630
930.477	11486
930.581	11752
930.685	11581
930.79	11474
930.894	11493
930.998	11433
931.103	11634
931.207	11330
931.311	11212
931.415	11090
931.519	10854
931.623	10866
