Data from test_V78500241_1420.txt Node
Date: Fri Mar 25 15:19:44 CST 2022
User: usil
Spectrometer: V785-0024
Trigger mode: 0
Integration Time (sec): 4.000000E-1
Scans to average: 1
Nonlinearity correction enabled: false
Boxcar width: 0
Storing dark spectrum: false
XAxis mode: Wavelengths
Number of Pixels in Spectrum: 1024
>>>>>Begin Spectral Data<<<<<
801.071	28257
801.214	27895
801.356	27888
801.499	27694
801.641	27778
801.783	27686
801.926	27762
802.068	27625
802.211	27542
802.353	27545
802.496	27378
802.638	27272
802.78	27378
802.923	27218
803.065	27264
803.208	27294
803.35	27310
803.492	27450
803.635	27393
803.777	27420
803.919	27599
804.061	27899
804.204	27686
804.346	27435
804.488	27553
804.63	27545
804.773	27431
804.915	27439
805.057	27614
805.199	27473
805.341	27656
805.483	27679
805.626	27713
805.768	27549
805.91	27580
806.052	27614
806.194	27629
806.336	27907
806.478	27701
806.62	27751
806.762	27793
806.904	27987
807.046	28109
807.188	28166
807.33	28051
807.472	28135
807.614	27964
807.756	27873
807.898	27979
808.04	27816
808.182	27983
808.324	27930
808.465	27949
808.607	28314
808.749	28428
808.891	28352
809.033	28516
809.174	28295
809.316	28337
809.458	28314
809.6	28291
809.741	28481
809.883	28424
810.025	28588
810.166	28542
810.308	28645
810.45	28474
810.591	28481
810.733	28405
810.875	28295
811.016	28181
811.158	28284
811.299	28375
811.441	28443
811.582	28592
811.724	28253
811.865	28261
812.007	28329
812.148	28428
812.29	28371
812.431	28557
812.573	28687
812.714	28801
812.855	28888
812.997	28961
813.138	29124
813.279	28930
813.421	28938
813.562	28835
813.703	28771
813.845	28626
813.986	28310
814.127	28139
814.268	28090
814.41	28109
814.551	28078
814.692	28036
814.833	28032
814.974	27911
815.115	28021
815.256	28002
815.397	27949
815.539	27911
815.68	27785
815.821	27892
815.962	27831
816.103	27865
816.244	27690
816.385	27667
816.526	27534
816.666	27416
816.807	27298
816.948	27233
817.089	27332
817.23	27355
817.371	27378
817.512	27336
817.653	27302
817.793	27207
817.934	27393
818.075	27367
818.216	27355
818.356	27169
818.497	27192
818.638	27135
818.778	27093
818.919	27154
819.06	27093
819.2	27188
819.341	27275
819.481	27332
819.622	27473
819.762	27679
819.903	27663
820.043	27477
820.184	27481
820.324	27458
820.465	27374
820.605	27466
820.746	27435
820.886	27275
821.026	27439
821.167	27386
821.307	27549
821.447	27287
821.588	27199
821.728	27009
821.868	26960
822.008	26746
822.149	26845
822.289	26758
822.429	26419
822.569	26370
822.709	26556
822.849	26271
822.99	26229
823.13	26221
823.27	26221
823.41	26111
823.55	26027
823.69	26248
823.83	26199
823.97	26062
824.11	25944
824.25	25940
824.389	25940
824.529	26020
824.669	26024
824.809	26130
824.949	26092
825.089	26073
825.228	25925
825.368	25875
825.508	25788
825.648	25807
825.787	25841
825.927	25909
826.067	25795
826.206	25769
826.346	25841
826.485	25864
826.625	25814
826.765	25944
826.904	25791
827.044	25628
827.183	25597
827.323	25537
827.462	25571
827.601	25658
827.741	25601
827.88	25521
828.02	25525
828.159	25563
828.298	25521
828.437	25674
828.577	25563
828.716	25601
828.855	25415
828.994	25274
829.134	25247
829.273	25209
829.412	25228
829.551	25061
829.69	25289
829.829	25320
829.968	25285
830.107	25168
830.246	25346
830.385	25270
830.524	25118
830.663	25000
830.802	24996
830.941	24779
831.08	24867
831.219	24897
831.357	24932
831.496	25095
831.635	24802
831.774	24776
831.913	24757
832.051	24734
832.19	24684
832.329	24707
832.467	24616
832.606	24509
832.744	24486
832.883	24498
833.022	24551
833.16	24627
833.299	24490
833.437	24498
833.576	24555
833.714	24528
833.852	24635
833.991	24665
834.129	24631
834.267	24684
834.406	24696
834.544	24677
834.682	24620
834.821	24593
834.959	24741
835.097	24517
835.235	24669
835.373	24517
835.511	24696
835.65	24361
835.788	24429
835.926	24334
836.064	24258
836.202	24327
836.34	24559
836.478	24505
836.615	24418
836.753	24414
836.891	24407
837.029	24460
837.167	24323
837.305	24216
837.443	24273
837.58	24304
837.718	24270
837.856	24239
837.993	24129
838.131	24281
838.269	24152
838.406	24178
838.544	24072
838.681	24011
838.819	23847
838.956	23832
839.094	23703
839.231	23726
839.369	23836
839.506	24045
839.643	23954
839.781	23737
839.918	23615
840.055	23665
840.193	23680
840.33	23585
840.467	23627
840.604	23615
840.742	23794
840.879	23524
841.016	23501
841.153	23341
841.29	23649
841.427	23657
841.564	23596
841.701	23528
841.838	23482
841.975	23467
842.112	23566
842.249	23490
842.385	23433
842.522	23570
842.659	23395
842.796	23383
842.933	23353
843.069	23235
843.206	23292
843.343	23398
843.479	23410
843.616	23493
843.752	23086
843.889	23200
844.025	23246
844.162	23193
844.298	23368
844.435	23075
844.571	23113
844.708	23261
844.844	23269
844.98	23204
845.117	23189
845.253	23025
845.389	23029
845.525	23060
845.661	22934
845.798	22946
845.934	22896
846.07	22771
846.206	22919
846.342	22919
846.478	22801
846.614	22767
846.75	22554
846.886	22634
847.022	22634
847.158	22634
847.294	22573
847.429	22580
847.565	22668
847.701	22790
847.837	22390
847.972	22215
848.108	22306
848.244	22428
848.379	22147
848.515	22188
848.65	22272
848.786	22185
848.921	22185
849.057	22379
849.192	22280
849.328	22276
849.463	22090
849.598	22162
849.734	22002
849.869	22044
850.004	21987
850.14	22059
850.275	22074
850.41	21865
850.545	21926
850.68	21972
850.815	21873
850.95	21911
851.085	22120
851.22	22070
851.355	21998
851.49	21888
851.625	21892
851.76	22017
851.895	21915
852.03	21774
852.165	22029
852.299	21880
852.434	21930
852.569	21934
852.703	22036
852.838	21899
852.973	22086
853.107	22192
853.242	21926
853.376	21732
853.511	21652
853.645	21797
853.78	21861
853.914	21831
854.048	21804
854.183	21743
854.317	21926
854.451	22013
854.585	21686
854.72	21728
854.854	21857
854.988	21637
855.122	21808
855.256	21641
855.39	21690
855.524	21804
855.658	21854
855.792	21857
855.926	21766
856.06	21808
856.194	21846
856.327	21686
856.461	21671
856.595	21595
856.729	21804
856.862	21823
856.996	21876
857.13	21953
857.263	21793
857.397	21762
857.53	21625
857.664	21827
857.797	21861
857.931	21930
858.064	21850
858.197	21892
858.331	21648
858.464	21770
858.597	21709
858.731	21808
858.864	21854
858.997	21667
859.13	21804
859.263	21732
859.396	21759
859.529	21827
859.662	21717
859.795	21804
859.928	21781
860.061	22013
860.194	21991
860.327	21895
860.46	21812
860.592	21880
860.725	21911
860.858	21884
860.99	21747
861.123	21663
861.256	21774
861.388	21713
861.521	22428
861.653	21690
861.786	21587
861.918	21583
862.05	21698
862.183	21675
862.315	21800
862.447	21717
862.58	21698
862.712	21618
862.844	21454
862.976	21583
863.108	21641
863.24	21876
863.372	21557
863.504	21393
863.636	21557
863.768	21405
863.9	21428
864.032	21351
864.164	21329
864.296	21420
864.428	21492
864.559	21488
864.691	21614
864.823	21530
864.954	21458
865.086	21507
865.217	21298
865.349	21252
865.48	21317
865.612	21348
865.743	21370
865.875	21412
866.006	21298
866.137	21268
866.269	21272
866.4	21275
866.531	21275
866.662	21272
866.793	21275
866.924	21218
867.055	21214
867.186	21344
867.317	21283
867.448	21100
867.579	21226
867.71	21169
867.841	21161
867.972	21344
868.103	21321
868.233	21325
868.364	21378
868.495	21313
868.625	21545
868.756	21576
868.886	21591
869.017	21477
869.147	21660
869.278	21736
869.408	21553
869.539	21526
869.669	21538
869.799	21572
869.929	21686
870.06	21644
870.19	21861
870.32	21736
870.45	21873
870.58	21861
870.71	22002
870.84	22067
870.97	21888
871.1	21876
871.23	22070
871.36	22112
871.489	22070
871.619	22010
871.749	22048
871.879	22166
872.008	22181
872.138	22200
872.267	22078
872.397	21979
872.526	22070
872.656	21873
872.785	21888
872.915	22112
873.044	22261
873.173	22188
873.303	22234
873.432	22215
873.561	22249
873.69	22169
873.819	22181
873.948	22192
874.077	22124
874.206	22029
874.335	22090
874.464	22177
874.593	22360
874.722	22371
874.851	22333
874.979	22428
875.108	22455
875.237	22360
875.365	22284
875.494	22322
875.623	22409
875.751	22287
875.88	22295
876.008	22459
876.136	22447
876.265	22702
876.393	22793
876.521	22885
876.65	22835
876.778	22736
876.906	22672
877.034	22656
877.162	22759
877.29	22668
877.418	22717
877.546	22774
877.674	22717
877.802	22740
877.93	22618
878.058	22641
878.185	22615
878.313	22580
878.441	22653
878.568	22519
878.696	22622
878.824	22683
878.951	22835
879.079	22877
879.206	23052
879.333	22721
879.461	22786
879.588	22809
879.715	22797
879.842	22938
879.97	22797
880.097	22561
880.224	22474
880.351	22459
880.478	22542
880.605	22516
880.732	22538
880.859	22736
880.986	22337
881.112	22645
881.239	22497
881.366	22276
881.493	22154
881.619	22131
881.746	22196
881.872	22173
881.999	22051
882.125	21964
882.252	22044
882.378	22128
882.505	22253
882.631	22090
882.757	21869
882.883	21854
883.01	21781
883.136	21709
883.262	21766
883.388	21595
883.514	21770
883.64	21671
883.766	21823
883.892	21549
884.018	21606
884.143	21644
884.269	21804
884.395	21534
884.52	21408
884.646	21382
884.772	21393
884.897	21382
885.023	21416
885.148	21477
885.274	21580
885.399	21507
885.524	21481
885.65	21504
885.775	21302
885.9	21405
886.025	21523
886.15	21458
886.275	21317
886.4	21363
886.525	21359
886.65	21351
886.775	21359
886.9	21458
887.025	21564
887.149	21351
887.274	21184
887.399	21199
887.523	21157
887.648	21077
887.773	21100
887.897	21298
888.021	21192
888.146	21066
888.27	21237
888.395	21230
888.519	21119
888.643	21203
888.767	21173
888.891	21108
889.015	21013
889.139	21123
889.263	20956
889.387	21032
889.511	21157
889.635	21009
889.759	20868
889.883	20868
890.006	20944
890.13	21036
890.254	20899
890.377	20769
890.501	20872
890.624	20720
890.748	20792
890.871	20629
890.995	20545
891.118	20488
891.241	20583
891.364	20511
891.488	20705
891.611	20625
891.734	20396
891.857	20568
891.98	20632
892.103	20571
892.226	20507
892.349	20484
892.471	20320
892.594	20393
892.717	20469
892.839	20461
892.962	20533
893.085	20419
893.207	20423
893.33	20377
893.452	20377
893.575	20450
893.697	20351
893.819	20552
893.941	20598
894.064	20530
894.186	20476
894.308	20320
894.43	20450
894.552	20552
894.674	20549
894.796	20336
894.918	20427
895.04	20294
895.161	20545
895.283	20408
895.405	20324
895.526	20358
895.648	20275
895.769	20518
895.891	20488
896.012	20514
896.134	20541
896.255	20492
896.376	20541
896.498	20423
896.619	20328
896.74	20419
896.861	20503
896.982	20792
897.103	20861
897.224	20686
897.345	20678
897.466	20571
897.587	20659
897.708	20724
897.828	20746
897.949	20469
898.07	20438
898.19	20571
898.311	20667
898.431	20552
898.552	20655
898.672	20590
898.792	20655
898.913	20640
899.033	20545
899.153	20530
899.273	20301
899.393	20434
899.513	20370
899.633	20351
899.753	20343
899.873	20374
899.993	20454
900.113	20332
900.232	20298
900.352	20374
900.472	20229
900.591	20142
900.711	20081
900.83	20062
900.95	20214
901.069	20275
901.189	20065
901.308	19799
901.427	19788
901.546	19727
901.665	19746
901.784	19750
901.904	19578
902.023	19544
902.141	19335
902.26	19362
902.379	19365
902.498	19304
902.617	19221
902.735	19362
902.854	19168
902.973	19171
903.091	19050
903.21	18791
903.328	18939
903.446	18924
903.565	18776
903.683	18654
903.801	18578
903.919	18707
904.038	18726
904.156	18574
904.274	18566
904.392	18494
904.51	18429
904.627	18486
904.745	18388
904.863	18502
904.981	18330
905.098	18224
905.216	18167
905.334	18254
905.451	18270
905.569	18155
905.686	18277
905.803	18186
905.921	17908
906.038	17977
906.155	17954
906.272	17893
906.389	17821
906.506	17638
906.623	17611
906.74	17638
906.857	17543
906.974	17516
907.091	17790
907.208	17828
907.324	17687
907.441	17539
907.557	17524
907.674	17387
907.79	17269
907.907	17265
908.023	17398
908.139	17501
908.256	17353
908.372	17345
908.488	17258
908.604	17174
908.72	17113
908.836	17121
908.952	17124
909.068	17109
909.184	17166
909.3	17140
909.415	17048
909.531	17060
909.647	16873
909.762	16831
909.878	16835
909.993	16847
910.108	16752
910.224	16740
910.339	16721
910.454	16660
910.57	16504
910.685	16481
910.8	16824
910.915	16717
911.03	16558
911.145	16512
911.259	16424
911.374	16398
911.489	16356
911.604	16234
911.718	16093
911.833	16105
911.947	15972
912.062	16017
912.176	16166
912.291	16059
912.405	16154
912.519	16272
912.633	16234
912.748	16150
912.862	16078
912.976	16017
913.09	15800
913.204	15941
913.318	15953
913.431	16082
913.545	15945
913.659	15998
913.772	15842
913.886	15838
914	15690
914.113	15899
914.226	15903
914.34	15800
914.453	15804
914.566	15770
914.68	15564
914.793	15633
914.906	15370
915.019	15355
915.132	15260
915.245	15302
915.358	15447
915.47	15389
915.583	15294
915.696	15367
915.809	15564
915.921	15447
916.034	15252
916.146	15245
916.259	15230
916.371	15222
916.483	15283
916.595	15157
916.708	15119
916.82	15131
916.932	15112
917.044	15055
917.156	15013
917.268	15032
917.38	14975
917.491	14990
917.603	15017
917.715	14998
917.826	14963
917.938	14849
918.049	14781
918.161	14910
918.272	15089
918.384	15017
918.495	14842
918.606	14849
918.717	14686
918.828	14701
918.939	14781
919.05	14590
919.161	14769
919.272	14541
919.383	14655
919.494	14746
919.604	14895
919.715	14644
919.826	14629
919.936	14693
920.047	14788
920.157	14697
920.267	14861
920.378	14735
920.488	14693
920.598	14868
920.708	14925
920.818	14842
920.928	14792
921.038	15017
921.148	14994
921.258	14674
921.368	14602
921.477	14480
921.587	14336
921.697	14332
921.806	14393
921.916	14275
922.025	14107
922.134	14088
922.244	14031
922.353	14077
922.462	13978
922.571	13757
922.68	13757
922.789	13731
922.898	13776
923.007	13681
923.116	13784
923.224	13696
923.333	13693
923.442	13643
923.55	13582
923.659	13525
923.767	13616
923.876	13472
923.984	13537
924.092	13445
924.201	13411
924.309	13468
924.417	13476
924.525	13430
924.633	13392
924.741	14149
924.849	13160
924.956	13365
925.064	13160
925.172	13164
925.279	13031
925.387	13141
925.494	13065
925.602	13240
925.709	13152
925.816	13099
925.924	13099
926.031	13126
926.138	13031
926.245	13065
926.352	13023
926.459	13103
926.566	13168
926.673	12977
926.779	12886
926.886	12798
926.993	12749
927.099	12662
927.206	12719
927.312	12574
927.419	12753
927.525	12684
927.631	12741
927.737	12635
927.843	12589
927.95	12464
928.056	12544
928.162	12525
928.267	12513
928.373	13160
928.479	12578
928.585	12437
928.69	12452
928.796	12502
928.901	12311
929.007	12224
929.112	12251
929.218	12330
929.323	12224
929.428	12285
929.533	12308
929.638	12209
929.743	12114
929.848	12270
929.953	12270
930.058	12079
930.163	11901
930.267	11980
930.372	12060
930.477	11843
930.581	12144
930.685	11923
930.79	11794
930.894	11798
930.998	11722
931.103	11878
931.207	11512
931.311	11444
931.415	11406
931.519	11178
931.623	11033
