Data from test_V78500241_2274.txt Node
Date: Fri Mar 25 15:25:41 CST 2022
User: usil
Spectrometer: V785-0024
Trigger mode: 0
Integration Time (sec): 4.000000E-1
Scans to average: 1
Nonlinearity correction enabled: false
Boxcar width: 0
Storing dark spectrum: false
XAxis mode: Wavelengths
Number of Pixels in Spectrum: 1024
>>>>>Begin Spectral Data<<<<<
801.071	27572
801.214	27507
801.356	27340
801.499	27237
801.641	27116
801.783	27199
801.926	27081
802.068	27287
802.211	26979
802.353	27013
802.496	26788
802.638	26777
802.78	26823
802.923	26845
803.065	26648
803.208	26651
803.35	26876
803.492	26826
803.635	27032
803.777	26880
803.919	26929
804.061	27252
804.204	27047
804.346	26902
804.488	26929
804.63	26929
804.773	26921
804.915	27032
805.057	27100
805.199	26853
805.341	26979
805.483	27230
805.626	27093
805.768	27058
805.91	27283
806.052	27017
806.194	27039
806.336	27340
806.478	27104
806.62	27039
806.762	27252
806.904	27492
807.046	27568
807.188	27488
807.33	27492
807.472	27713
807.614	27447
807.756	27462
807.898	27351
808.04	27249
808.182	27329
808.324	27439
808.465	27507
808.607	27629
808.749	27667
808.891	27637
809.033	27922
809.174	27823
809.316	27778
809.458	27618
809.6	27736
809.741	27876
809.883	27873
810.025	27888
810.166	28044
810.308	27983
810.45	27873
810.591	27907
810.733	27774
810.875	27648
811.016	27538
811.158	27564
811.299	27667
811.441	27770
811.582	27823
811.724	27774
811.865	27561
812.007	27629
812.148	27553
812.29	27625
812.431	27892
812.573	27922
812.714	28090
812.855	28109
812.997	28379
813.138	28493
813.279	28341
813.421	28230
813.562	28211
813.703	28124
813.845	27949
813.986	27633
814.127	27618
814.268	27408
814.41	27382
814.551	27496
814.692	27511
814.833	27329
814.974	27340
815.115	27431
815.256	27188
815.397	27306
815.539	27230
815.68	27222
815.821	27001
815.962	27104
816.103	27188
816.244	27074
816.385	27039
816.526	26944
816.666	26663
816.807	26587
816.948	26659
817.089	26712
817.23	26773
817.371	26545
817.512	26701
817.653	26693
817.793	26598
817.934	26674
818.075	26621
818.216	26636
818.356	26602
818.497	26537
818.638	26442
818.778	26313
818.919	26400
819.06	26511
819.2	26583
819.341	26522
819.481	26720
819.622	26819
819.762	27058
819.903	26861
820.043	26781
820.184	26640
820.324	26682
820.465	26712
820.605	26735
820.746	26697
820.886	26617
821.026	26773
821.167	26667
821.307	26670
821.447	26701
821.588	26533
821.728	26518
821.868	26218
822.008	26252
822.149	26130
822.289	26027
822.429	25925
822.569	25734
822.709	25757
822.849	25639
822.99	25635
823.13	25445
823.27	25594
823.41	25487
823.55	25285
823.69	25521
823.83	25339
823.97	25350
824.11	25129
824.25	25263
824.389	25114
824.529	25228
824.669	25225
824.809	25217
824.949	25274
825.089	25327
825.228	25278
825.368	25015
825.508	25129
825.648	25164
825.787	25141
825.927	25251
826.067	25126
826.206	25008
826.346	25091
826.485	25088
826.625	25133
826.765	25202
826.904	25190
827.044	24981
827.183	24802
827.323	24726
827.462	24810
827.601	24798
827.741	24935
827.88	24859
828.02	24749
828.159	24719
828.298	24852
828.437	24916
828.577	24764
828.716	24696
828.855	24753
828.994	24525
829.134	24566
829.273	24574
829.412	24395
829.551	24540
829.69	24460
829.829	24559
829.968	24585
830.107	24525
830.246	24502
830.385	24414
830.524	24315
830.663	24292
830.802	24251
830.941	24095
831.08	24136
831.219	24114
831.357	24079
831.496	24327
831.635	24018
831.774	24144
831.913	24003
832.051	23931
832.19	23840
832.329	23946
832.467	23809
832.606	23634
832.744	23733
832.883	23779
833.022	23843
833.16	23836
833.299	23832
833.437	23828
833.576	23946
833.714	23916
833.852	23950
833.991	23996
834.129	23916
834.267	23912
834.406	23893
834.544	23874
834.682	23851
834.821	23817
834.959	23901
835.097	23718
835.235	23912
835.373	23805
835.511	23904
835.65	23661
835.788	23798
835.926	23592
836.064	23448
836.202	23558
836.34	23729
836.478	23786
836.615	23733
836.753	23668
836.891	23691
837.029	23695
837.167	23528
837.305	23630
837.443	23566
837.58	23520
837.718	23478
837.856	23558
837.993	23372
838.131	23497
838.269	23334
838.406	23444
838.544	23326
838.681	23197
838.819	23162
838.956	23006
839.094	22801
839.231	22999
839.369	23174
839.506	23387
839.643	23356
839.781	22927
839.918	23048
840.055	22984
840.193	22930
840.33	22953
840.467	22999
840.604	22919
840.742	23094
840.879	22847
841.016	22809
841.153	22835
841.29	22965
841.427	23018
841.564	22908
841.701	23022
841.838	22828
841.975	22774
842.112	22782
842.249	22679
842.385	22645
842.522	22938
842.659	22759
842.796	22729
842.933	22679
843.069	22637
843.206	22634
843.343	22672
843.479	22611
843.616	22637
843.752	22405
843.889	22451
844.025	22580
844.162	22519
844.298	22523
844.435	22291
844.571	22417
844.708	22344
844.844	22611
844.98	22637
845.117	22546
845.253	22325
845.389	22379
845.525	22379
845.661	22375
845.798	22242
845.934	22280
846.07	22158
846.206	22242
846.342	22211
846.478	22150
846.614	22059
846.75	21865
846.886	21831
847.022	21907
847.158	21903
847.294	21926
847.429	22086
847.565	21895
847.701	22272
847.837	21587
847.972	21591
848.108	21717
848.244	21625
848.379	21454
848.515	21545
848.65	21599
848.786	21473
848.921	21469
849.057	21618
849.192	21568
849.328	21462
849.463	21515
849.598	21462
849.734	21332
849.869	21344
850.004	21268
850.14	21245
850.275	21389
850.41	21226
850.545	21176
850.68	21211
850.815	21233
850.95	21279
851.085	21428
851.22	21439
851.355	21188
851.49	21283
851.625	21226
851.76	21245
851.895	21176
852.03	21192
852.165	21279
852.299	21260
852.434	21405
852.569	21252
852.703	21264
852.838	21317
852.973	21241
853.107	21310
853.242	21291
853.376	21123
853.511	21028
853.645	21074
853.78	21112
853.914	21058
854.048	21074
854.183	21085
854.317	21089
854.451	21291
854.585	21085
854.72	21119
854.854	21108
854.988	20952
855.122	21013
855.256	20975
855.39	21085
855.524	21154
855.658	21074
855.792	21070
855.926	21051
856.06	21123
856.194	21279
856.327	21093
856.461	21005
856.595	21047
856.729	21116
856.862	21119
856.996	21112
857.13	21199
857.263	21108
857.397	21085
857.53	21032
857.664	20944
857.797	21226
857.931	21165
858.064	21161
858.197	21249
858.331	21032
858.464	20990
858.597	20944
858.731	21093
858.864	20902
858.997	20979
859.13	21039
859.263	21203
859.396	21093
859.529	21112
859.662	20948
859.795	21028
859.928	21074
860.061	21283
860.194	21230
860.327	21233
860.46	21157
860.592	21245
860.725	21154
860.858	21272
860.99	21093
861.123	20994
861.256	20952
861.388	20921
861.521	21816
861.653	20902
861.786	20823
861.918	20979
862.05	20979
862.183	21070
862.315	20921
862.447	21032
862.58	20990
862.712	20815
862.844	20800
862.976	20910
863.108	20823
863.24	21169
863.372	20678
863.504	20746
863.636	20773
863.768	20769
863.9	20746
864.032	20773
864.164	20826
864.296	20712
864.428	20906
864.559	20811
864.691	20788
864.823	20876
864.954	20834
865.086	20788
865.217	20788
865.349	20663
865.48	20594
865.612	20697
865.743	20834
865.875	20682
866.006	20689
866.137	20632
866.269	20648
866.4	20659
866.531	20678
866.662	20568
866.793	20632
866.924	20552
867.055	20663
867.186	20613
867.317	20682
867.448	20644
867.579	20556
867.71	20560
867.841	20469
867.972	20746
868.103	20537
868.233	20651
868.364	20640
868.495	20819
868.625	20845
868.756	20781
868.886	20716
869.017	20830
869.147	21020
869.278	20902
869.408	20754
869.539	20864
869.669	20868
869.799	20891
869.929	20975
870.06	20944
870.19	21112
870.32	21245
870.45	21207
870.58	21306
870.71	21241
870.84	21405
870.97	21256
871.1	21203
871.23	21466
871.36	21408
871.489	21363
871.619	21370
871.749	21447
871.879	21485
872.008	21618
872.138	21389
872.267	21412
872.397	21397
872.526	21264
872.656	21294
872.785	21249
872.915	21545
873.044	21534
873.173	21500
873.303	21545
873.432	21583
873.561	21694
873.69	21511
873.819	21351
873.948	21637
874.077	21416
874.206	21473
874.335	21568
874.464	21477
874.593	21781
874.722	21736
874.851	21682
874.979	21732
875.108	21709
875.237	21599
875.365	21595
875.494	21705
875.623	21641
875.751	21762
875.88	21641
876.008	21785
876.136	21846
876.265	21975
876.393	22238
876.521	22234
876.65	22226
876.778	22032
876.906	22055
877.034	21975
877.162	22135
877.29	21979
877.418	21945
877.546	22097
877.674	21934
877.802	22029
877.93	21979
878.058	22070
878.185	21899
878.313	22006
878.441	22059
878.568	21774
878.696	21960
878.824	22059
878.951	22048
879.079	22200
879.206	22371
879.333	22223
879.461	22109
879.588	22158
879.715	22295
879.842	22314
879.97	22131
880.097	21892
880.224	21949
880.351	22021
880.478	21972
880.605	21808
880.732	21960
880.859	21975
880.986	21842
881.112	21960
881.239	21705
881.366	21732
881.493	21610
881.619	21405
881.746	21583
881.872	21439
881.999	21370
882.125	21386
882.252	21397
882.378	21420
882.505	21561
882.631	21294
882.757	21256
882.883	21245
883.01	21188
883.136	21070
883.262	21081
883.388	20986
883.514	21100
883.64	21039
883.766	21020
883.892	20857
884.018	20918
884.143	21108
884.269	21211
884.395	20956
884.52	20735
884.646	20826
884.772	20659
884.897	20625
885.023	20830
885.148	20944
885.274	20941
885.399	20929
885.524	20823
885.65	20762
885.775	20773
885.9	20682
886.025	20887
886.15	20853
886.275	20842
886.4	20762
886.525	20785
886.65	20811
886.775	20686
886.9	21066
887.025	20948
887.149	20910
887.274	20492
887.399	20602
887.523	20503
887.648	20552
887.773	20522
887.897	20701
888.021	20560
888.146	20511
888.27	20765
888.395	20617
888.519	20579
888.643	20575
888.767	20651
888.891	20427
889.015	20332
889.139	20301
889.263	20366
889.387	20358
889.511	20511
889.635	20526
889.759	20282
889.883	20374
890.006	20362
890.13	20503
890.254	20317
890.377	20305
890.501	20046
890.624	20229
890.748	20259
890.871	20073
890.995	20005
891.118	19898
891.241	19925
891.364	19894
891.488	20225
891.611	20024
891.734	19951
891.857	20065
891.98	20035
892.103	20046
892.226	19970
892.349	19849
892.471	19879
892.594	20027
892.717	19951
892.839	19849
892.962	19864
893.085	19970
893.207	19879
893.33	19837
893.452	19776
893.575	19974
893.697	19765
893.819	19967
893.941	20134
894.064	20012
894.186	19849
894.308	19811
894.43	20027
894.552	19898
894.674	19856
894.796	19765
894.918	19898
895.04	19841
895.161	19947
895.283	20005
895.405	19860
895.526	19936
895.648	19936
895.769	20012
895.891	19856
896.012	19951
896.134	19845
896.255	19906
896.376	19936
896.498	19890
896.619	20050
896.74	20039
896.861	19925
896.982	20122
897.103	20313
897.224	20233
897.345	20183
897.466	20081
897.587	20073
897.708	20286
897.828	20259
897.949	20191
898.07	20005
898.19	19940
898.311	20142
898.431	20035
898.552	20115
898.672	20119
898.792	20309
898.913	20081
899.033	19986
899.153	19917
899.273	19909
899.393	19898
899.513	19887
899.633	19856
899.753	19841
899.873	19830
899.993	19940
900.113	19731
900.232	19811
900.352	19765
900.472	19799
900.591	19677
900.711	19597
900.83	19643
900.95	19662
901.069	19799
901.189	19548
901.308	19358
901.427	19187
901.546	19293
901.665	19343
901.784	19270
901.904	19057
902.023	19061
902.141	18863
902.26	18776
902.379	18985
902.498	18741
902.617	18795
902.735	18825
902.854	18722
902.973	18627
903.091	18471
903.21	18422
903.328	18407
903.446	18369
903.565	18338
903.683	18163
903.801	18152
903.919	18258
904.038	18216
904.156	17931
904.274	18186
904.392	17973
904.51	18045
904.627	17946
904.745	18079
904.863	18079
904.981	17878
905.098	17615
905.216	17718
905.334	17756
905.451	17703
905.569	17726
905.686	17619
905.803	17608
905.921	17486
906.038	17532
906.155	17570
906.272	17391
906.389	17463
906.506	17356
906.623	17311
906.74	17277
906.857	17170
906.974	17128
907.091	17280
907.208	17273
907.324	17307
907.441	17162
907.557	16896
907.674	17014
907.79	16908
907.907	16873
908.023	16934
908.139	17083
908.256	16812
908.372	16911
908.488	16793
908.604	16687
908.72	16656
908.836	16767
908.952	16611
909.068	16668
909.184	16790
909.3	16577
909.415	16668
909.531	16710
909.647	16428
909.762	16375
909.878	16295
909.993	16485
910.108	16329
910.224	16356
910.339	16402
910.454	16185
910.57	16242
910.685	16112
910.8	16318
910.915	16314
911.03	16147
911.145	15975
911.259	15975
911.374	15972
911.489	15964
911.604	15781
911.718	15759
911.833	15751
911.947	15507
912.062	15530
912.176	15709
912.291	15755
912.405	15625
912.519	15789
912.633	15873
912.748	15831
912.862	15717
912.976	15549
913.09	15401
913.204	15481
913.318	15515
913.431	15599
913.545	15652
913.659	15660
913.772	15492
913.886	15405
914	15298
914.113	15374
914.226	15485
914.34	15344
914.453	15268
914.566	15351
914.68	15131
914.793	15241
914.906	15028
915.019	14975
915.132	14872
915.245	14929
915.358	14918
915.47	14952
915.583	14864
915.696	14956
915.809	15089
915.921	15051
916.034	14921
916.146	14819
916.259	14857
916.371	14975
916.483	14895
916.595	14773
916.708	14762
916.82	14811
916.932	14720
917.044	14678
917.156	14667
917.268	14625
917.38	14583
917.491	14670
917.603	14674
917.715	14735
917.826	14739
917.938	14499
918.049	14450
918.161	14674
918.272	14826
918.384	14644
918.495	14613
918.606	14400
918.717	14202
918.828	14412
918.939	14377
919.05	14332
919.161	14351
919.272	14103
919.383	14168
919.494	14374
919.604	14545
919.715	14351
919.826	14259
919.936	14358
920.047	14423
920.157	14351
920.267	14518
920.378	14332
920.488	14294
920.598	14480
920.708	14571
920.818	14484
920.928	14476
921.038	14644
921.148	14682
921.258	14221
921.368	14244
921.477	14119
921.587	14031
921.697	13906
921.806	14062
921.916	13830
922.025	13776
922.134	13753
922.244	13681
922.353	13681
922.462	13662
922.571	13548
922.68	13384
922.789	13304
922.898	13362
923.007	13297
923.116	13438
923.224	13362
923.333	13274
923.442	13255
923.55	13209
923.659	13129
923.767	13206
923.876	13160
923.984	13255
924.092	13008
924.201	13103
924.309	13126
924.417	13190
924.525	12951
924.633	13038
924.741	13837
924.849	12810
924.956	12909
925.064	12814
925.172	12787
925.279	12722
925.387	12779
925.494	12856
925.602	12856
925.709	12776
925.816	12768
925.924	12757
926.031	12821
926.138	12711
926.245	12863
926.352	12616
926.459	12757
926.566	12806
926.673	12582
926.779	12528
926.886	12471
926.993	12388
927.099	12376
927.206	12380
927.312	12289
927.419	12388
927.525	12357
927.631	12357
927.737	12254
927.843	12273
927.95	12098
928.056	12171
928.162	12182
928.267	12175
928.373	12867
928.479	12270
928.585	12091
928.69	12148
928.796	12167
928.901	12125
929.007	11885
929.112	12064
929.218	11973
929.323	11965
929.428	11901
929.533	12060
929.638	11767
929.743	11828
929.848	11969
929.953	11855
930.058	11798
930.163	11596
930.267	11600
930.372	11767
930.477	11592
930.581	11832
930.685	11653
930.79	11520
930.894	11509
930.998	11452
931.103	11596
931.207	11326
931.311	11159
931.415	10984
931.519	10873
931.623	10850
