Data from test_V78500241_3155.txt Node
Date: Fri Mar 25 15:31:49 CST 2022
User: usil
Spectrometer: V785-0024
Trigger mode: 0
Integration Time (sec): 4.000000E-1
Scans to average: 1
Nonlinearity correction enabled: false
Boxcar width: 0
Storing dark spectrum: false
XAxis mode: Wavelengths
Number of Pixels in Spectrum: 1024
>>>>>Begin Spectral Data<<<<<
801.071	27397
801.214	27275
801.356	26975
801.499	26910
801.641	26785
801.783	26880
801.926	26788
802.068	26788
802.211	26701
802.353	26537
802.496	26476
802.638	26423
802.78	26294
802.923	26313
803.065	26328
803.208	26286
803.35	26396
803.492	26545
803.635	26541
803.777	26484
803.919	26629
804.061	26925
804.204	26594
804.346	26530
804.488	26362
804.63	26507
804.773	26469
804.915	26533
805.057	26545
805.199	26484
805.341	26473
805.483	26693
805.626	26651
805.768	26598
805.91	26788
806.052	26640
806.194	26651
806.336	26682
806.478	26670
806.62	26575
806.762	26674
806.904	26921
807.046	27154
807.188	27085
807.33	27123
807.472	27131
807.614	26979
807.756	27085
807.898	26918
808.04	26819
808.182	26849
808.324	26864
808.465	27047
808.607	27077
808.749	27199
808.891	27291
809.033	27408
809.174	27260
809.316	27195
809.458	27188
809.6	27161
809.741	27306
809.883	27412
810.025	27561
810.166	27473
810.308	27412
810.45	27374
810.591	27458
810.733	27249
810.875	27321
811.016	27062
811.158	27074
811.299	27226
811.441	27397
811.582	27336
811.724	27043
811.865	27157
812.007	27150
812.148	27055
812.29	27325
812.431	27401
812.573	27496
812.714	27759
812.855	27595
812.997	27846
813.138	27934
813.279	27907
813.421	27838
813.562	27591
813.703	27572
813.845	27466
813.986	27176
814.127	27043
814.268	26701
814.41	26792
814.551	26902
814.692	26986
814.833	26804
814.974	26887
815.115	26960
815.256	26655
815.397	26754
815.539	26739
815.68	26644
815.821	26564
815.962	26583
816.103	26674
816.244	26461
816.385	26526
816.526	26461
816.666	26244
816.807	26142
816.948	26221
817.089	26305
817.23	26142
817.371	26199
817.512	26164
817.653	26096
817.793	26134
817.934	26062
818.075	26263
818.216	26199
818.356	26115
818.497	25955
818.638	25921
818.778	25909
818.919	25852
819.06	25970
819.2	25928
819.341	26168
819.481	26096
819.622	26271
819.762	26324
819.903	26298
820.043	26244
820.184	26256
820.324	26187
820.465	26301
820.605	26180
820.746	26172
820.886	26100
821.026	26149
821.167	26214
821.307	26358
821.447	26081
821.588	26126
821.728	25966
821.868	25712
822.008	25605
822.149	25575
822.289	25674
822.429	25259
822.569	25358
822.709	25289
822.849	25183
822.99	25061
823.13	24973
823.27	25110
823.41	24901
823.55	24795
823.69	24943
823.83	24821
823.97	24817
824.11	24749
824.25	24692
824.389	24703
824.529	24810
824.669	24703
824.809	24859
824.949	24985
825.089	24764
825.228	24856
825.368	24631
825.508	24692
825.648	24627
825.787	24776
825.927	24642
826.067	24536
826.206	24544
826.346	24589
826.485	24768
826.625	24760
826.765	24707
826.904	24806
827.044	24490
827.183	24475
827.323	24346
827.462	24395
827.601	24471
827.741	24315
827.88	24388
828.02	24342
828.159	24369
828.298	24319
828.437	24486
828.577	24224
828.716	24505
828.855	24228
828.994	24106
829.134	24041
829.273	24068
829.412	24053
829.551	23901
829.69	24125
829.829	24114
829.968	24296
830.107	24167
830.246	24102
830.385	23866
830.524	23988
830.663	23923
830.802	23832
830.941	23714
831.08	23661
831.219	23866
831.357	23729
831.496	23923
831.635	23596
831.774	23642
831.913	23703
832.051	23402
832.19	23452
832.329	23425
832.467	23296
832.606	23288
832.744	23284
832.883	23463
833.022	23265
833.16	23360
833.299	23425
833.437	23330
833.576	23520
833.714	23379
833.852	23459
833.991	23379
834.129	23520
834.267	23433
834.406	23425
834.544	23421
834.682	23376
834.821	23577
834.959	23512
835.097	23322
835.235	23539
835.373	23372
835.511	23334
835.65	23269
835.788	23250
835.926	23155
836.064	23083
836.202	23037
836.34	23071
836.478	23322
836.615	23288
836.753	23155
836.891	23193
837.029	23265
837.167	23193
837.305	23235
837.443	23086
837.58	23025
837.718	23239
837.856	23174
837.993	22938
838.131	23056
838.269	22984
838.406	23079
838.544	22927
838.681	22778
838.819	22801
838.956	22611
839.094	22603
839.231	22672
839.369	22763
839.506	22862
839.643	22885
839.781	22500
839.918	22417
840.055	22478
840.193	22607
840.33	22474
840.467	22512
840.604	22462
840.742	22892
840.879	22382
841.016	22443
841.153	22356
841.29	22550
841.427	22455
841.564	22615
841.701	22489
841.838	22512
841.975	22402
842.112	22371
842.249	22348
842.385	22310
842.522	22535
842.659	22413
842.796	22284
842.933	22219
843.069	22185
843.206	22181
843.343	22382
843.479	22424
843.616	22363
843.752	22044
843.889	22059
844.025	22166
844.162	22109
844.298	22143
844.435	22055
844.571	22055
844.708	22154
844.844	22177
844.98	22185
845.117	22242
845.253	22097
845.389	21960
845.525	21903
845.661	21857
845.798	21808
845.934	21922
846.07	21797
846.206	21766
846.342	21930
846.478	21682
846.614	21599
846.75	21507
846.886	21606
847.022	21720
847.158	21542
847.294	21496
847.429	21469
847.565	21500
847.701	21732
847.837	21279
847.972	21226
848.108	21466
848.244	21192
848.379	21256
848.515	21096
848.65	21116
848.786	21123
848.921	21180
849.057	21218
849.192	21195
849.328	21100
849.463	21074
849.598	21157
849.734	21062
849.869	20982
850.004	20807
850.14	20883
850.275	20807
850.41	20792
850.545	20800
850.68	20876
850.815	20921
850.95	20849
851.085	21028
851.22	20960
851.355	20815
851.49	20823
851.625	20883
851.76	20838
851.895	20906
852.03	20868
852.165	20918
852.299	20910
852.434	20800
852.569	20918
852.703	20845
852.838	20899
852.973	20952
853.107	20963
853.242	20906
853.376	20758
853.511	20488
853.645	20648
853.78	20735
853.914	20625
854.048	20769
854.183	20670
854.317	20712
854.451	20880
854.585	20724
854.72	20549
854.854	20743
854.988	20598
855.122	20788
855.256	20632
855.39	20644
855.524	20705
855.658	20899
855.792	20625
855.926	20735
856.06	20724
856.194	20621
856.327	20636
856.461	20617
856.595	20579
856.729	20682
856.862	20807
856.996	20663
857.13	20815
857.263	20819
857.397	20834
857.53	20689
857.664	20857
857.797	20804
857.931	20769
858.064	20796
858.197	20963
858.331	20659
858.464	20667
858.597	20571
858.731	20594
858.864	20579
858.997	20716
859.13	20705
859.263	20716
859.396	20796
859.529	20663
859.662	20648
859.795	20701
859.928	20579
860.061	20880
860.194	20868
860.327	20724
860.46	20693
860.592	20952
860.725	20887
860.858	20796
860.99	20842
861.123	20743
861.256	20613
861.388	20777
861.521	21283
861.653	20674
861.786	20495
861.918	20469
862.05	20480
862.183	20594
862.315	20701
862.447	20708
862.58	20667
862.712	20419
862.844	20431
862.976	20446
863.108	20526
863.24	20838
863.372	20389
863.504	20351
863.636	20457
863.768	20419
863.9	20549
864.032	20324
864.164	20381
864.296	20419
864.428	20537
864.559	20537
864.691	20530
864.823	20404
864.954	20355
865.086	20317
865.217	20286
865.349	20275
865.48	20290
865.612	20294
865.743	20442
865.875	20259
866.006	20351
866.137	20305
866.269	20328
866.4	20343
866.531	20248
866.662	20214
866.793	20332
866.924	20320
867.055	20206
867.186	20259
867.317	20313
867.448	20229
867.579	20317
867.71	20092
867.841	20332
867.972	20336
868.103	20206
868.233	20301
868.364	20248
868.495	20415
868.625	20488
868.756	20549
868.886	20476
869.017	20530
869.147	20575
869.278	20598
869.408	20442
869.539	20495
869.669	20480
869.799	20526
869.929	20621
870.06	20724
870.19	20815
870.32	20853
870.45	20986
870.58	20861
870.71	21074
870.84	20979
870.97	20925
871.1	20819
871.23	21066
871.36	21108
871.489	21074
871.619	20994
871.749	21070
871.879	21199
872.008	21199
872.138	21119
872.267	21127
872.397	20994
872.526	20906
872.656	21062
872.785	20914
872.915	21184
873.044	21135
873.173	21093
873.303	21222
873.432	21180
873.561	21161
873.69	21192
873.819	21116
873.948	21233
874.077	21036
874.206	21203
874.335	21100
874.464	21222
874.593	21416
874.722	21382
874.851	21340
874.979	21466
875.108	21397
875.237	21313
875.365	21374
875.494	21450
875.623	21553
875.751	21363
875.88	21367
876.008	21496
876.136	21564
876.265	21827
876.393	21892
876.521	21869
876.65	21922
876.778	21827
876.906	21682
877.034	21781
877.162	21606
877.29	21781
877.418	21762
877.546	21709
877.674	21747
877.802	21633
877.93	21751
878.058	21762
878.185	21671
878.313	21698
878.441	21690
878.568	21610
878.696	21637
878.824	21743
878.951	21789
879.079	21854
879.206	21975
879.333	21842
879.461	21873
879.588	21755
879.715	21968
879.842	21846
879.97	21831
880.097	21724
880.224	21519
880.351	21595
880.478	21561
880.605	21496
880.732	21622
880.859	21778
880.986	21599
881.112	21618
881.239	21348
881.366	21226
881.493	21241
881.619	21199
881.746	21180
881.872	21096
881.999	21047
882.125	21051
882.252	21093
882.378	21066
882.505	21321
882.631	20933
882.757	20842
882.883	20967
883.01	20876
883.136	20971
883.262	20727
883.388	20678
883.514	20830
883.64	20967
883.766	20743
883.892	20659
884.018	20636
884.143	20811
884.269	20838
884.395	20602
884.52	20389
884.646	20549
884.772	20503
884.897	20415
885.023	20377
885.148	20473
885.274	20629
885.399	20617
885.524	20560
885.65	20484
885.775	20431
885.9	20431
886.025	20552
886.15	20632
886.275	20476
886.4	20579
886.525	20473
886.65	20431
886.775	20366
886.9	20492
887.025	20678
887.149	20434
887.274	20256
887.399	20218
887.523	20336
887.648	20142
887.773	20149
887.897	20298
888.021	20298
888.146	20233
888.27	20374
888.395	20259
888.519	20328
888.643	20275
888.767	20461
888.891	20180
889.015	19997
889.139	20161
889.263	20081
889.387	20149
889.511	20237
889.635	20324
889.759	20050
889.883	19955
890.006	20008
890.13	20199
890.254	20039
890.377	19989
890.501	19822
890.624	19833
890.748	19883
890.871	19864
890.995	19624
891.118	19635
891.241	19681
891.364	19696
891.488	19772
891.611	19666
891.734	19708
891.857	19635
891.98	19548
892.103	19738
892.226	19616
892.349	19639
892.471	19460
892.594	19518
892.717	19696
892.839	19601
892.962	19582
893.085	19647
893.207	19563
893.33	19441
893.452	19594
893.575	19556
893.697	19525
893.819	19784
893.941	19746
894.064	19753
894.186	19480
894.308	19540
894.43	19696
894.552	19723
894.674	19620
894.796	19502
894.918	19620
895.04	19540
895.161	19635
895.283	19616
895.405	19514
895.526	19499
895.648	19575
895.769	19674
895.891	19582
896.012	19601
896.134	19548
896.255	19518
896.376	19575
896.498	19586
896.619	19632
896.74	19525
896.861	19567
896.982	19902
897.103	20058
897.224	19807
897.345	19826
897.466	19769
897.587	19757
897.708	20031
897.828	19784
897.949	19765
898.07	19586
898.19	19666
898.311	19780
898.431	19719
898.552	19765
898.672	19909
898.792	19959
898.913	19734
899.033	19628
899.153	19715
899.273	19506
899.393	19487
899.513	19563
899.633	19578
899.753	19628
899.873	19468
899.993	19597
900.113	19491
900.232	19518
900.352	19354
900.472	19362
900.591	19263
900.711	19400
900.83	19308
900.95	19430
901.069	19407
901.189	19225
901.308	19057
901.427	18878
901.546	18890
901.665	19000
901.784	18920
901.904	18856
902.023	18684
902.141	18391
902.26	18502
902.379	18631
902.498	18547
902.617	18460
902.735	18464
902.854	18467
902.973	18395
903.091	18114
903.21	18136
903.328	18133
903.446	17996
903.565	18030
903.683	17916
903.801	17794
903.919	17904
904.038	17927
904.156	17775
904.274	17847
904.392	17646
904.51	17767
904.627	17741
904.745	17699
904.863	17878
904.981	17421
905.098	17429
905.216	17417
905.334	17425
905.451	17318
905.569	17193
905.686	17334
905.803	17341
905.921	17136
906.038	17307
906.155	17265
906.272	17041
906.389	17102
906.506	16904
906.623	16984
906.74	16847
906.857	16793
906.974	16805
907.091	17056
907.208	17079
907.324	16976
907.441	16835
907.557	16706
907.674	16675
907.79	16573
907.907	16713
908.023	16668
908.139	16675
908.256	16649
908.372	16443
908.488	16558
908.604	16466
908.72	16371
908.836	16367
908.952	16341
909.068	16424
909.184	16447
909.3	16348
909.415	16390
909.531	16367
909.647	16204
909.762	16097
909.878	16074
909.993	16013
910.108	16063
910.224	16059
910.339	16082
910.454	15865
910.57	15865
910.685	15884
910.8	16036
910.915	16063
911.03	15781
911.145	15720
911.259	15797
911.374	15694
911.489	15526
911.604	15584
911.718	15351
911.833	15397
911.947	15359
912.062	15249
912.176	15428
912.291	15420
912.405	15435
912.519	15610
912.633	15603
912.748	15420
912.862	15408
912.976	15332
913.09	15169
913.204	15230
913.318	15279
913.431	15488
913.545	15367
913.659	15344
913.772	15222
913.886	15173
914	15009
914.113	15169
914.226	15184
914.34	15135
914.453	14902
914.566	15108
914.68	14952
914.793	14895
914.906	14758
915.019	14594
915.132	14610
915.245	14602
915.358	14720
915.47	14701
915.583	14644
915.696	14708
915.809	14804
915.921	14754
916.034	14705
916.146	14579
916.259	14549
916.371	14750
916.483	14678
916.595	14454
916.708	14484
916.82	14495
916.932	14556
917.044	14549
917.156	14476
917.268	14442
917.38	14328
917.491	14366
917.603	14404
917.715	14473
917.826	14454
917.938	14377
918.049	14221
918.161	14317
918.272	14385
918.384	14396
918.495	14282
918.606	14031
918.717	14069
918.828	14187
918.939	14180
919.05	13974
919.161	14027
919.272	13795
919.383	13978
919.494	14107
919.604	14237
919.715	14123
919.826	14024
919.936	14062
920.047	14145
920.157	14187
920.267	14347
920.378	14027
920.488	14088
920.598	14237
920.708	14347
920.818	14214
920.928	14180
921.038	14313
921.148	14336
921.258	14096
921.368	13997
921.477	13791
921.587	13826
921.697	13628
921.806	13871
921.916	13704
922.025	13537
922.134	13548
922.244	13499
922.353	13674
922.462	13384
922.571	13301
922.68	13308
922.789	13061
922.898	13145
923.007	13069
923.116	13247
923.224	13061
923.333	13099
923.442	12954
923.55	12943
923.659	12970
923.767	13042
923.876	12859
923.984	13000
924.092	12814
924.201	13103
924.309	12875
924.417	12905
924.525	12833
924.633	12787
924.741	13628
924.849	12574
924.956	12741
925.064	12620
925.172	12506
925.279	12612
925.387	12620
925.494	12589
925.602	12719
925.709	12654
925.816	12452
925.924	12528
926.031	12616
926.138	12620
926.245	12479
926.352	12494
926.459	12551
926.566	12563
926.673	12346
926.779	12327
926.886	12338
926.993	12163
927.099	12197
927.206	12197
927.312	12140
927.419	12205
927.525	12144
927.631	12155
927.737	12117
927.843	12019
927.95	11927
928.056	12038
928.162	11988
928.267	11969
928.373	12654
928.479	12034
928.585	11821
928.69	11935
928.796	11958
928.901	11802
929.007	11779
929.112	11843
929.218	11817
929.323	11695
929.428	11714
929.533	11889
929.638	11600
929.743	11714
929.848	11710
929.953	11619
930.058	11551
930.163	11356
930.267	11436
930.372	11478
930.477	11356
930.581	11524
930.685	11452
930.79	11368
930.894	11376
930.998	11208
931.103	11497
931.207	11147
931.311	10942
931.415	10843
931.519	10664
931.623	10668
