Data from test_V78500241_2055.txt Node
Date: Fri Mar 25 15:24:10 CST 2022
User: usil
Spectrometer: V785-0024
Trigger mode: 0
Integration Time (sec): 4.000000E-1
Scans to average: 1
Nonlinearity correction enabled: false
Boxcar width: 0
Storing dark spectrum: false
XAxis mode: Wavelengths
Number of Pixels in Spectrum: 1024
>>>>>Begin Spectral Data<<<<<
801.071	27648
801.214	27477
801.356	27363
801.499	27294
801.641	27150
801.783	27169
801.926	27241
802.068	27058
802.211	27077
802.353	27070
802.496	26895
802.638	26815
802.78	26716
802.923	26720
803.065	26727
803.208	26667
803.35	26781
803.492	26857
803.635	26933
803.777	26883
803.919	27013
804.061	27245
804.204	26956
804.346	26952
804.488	26925
804.63	26982
804.773	26800
804.915	26914
805.057	27230
805.199	26937
805.341	27051
805.483	27089
805.626	27157
805.768	27051
805.91	27157
806.052	27161
806.194	26918
806.336	27180
806.478	27135
806.62	27055
806.762	27302
806.904	27408
807.046	27485
807.188	27439
807.33	27473
807.472	27507
807.614	27530
807.756	27564
807.898	27431
808.04	27214
808.182	27332
808.324	27526
808.465	27466
808.607	27561
808.749	27766
808.891	27865
809.033	27903
809.174	27778
809.316	27610
809.458	27717
809.6	27720
809.741	27827
809.883	27854
810.025	28036
810.166	28090
810.308	27827
810.45	27812
810.591	27892
810.733	27755
810.875	27542
811.016	27557
811.158	27633
811.299	27679
811.441	27671
811.582	27747
811.724	27614
811.865	27637
812.007	27717
812.148	27671
812.29	27797
812.431	27907
812.573	28025
812.714	28074
812.855	28120
812.997	28318
813.138	28341
813.279	28371
813.421	28166
813.562	28067
813.703	28070
813.845	27876
813.986	27667
814.127	27591
814.268	27275
814.41	27329
814.551	27344
814.692	27386
814.833	27382
814.974	27340
815.115	27367
815.256	27116
815.397	27291
815.539	27195
815.68	27051
815.821	26948
815.962	27188
816.103	27165
816.244	27001
816.385	26940
816.526	27036
816.666	26705
816.807	26613
816.948	26667
817.089	26838
817.23	26758
817.371	26594
817.512	26708
817.653	26632
817.793	26667
817.934	26773
818.075	26587
818.216	26594
818.356	26697
818.497	26564
818.638	26389
818.778	26374
818.919	26336
819.06	26541
819.2	26655
819.341	26708
819.481	26564
819.622	26807
819.762	26990
819.903	26910
820.043	26746
820.184	26815
820.324	26815
820.465	26800
820.605	26762
820.746	26796
820.886	26556
821.026	26735
821.167	26735
821.307	26937
821.447	26762
821.588	26499
821.728	26393
821.868	26286
822.008	26244
822.149	26187
822.289	26145
822.429	25856
822.569	25776
822.709	25845
822.849	25609
822.99	25670
823.13	25700
823.27	25518
823.41	25518
823.55	25327
823.69	25373
823.83	25304
823.97	25316
824.11	25240
824.25	25202
824.389	25221
824.529	25358
824.669	25312
824.809	25369
824.949	25304
825.089	25392
825.228	25396
825.368	25228
825.508	25148
825.648	25126
825.787	25221
825.927	25198
826.067	25122
826.206	25365
826.346	25080
826.485	25107
826.625	24970
826.765	25213
826.904	25133
827.044	24909
827.183	24966
827.323	24916
827.462	24848
827.601	24901
827.741	24966
827.88	24810
828.02	24783
828.159	24757
828.298	24833
828.437	24779
828.577	24681
828.716	24943
828.855	24802
828.994	24616
829.134	24486
829.273	24665
829.412	24490
829.551	24559
829.69	24498
829.829	24627
829.968	24555
830.107	24650
830.246	24502
830.385	24486
830.524	24414
830.663	24323
830.802	24361
830.941	24254
831.08	24174
831.219	24178
831.357	24125
831.496	24433
831.635	24133
831.774	24057
831.913	23969
832.051	24038
832.19	23874
832.329	23942
832.467	23885
832.606	23760
832.744	23809
832.883	23939
833.022	23756
833.16	23760
833.299	23821
833.437	23901
833.576	23901
833.714	23935
833.852	23866
833.991	23954
834.129	23946
834.267	23946
834.406	23946
834.544	23984
834.682	23897
834.821	23771
834.959	24003
835.097	23718
835.235	23984
835.373	23996
835.511	23988
835.65	23642
835.788	23718
835.926	23581
836.064	23547
836.202	23657
836.34	23722
836.478	23729
836.615	23668
836.753	23748
836.891	23798
837.029	23707
837.167	23665
837.305	23649
837.443	23646
837.58	23573
837.718	23577
837.856	23630
837.993	23531
838.131	23531
838.269	23478
838.406	23383
838.544	23410
838.681	23212
838.819	23242
838.956	23006
839.094	22915
839.231	23109
839.369	23303
839.506	23364
839.643	23277
839.781	23064
839.918	22942
840.055	22999
840.193	23025
840.33	22877
840.467	22949
840.604	22949
840.742	23109
840.879	22828
841.016	22862
841.153	22904
841.29	23109
841.427	22995
841.564	22930
841.701	23018
841.838	22835
841.975	22797
842.112	22816
842.249	22820
842.385	22752
842.522	22934
842.659	22828
842.796	22618
842.933	22717
843.069	22577
843.206	22603
843.343	22618
843.479	22828
843.616	22721
843.752	22485
843.889	22573
844.025	22702
844.162	22504
844.298	22478
844.435	22409
844.571	22352
844.708	22527
844.844	22679
844.98	22550
845.117	22474
845.253	22432
845.389	22386
845.525	22466
845.661	22394
845.798	22310
845.934	22337
846.07	22188
846.206	22337
846.342	22367
846.478	22025
846.614	21983
846.75	21876
846.886	21835
847.022	22051
847.158	21934
847.294	21926
847.429	21956
847.565	21972
847.701	22219
847.837	21633
847.972	21800
848.108	21755
848.244	21633
848.379	21492
848.515	21580
848.65	21447
848.786	21496
848.921	21549
849.057	21637
849.192	21595
849.328	21572
849.463	21625
849.598	21504
849.734	21473
849.869	21336
850.004	21355
850.14	21386
850.275	21310
850.41	21302
850.545	21294
850.68	21283
850.815	21325
850.95	21230
851.085	21416
851.22	21431
851.355	21241
851.49	21249
851.625	21355
851.76	21363
851.895	21135
852.03	21089
852.165	21332
852.299	21272
852.434	21370
852.569	21317
852.703	21306
852.838	21405
852.973	21515
853.107	21443
853.242	21283
853.376	21192
853.511	21066
853.645	21116
853.78	21192
853.914	21123
854.048	21157
854.183	20990
854.317	21135
854.451	21256
854.585	21150
854.72	21214
854.854	21157
854.988	21013
855.122	21100
855.256	21028
855.39	21199
855.524	21108
855.658	21184
855.792	20975
855.926	21233
856.06	21074
856.194	21211
856.327	21108
856.461	21058
856.595	21119
856.729	21127
856.862	21150
856.996	21119
857.13	21157
857.263	21230
857.397	21245
857.53	21116
857.664	21188
857.797	21173
857.931	21192
858.064	21180
858.197	21184
858.331	21096
858.464	21074
858.597	21131
858.731	21173
858.864	20971
858.997	21161
859.13	21138
859.263	21070
859.396	21211
859.529	20941
859.662	21017
859.795	21093
859.928	21199
860.061	21287
860.194	21329
860.327	21135
860.46	21131
860.592	21340
860.725	21192
860.858	21173
860.99	21077
861.123	21123
861.256	21096
861.388	21096
861.521	21755
861.653	20937
861.786	20883
861.918	20925
862.05	21032
862.183	21043
862.315	21135
862.447	21150
862.58	21055
862.712	20785
862.844	20792
862.976	20937
863.108	20986
863.24	21207
863.372	20826
863.504	20857
863.636	20819
863.768	20918
863.9	20880
864.032	20769
864.164	20861
864.296	20792
864.428	20857
864.559	20834
864.691	20807
864.823	20880
864.954	20758
865.086	20944
865.217	20815
865.349	20640
865.48	20640
865.612	20648
865.743	20838
865.875	20765
866.006	20598
866.137	20785
866.269	20678
866.4	20667
866.531	20613
866.662	20518
866.793	20545
866.924	20560
867.055	20727
867.186	20720
867.317	20663
867.448	20659
867.579	20575
867.71	20541
867.841	20659
867.972	20640
868.103	20655
868.233	20621
868.364	20689
868.495	20857
868.625	20906
868.756	20990
868.886	20792
869.017	20819
869.147	21104
869.278	20921
869.408	21013
869.539	20914
869.669	20906
869.799	20967
869.929	21108
870.06	21077
870.19	21203
870.32	21329
870.45	21332
870.58	21310
870.71	21348
870.84	21549
870.97	21306
871.1	21336
871.23	21515
871.36	21538
871.489	21389
871.619	21435
871.749	21477
871.879	21458
872.008	21587
872.138	21652
872.267	21485
872.397	21351
872.526	21222
872.656	21363
872.785	21302
872.915	21485
873.044	21595
873.173	21492
873.303	21572
873.432	21526
873.561	21564
873.69	21606
873.819	21580
873.948	21606
874.077	21557
874.206	21443
874.335	21519
874.464	21637
874.593	21705
874.722	21724
874.851	21736
874.979	21819
875.108	21831
875.237	21633
875.365	21648
875.494	21850
875.623	21774
875.751	21800
875.88	21778
876.008	21892
876.136	21766
876.265	22192
876.393	22139
876.521	22211
876.65	22238
876.778	22055
876.906	22112
877.034	22078
877.162	22082
877.29	22074
877.418	22185
877.546	22135
877.674	22055
877.802	22036
877.93	22112
878.058	22166
878.185	22013
878.313	22074
878.441	22074
878.568	21968
878.696	22086
878.824	22135
878.951	22185
879.079	22242
879.206	22424
879.333	22318
879.461	22120
879.588	22120
879.715	22109
879.842	22360
879.97	22188
880.097	21960
880.224	21915
880.351	22025
880.478	21987
880.605	21861
880.732	21876
880.859	22090
880.986	21998
881.112	21926
881.239	21797
881.366	21622
881.493	21469
881.619	21538
881.746	21511
881.872	21519
881.999	21473
882.125	21420
882.252	21447
882.378	21428
882.505	21614
882.631	21477
882.757	21180
882.883	21264
883.01	21104
883.136	21207
883.262	21009
883.388	20998
883.514	21222
883.64	21188
883.766	21119
883.892	20872
884.018	20929
884.143	21100
884.269	21226
884.395	21028
884.52	20792
884.646	20933
884.772	20815
884.897	20868
885.023	20845
885.148	20906
885.274	20948
885.399	20941
885.524	20857
885.65	20929
885.775	20902
885.9	20815
886.025	20952
886.15	20929
886.275	20819
886.4	20769
886.525	20800
886.65	20746
886.775	20724
886.9	20963
887.025	20960
887.149	20640
887.274	20686
887.399	20617
887.523	20625
887.648	20602
887.773	20590
887.897	20731
888.021	20583
888.146	20450
888.27	20689
888.395	20826
888.519	20716
888.643	20621
888.767	20602
888.891	20560
889.015	20465
889.139	20442
889.263	20507
889.387	20549
889.511	20648
889.635	20511
889.759	20347
889.883	20298
890.006	20381
890.13	20473
890.254	20396
890.377	20263
890.501	20138
890.624	20164
890.748	20324
890.871	19974
890.995	20054
891.118	19940
891.241	19978
891.364	20043
891.488	20126
891.611	19944
891.734	19963
891.857	19955
891.98	19871
892.103	19947
892.226	19967
892.349	19913
892.471	19750
892.594	19940
892.717	19883
892.839	19898
892.962	19944
893.085	19917
893.207	19852
893.33	19799
893.452	19890
893.575	20012
893.697	19799
893.819	19967
893.941	19974
894.064	20035
894.186	19803
894.308	19719
894.43	20001
894.552	20077
894.674	19947
894.796	19814
894.918	19826
895.04	19757
895.161	20027
895.283	19913
895.405	19712
895.526	19849
895.648	19856
895.769	19784
895.891	19856
896.012	19970
896.134	19890
896.255	19860
896.376	19833
896.498	20024
896.619	19932
896.74	19879
896.861	19925
896.982	20187
897.103	20404
897.224	20161
897.345	20130
897.466	20020
897.587	20043
897.708	20305
897.828	20138
897.949	20096
898.07	20005
898.19	20035
898.311	20187
898.431	19989
898.552	20088
898.672	20191
898.792	20313
898.913	20138
899.033	19986
899.153	19909
899.273	19807
899.393	19906
899.513	19860
899.633	19868
899.753	19750
899.873	19765
899.993	19818
900.113	19822
900.232	19814
900.352	19776
900.472	19860
900.591	19571
900.711	19719
900.83	19601
900.95	19761
901.069	19769
901.189	19670
901.308	19266
901.427	19251
901.546	19289
901.665	19175
901.784	19247
901.904	19107
902.023	18981
902.141	18757
902.26	18703
902.379	18913
902.498	18871
902.617	18616
902.735	18757
902.854	18779
902.973	18696
903.091	18475
903.21	18456
903.328	18361
903.446	18334
903.565	18266
903.683	18247
903.801	18098
903.919	18216
904.038	18232
904.156	17965
904.274	18125
904.392	17942
904.51	18072
904.627	17961
904.745	17996
904.863	18110
904.981	17775
905.098	17551
905.216	17707
905.334	17707
905.451	17634
905.569	17604
905.686	17687
905.803	17684
905.921	17417
906.038	17543
906.155	17429
906.272	17318
906.389	17395
906.506	17220
906.623	17330
906.74	17212
906.857	17003
906.974	17003
907.091	17299
907.208	17326
907.324	17200
907.441	17147
907.557	16946
907.674	16847
907.79	16831
907.907	16816
908.023	16942
908.139	17003
908.256	16904
908.372	16774
908.488	16866
908.604	16679
908.72	16592
908.836	16763
908.952	16596
909.068	16713
909.184	16710
909.3	16607
909.415	16687
909.531	16660
909.647	16474
909.762	16421
909.878	16303
909.993	16413
910.108	16344
910.224	16363
910.339	16310
910.454	16272
910.57	16200
910.685	16101
910.8	16322
910.915	16329
911.03	16139
911.145	15941
911.259	15926
911.374	15934
911.489	15785
911.604	15911
911.718	15690
911.833	15705
911.947	15637
912.062	15492
912.176	15553
912.291	15580
912.405	15720
912.519	15797
912.633	15987
912.748	15694
912.862	15743
912.976	15545
913.09	15382
913.204	15386
913.318	15485
913.431	15477
913.545	15690
913.659	15663
913.772	15370
913.886	15272
914	15340
914.113	15408
914.226	15408
914.34	15287
914.453	15192
914.566	15306
914.68	15211
914.793	15131
914.906	15024
915.019	14921
915.132	14804
915.245	15047
915.358	14838
915.47	15032
915.583	14864
915.696	14880
915.809	15077
915.921	15100
916.034	14788
916.146	14819
916.259	14887
916.371	14921
916.483	14887
916.595	14781
916.708	14712
916.82	14845
916.932	14777
917.044	14617
917.156	14804
917.268	14629
917.38	14598
917.491	14511
917.603	14499
917.715	14648
917.826	14579
917.938	14549
918.049	14412
918.161	14518
918.272	14590
918.384	14659
918.495	14552
918.606	14408
918.717	14404
918.828	14362
918.939	14412
919.05	14267
919.161	14393
919.272	14081
919.383	14161
919.494	14358
919.604	14431
919.715	14347
919.826	14240
919.936	14202
920.047	14457
920.157	14271
920.267	14556
920.378	14332
920.488	14278
920.598	14434
920.708	14583
920.818	14457
920.928	14423
921.038	14526
921.148	14587
921.258	14233
921.368	14168
921.477	14039
921.587	13959
921.697	14001
921.806	13959
921.916	13890
922.025	13830
922.134	13719
922.244	13605
922.353	13727
922.462	13582
922.571	13529
922.68	13320
922.789	13331
922.898	13331
923.007	13293
923.116	13392
923.224	13343
923.333	13304
923.442	13285
923.55	13145
923.659	13255
923.767	13304
923.876	13012
923.984	13175
924.092	13053
924.201	13133
924.309	13156
924.417	13053
924.525	13019
924.633	13053
924.741	13799
924.849	12776
924.956	12958
925.064	12817
925.172	12700
925.279	12730
925.387	12837
925.494	12776
925.602	12901
925.709	12814
925.816	12627
925.924	12738
926.031	12802
926.138	12741
926.245	12757
926.352	12650
926.459	12764
926.566	12779
926.673	12639
926.779	12570
926.886	12551
926.993	12369
927.099	12410
927.206	12273
927.312	12270
927.419	12414
927.525	12289
927.631	12350
927.737	12247
927.843	12175
927.95	12022
928.056	12194
928.162	12182
928.267	12201
928.373	12768
928.479	12159
928.585	12019
928.69	12144
928.796	12167
928.901	12011
929.007	11828
929.112	12102
929.218	11984
929.323	12019
929.428	11897
929.533	11969
929.638	11889
929.743	11824
929.848	11931
929.953	11794
930.058	11741
930.163	11642
930.267	11646
930.372	11741
930.477	11543
930.581	11824
930.685	11604
930.79	11398
930.894	11554
930.998	11383
931.103	11524
931.207	11250
931.311	11170
931.415	11098
931.519	10869
931.623	10911
