Data from test_V78500241_750.txt Node
Date: Fri Mar 25 15:15:04 CST 2022
User: usil
Spectrometer: V785-0024
Trigger mode: 0
Integration Time (sec): 4.000000E-1
Scans to average: 1
Nonlinearity correction enabled: false
Boxcar width: 0
Storing dark spectrum: false
XAxis mode: Wavelengths
Number of Pixels in Spectrum: 1024
>>>>>Begin Spectral Data<<<<<
801.071	27545
801.214	27534
801.356	27180
801.499	27245
801.641	27116
801.783	27085
801.926	27264
802.068	27036
802.211	27051
802.353	26994
802.496	26743
802.638	26712
802.78	26724
802.923	26674
803.065	26686
803.208	26617
803.35	26606
803.492	26880
803.635	26868
803.777	26731
803.919	26876
804.061	27176
804.204	26986
804.346	26880
804.488	26792
804.63	26667
804.773	26800
804.915	26872
805.057	27028
805.199	26838
805.341	27009
805.483	27138
805.626	26952
805.768	26876
805.91	26929
806.052	26998
806.194	26876
806.336	27169
806.478	27055
806.62	27119
806.762	27074
806.904	27317
807.046	27511
807.188	27412
807.33	27424
807.472	27466
807.614	27534
807.756	27466
807.898	27268
808.04	27272
808.182	27298
808.324	27351
808.465	27283
808.607	27564
808.749	27663
808.891	27774
809.033	27857
809.174	27797
809.316	27701
809.458	27709
809.6	27656
809.741	27835
809.883	27831
810.025	27892
810.166	27926
810.308	28059
810.45	27911
810.591	27690
810.733	27736
810.875	27698
811.016	27637
811.158	27599
811.299	27720
811.441	27816
811.582	27755
811.724	27610
811.865	27603
812.007	27580
812.148	27561
812.29	27652
812.431	27884
812.573	27953
812.714	28021
812.855	28249
812.997	28375
813.138	28523
813.279	28360
813.421	28329
813.562	28223
813.703	28078
813.845	28010
813.986	27656
814.127	27545
814.268	27397
814.41	27397
814.551	27154
814.692	27363
814.833	27313
814.974	27412
815.115	27351
815.256	27283
815.397	27283
815.539	27336
815.68	27081
815.821	27077
815.962	27074
816.103	27066
816.244	27135
816.385	26918
816.526	26982
816.666	26777
816.807	26473
816.948	26655
817.089	26785
817.23	26659
817.371	26545
817.512	26708
817.653	26648
817.793	26602
817.934	26716
818.075	26590
818.216	26678
818.356	26655
818.497	26560
818.638	26427
818.778	26313
818.919	26427
819.06	26427
819.2	26488
819.341	26727
819.481	26530
819.622	26769
819.762	26895
819.903	26937
820.043	26788
820.184	26712
820.324	26678
820.465	26746
820.605	26868
820.746	26773
820.886	26629
821.026	26571
821.167	26594
821.307	26781
821.447	26579
821.588	26571
821.728	26457
821.868	26229
822.008	26027
822.149	26153
822.289	26145
822.429	25936
822.569	25738
822.709	25639
822.849	25643
822.99	25681
823.13	25556
823.27	25674
823.41	25373
823.55	25282
823.69	25350
823.83	25422
823.97	25381
824.11	25202
824.25	25236
824.389	25065
824.529	25354
824.669	25148
824.809	25422
824.949	25346
825.089	25320
825.228	25282
825.368	25038
825.508	25069
825.648	25088
825.787	25232
825.927	25122
826.067	25053
826.206	25061
826.346	25183
826.485	25190
826.625	25137
826.765	25274
826.904	25266
827.044	24863
827.183	24894
827.323	24730
827.462	24833
827.601	24753
827.741	24916
827.88	24875
828.02	24623
828.159	24795
828.298	24791
828.437	24886
828.577	24795
828.716	24894
828.855	24791
828.994	24517
829.134	24555
829.273	24475
829.412	24525
829.551	24498
829.69	24445
829.829	24608
829.968	24544
830.107	24658
830.246	24673
830.385	24532
830.524	24445
830.663	24372
830.802	24289
830.941	24167
831.08	24178
831.219	24174
831.357	24140
831.496	24327
831.635	24117
831.774	23965
831.913	24007
832.051	24079
832.19	23984
832.329	23916
832.467	23760
832.606	23775
832.744	23745
832.883	23798
833.022	23817
833.16	23866
833.299	23771
833.437	23737
833.576	23912
833.714	23783
833.852	23916
833.991	23901
834.129	23923
834.267	23889
834.406	23843
834.544	23923
834.682	23874
834.821	23745
834.959	23920
835.097	23828
835.235	23874
835.373	23741
835.511	23843
835.65	23596
835.788	23767
835.926	23581
836.064	23474
836.202	23474
836.34	23646
836.478	23756
836.615	23680
836.753	23695
836.891	23809
837.029	23813
837.167	23767
837.305	23615
837.443	23619
837.58	23528
837.718	23573
837.856	23707
837.993	23429
838.131	23539
838.269	23322
838.406	23429
838.544	23303
838.681	23086
838.819	23071
838.956	23006
839.094	22991
839.231	23064
839.369	23155
839.506	23395
839.643	23155
839.781	23037
839.918	22961
840.055	23033
840.193	22968
840.33	22919
840.467	22919
840.604	22908
840.742	23109
840.879	22748
841.016	22885
841.153	22809
841.29	23067
841.427	22946
841.564	22923
841.701	22949
841.838	22847
841.975	22839
842.112	22850
842.249	22660
842.385	22615
842.522	22843
842.659	22679
842.796	22641
842.933	22557
843.069	22550
843.206	22649
843.343	22710
843.479	22687
843.616	22672
843.752	22489
843.889	22565
844.025	22554
844.162	22516
844.298	22348
844.435	22417
844.571	22459
844.708	22527
844.844	22645
844.98	22603
845.117	22508
845.253	22322
845.389	22299
845.525	22325
845.661	22261
845.798	22105
845.934	22291
846.07	22097
846.206	22242
846.342	22158
846.478	22124
846.614	21972
846.75	22002
846.886	21892
847.022	21857
847.158	21987
847.294	21915
847.429	21873
847.565	21926
847.701	22154
847.837	21633
847.972	21557
848.108	21736
848.244	21819
848.379	21587
848.515	21481
848.65	21545
848.786	21412
848.921	21603
849.057	21587
849.192	21526
849.328	21625
849.463	21420
849.598	21492
849.734	21363
849.869	21325
850.004	21252
850.14	21256
850.275	21340
850.41	21154
850.545	21131
850.68	21268
850.815	21287
850.95	21237
851.085	21473
851.22	21393
851.355	21298
851.49	21283
851.625	21336
851.76	21260
851.895	21173
852.03	21192
852.165	21165
852.299	21230
852.434	21317
852.569	21317
852.703	21287
852.838	21294
852.973	21367
853.107	21298
853.242	21287
853.376	21165
853.511	20994
853.645	21112
853.78	21230
853.914	21096
854.048	21074
854.183	21070
854.317	21131
854.451	21272
854.585	21123
854.72	21024
854.854	21169
854.988	21009
855.122	21096
855.256	20887
855.39	20967
855.524	21157
855.658	21085
855.792	21146
855.926	21131
856.06	21176
856.194	21214
856.327	21089
856.461	21020
856.595	20906
856.729	21047
856.862	21100
856.996	21207
857.13	21249
857.263	21233
857.397	21188
857.53	21055
857.664	21112
857.797	21093
857.931	21142
858.064	21017
858.197	21264
858.331	20998
858.464	21096
858.597	21020
858.731	21119
858.864	21017
858.997	21096
859.13	21100
859.263	21043
859.396	21131
859.529	21066
859.662	21051
859.795	21009
859.928	21001
860.061	21279
860.194	21249
860.327	21127
860.46	21100
860.592	21207
860.725	21272
860.858	21169
860.99	21089
861.123	21127
861.256	21043
861.388	21013
861.521	21770
861.653	20982
861.786	20971
861.918	20914
862.05	20971
862.183	20944
862.315	21055
862.447	21089
862.58	20960
862.712	20868
862.844	20819
862.976	20895
863.108	20807
863.24	21218
863.372	20644
863.504	20792
863.636	20765
863.768	20872
863.9	20807
864.032	20785
864.164	20667
864.296	20819
864.428	20906
864.559	20838
864.691	20853
864.823	20705
864.954	20823
865.086	20716
865.217	20659
865.349	20617
865.48	20697
865.612	20804
865.743	20864
865.875	20678
866.006	20682
866.137	20785
866.269	20746
866.4	20701
866.531	20651
866.662	20594
866.793	20640
866.924	20686
867.055	20598
867.186	20655
867.317	20629
867.448	20598
867.579	20590
867.71	20644
867.841	20552
867.972	20602
868.103	20651
868.233	20670
868.364	20560
868.495	20845
868.625	20910
868.756	20944
868.886	20781
869.017	20845
869.147	20963
869.278	20986
869.408	20902
869.539	20880
869.669	20979
869.799	20876
869.929	21096
870.06	21032
870.19	21138
870.32	21184
870.45	21298
870.58	21245
870.71	21344
870.84	21325
870.97	21245
871.1	21230
871.23	21370
871.36	21523
871.489	21340
871.619	21359
871.749	21412
871.879	21557
872.008	21507
872.138	21492
872.267	21454
872.397	21428
872.526	21218
872.656	21344
872.785	21363
872.915	21428
873.044	21572
873.173	21534
873.303	21583
873.432	21553
873.561	21500
873.69	21530
873.819	21507
873.948	21492
874.077	21553
874.206	21553
874.335	21542
874.464	21637
874.593	21812
874.722	21743
874.851	21842
874.979	21755
875.108	21778
875.237	21690
875.365	21618
875.494	21686
875.623	21770
875.751	21614
875.88	21713
876.008	21884
876.136	21873
876.265	22040
876.393	22234
876.521	22101
876.65	22150
876.778	22101
876.906	22048
877.034	22040
877.162	21953
877.29	22109
877.418	22090
877.546	22070
877.674	22032
877.802	22021
877.93	22029
878.058	22029
878.185	22013
878.313	22055
878.441	22021
878.568	21895
878.696	21979
878.824	22162
878.951	22078
879.079	22226
879.206	22352
879.333	22249
879.461	22143
879.588	22219
879.715	22169
879.842	22424
879.97	22131
880.097	21937
880.224	21994
880.351	21857
880.478	21857
880.605	21861
880.732	21892
880.859	22116
880.986	21857
881.112	21953
881.239	21747
881.366	21671
881.493	21648
881.619	21428
881.746	21488
881.872	21462
881.999	21466
882.125	21405
882.252	21511
882.378	21473
882.505	21511
882.631	21397
882.757	21157
882.883	21207
883.01	21256
883.136	21112
883.262	21066
883.388	20982
883.514	21154
883.64	21214
883.766	21161
883.892	20876
884.018	20952
884.143	21131
884.269	21233
884.395	20861
884.52	20781
884.646	20701
884.772	20769
884.897	20659
885.023	20739
885.148	20823
885.274	21051
885.399	20807
885.524	20762
885.65	20842
885.775	20834
885.9	20800
886.025	20929
886.15	20963
886.275	20811
886.4	20625
886.525	20785
886.65	20640
886.775	20796
886.9	20861
887.025	21005
887.149	20834
887.274	20621
887.399	20507
887.523	20625
887.648	20552
887.773	20568
887.897	20560
888.021	20526
888.146	20511
888.27	20644
888.395	20697
888.519	20575
888.643	20556
888.767	20758
888.891	20476
889.015	20423
889.139	20370
889.263	20442
889.387	20522
889.511	20571
889.635	20488
889.759	20351
889.883	20271
890.006	20389
890.13	20473
890.254	20332
890.377	20259
890.501	20092
890.624	20168
890.748	20183
890.871	19986
890.995	19906
891.118	19776
891.241	19955
891.364	19982
891.488	20111
891.611	19898
891.734	19944
891.857	20005
891.98	19959
892.103	20031
892.226	19902
892.349	19947
892.471	19689
892.594	19868
892.717	19974
892.839	19791
892.962	19883
893.085	19921
893.207	19856
893.33	19826
893.452	19780
893.575	19959
893.697	19845
893.819	20084
893.941	20088
894.064	20012
894.186	19791
894.308	19811
894.43	19909
894.552	19951
894.674	19963
894.796	19887
894.918	19791
895.04	19765
895.161	20012
895.283	19814
895.405	19879
895.526	19860
895.648	19818
895.769	19928
895.891	19913
896.012	20016
896.134	19955
896.255	19841
896.376	19860
896.498	19890
896.619	19879
896.74	19852
896.861	19951
896.982	20214
897.103	20256
897.224	19974
897.345	20202
897.466	19894
897.587	20073
897.708	20168
897.828	20164
897.949	19989
898.07	19913
898.19	20043
898.311	20271
898.431	20130
898.552	20210
898.672	20084
898.792	20164
898.913	20039
899.033	20046
899.153	20035
899.273	19666
899.393	19849
899.513	19898
899.633	19989
899.753	19936
899.873	19795
899.993	19795
900.113	19795
900.232	19898
900.352	19689
900.472	19719
900.591	19575
900.711	19586
900.83	19563
900.95	19772
901.069	19772
901.189	19594
901.308	19297
901.427	19251
901.546	19255
901.665	19266
901.784	19316
901.904	19103
902.023	19034
902.141	18814
902.26	18673
902.379	18829
902.498	18734
902.617	18715
902.735	18700
902.854	18631
902.973	18604
903.091	18395
903.21	18407
903.328	18384
903.446	18327
903.565	18228
903.683	18186
903.801	18106
903.919	18201
904.038	18235
904.156	17973
904.274	18053
904.392	18026
904.51	17973
904.627	17961
904.745	18007
904.863	18110
904.981	17767
905.098	17767
905.216	17714
905.334	17729
905.451	17634
905.569	17726
905.686	17665
905.803	17577
905.921	17543
906.038	17535
906.155	17417
906.272	17395
906.389	17387
906.506	17296
906.623	17204
906.74	17239
906.857	17037
906.974	17094
907.091	17296
907.208	17303
907.324	17178
907.441	17037
907.557	16949
907.674	16930
907.79	16911
907.907	16938
908.023	16778
908.139	16839
908.256	16866
908.372	16797
908.488	16752
908.604	16733
908.72	16637
908.836	16653
908.952	16550
909.068	16519
909.184	16736
909.3	16679
909.415	16713
909.531	16584
909.647	16390
909.762	16360
909.878	16367
909.993	16363
910.108	16390
910.224	16348
910.339	16265
910.454	16249
910.57	16185
910.685	16112
910.8	16329
910.915	16253
911.03	16150
911.145	15991
911.259	15960
911.374	15975
911.489	15755
911.604	15873
911.718	15705
911.833	15751
911.947	15637
912.062	15511
912.176	15610
912.291	15747
912.405	15568
912.519	15907
912.633	15823
912.748	15736
912.862	15644
912.976	15473
913.09	15374
913.204	15408
913.318	15496
913.431	15648
913.545	15572
913.659	15496
913.772	15382
913.886	15302
914	15260
914.113	15348
914.226	15298
914.34	15450
914.453	15165
914.566	15306
914.68	15203
914.793	15173
914.906	14960
915.019	14963
915.132	14777
915.245	14921
915.358	14960
915.47	14994
915.583	14864
915.696	14975
915.809	15097
915.921	15036
916.034	14906
916.146	14765
916.259	14834
916.371	14887
916.483	14857
916.595	14762
916.708	14754
916.82	14777
916.932	14606
917.044	14697
917.156	14705
917.268	14583
917.38	14682
917.491	14530
917.603	14484
917.715	14632
917.826	14659
917.938	14552
918.049	14427
918.161	14514
918.272	14674
918.384	14765
918.495	14590
918.606	14328
918.717	14259
918.828	14358
918.939	14442
919.05	14278
919.161	14396
919.272	14126
919.383	14153
919.494	14313
919.604	14549
919.715	14362
919.826	14161
919.936	14275
920.047	14389
920.157	14374
920.267	14556
920.378	14396
920.488	14328
920.598	14438
920.708	14621
920.818	14366
920.928	14522
921.038	14568
921.148	14560
921.258	14256
921.368	14145
921.477	14043
921.587	14081
921.697	13970
921.806	14035
921.916	13940
922.025	13704
922.134	13727
922.244	13685
922.353	13761
922.462	13609
922.571	13578
922.68	13419
922.789	13251
922.898	13396
923.007	13206
923.116	13304
923.224	13335
923.333	13331
923.442	13266
923.55	13095
923.659	13202
923.767	13270
923.876	13072
923.984	13183
924.092	13110
924.201	13099
924.309	13061
924.417	13145
924.525	13065
924.633	12993
924.741	13719
924.849	12890
924.956	12916
925.064	12852
925.172	12726
925.279	12776
925.387	12863
925.494	12791
925.602	12798
925.709	12772
925.816	12696
925.924	12707
926.031	12741
926.138	12604
926.245	12825
926.352	12544
926.459	12795
926.566	12806
926.673	12681
926.779	12601
926.886	12544
926.993	12448
927.099	12357
927.206	12319
927.312	12235
927.419	12353
927.525	12372
927.631	12315
927.737	12213
927.843	12182
927.95	12136
928.056	12171
928.162	12159
928.267	12197
928.373	12749
928.479	12262
928.585	12038
928.69	12110
928.796	12254
928.901	12045
929.007	11836
929.112	12087
929.218	12038
929.323	11969
929.428	11874
929.533	11942
929.638	11794
929.743	11870
929.848	11847
929.953	11851
930.058	11745
930.163	11585
930.267	11573
930.372	11722
930.477	11589
930.581	11802
930.685	11611
930.79	11478
930.894	11532
930.998	11539
931.103	11573
931.207	11204
931.311	11246
931.415	11128
931.519	10915
931.623	10847
