Data from test_V78500241_2770.txt Node
Date: Fri Mar 25 15:29:08 CST 2022
User: usil
Spectrometer: V785-0024
Trigger mode: 0
Integration Time (sec): 4.000000E-1
Scans to average: 1
Nonlinearity correction enabled: false
Boxcar width: 0
Storing dark spectrum: false
XAxis mode: Wavelengths
Number of Pixels in Spectrum: 1024
>>>>>Begin Spectral Data<<<<<
801.071	27062
801.214	27104
801.356	26746
801.499	26686
801.641	26606
801.783	26617
801.926	26651
802.068	26670
802.211	26450
802.353	26446
802.496	26412
802.638	26355
802.78	26290
802.923	26130
803.065	26077
803.208	26164
803.35	26100
803.492	26313
803.635	26549
803.777	26240
803.919	26499
804.061	26697
804.204	26503
804.346	26427
804.488	26286
804.63	26298
804.773	26233
804.915	26408
805.057	26549
805.199	26286
805.341	26442
805.483	26632
805.626	26602
805.768	26381
805.91	26488
806.052	26552
806.194	26294
806.336	26613
806.478	26503
806.62	26434
806.762	26678
806.904	26731
807.046	26986
807.188	26834
807.33	26902
807.472	26906
807.614	26830
807.756	26963
807.898	26811
808.04	26670
808.182	26727
808.324	26792
808.465	26777
808.607	26967
808.749	27218
808.891	27146
809.033	27211
809.174	27195
809.316	27051
809.458	27058
809.6	27062
809.741	27165
809.883	27188
810.025	27397
810.166	27386
810.308	27492
810.45	27211
810.591	27230
810.733	27047
810.875	27066
811.016	27074
811.158	27032
811.299	27043
811.441	27275
811.582	27348
811.724	27233
811.865	27108
812.007	27001
812.148	26982
812.29	26982
812.431	27222
812.573	27325
812.714	27538
812.855	27606
812.997	27492
813.138	27766
813.279	27759
813.421	27557
813.562	27511
813.703	27424
813.845	27142
813.986	26948
814.127	26834
814.268	26716
814.41	26792
814.551	26716
814.692	26811
814.833	26743
814.974	26651
815.115	26693
815.256	26545
815.397	26579
815.539	26629
815.68	26385
815.821	26541
815.962	26590
816.103	26431
816.244	26328
816.385	26374
816.526	26161
816.666	26058
816.807	26020
816.948	25959
817.089	26012
817.23	25959
817.371	25936
817.512	26077
817.653	25974
817.793	25875
817.934	25913
818.075	26005
818.216	26081
818.356	25868
818.497	25887
818.638	25632
818.778	25708
818.919	25643
819.06	25750
819.2	25864
819.341	26035
819.481	25902
819.622	26142
819.762	26351
819.903	26199
820.043	26214
820.184	26107
820.324	26096
820.465	26161
820.605	26103
820.746	25951
820.886	25917
821.026	26134
821.167	25974
821.307	25986
821.447	25928
821.588	25849
821.728	25845
821.868	25715
822.008	25434
822.149	25441
822.289	25392
822.429	25160
822.569	25126
822.709	25152
822.849	25038
822.99	24867
823.13	24901
823.27	24935
823.41	24894
823.55	24681
823.69	24764
823.83	24719
823.97	24684
824.11	24509
824.25	24544
824.389	24437
824.529	24658
824.669	24631
824.809	24559
824.949	24722
825.089	24665
825.228	24582
825.368	24505
825.508	24437
825.648	24532
825.787	24494
825.927	24536
826.067	24391
826.206	24452
826.346	24429
826.485	24483
826.625	24285
826.765	24513
826.904	24494
827.044	24232
827.183	24338
827.323	24053
827.462	24285
827.601	24205
827.741	24159
827.88	24083
828.02	23973
828.159	24133
828.298	24003
828.437	24140
828.577	24076
828.716	24136
828.855	24125
828.994	23878
829.134	23756
829.273	23863
829.412	23836
829.551	23703
829.69	23771
829.829	23840
829.968	23927
830.107	23965
830.246	23927
830.385	23748
830.524	23729
830.663	23745
830.802	23478
830.941	23414
831.08	23444
831.219	23589
831.357	23619
831.496	23608
831.635	23376
831.774	23265
831.913	23254
832.051	23166
832.19	23174
832.329	23254
832.467	23136
832.606	23079
832.744	23018
832.883	22938
833.022	22984
833.16	23109
833.299	22999
833.437	23064
833.576	23197
833.714	23181
833.852	23277
833.991	23258
834.129	23318
834.267	23170
834.406	23197
834.544	23277
834.682	23162
834.821	23216
834.959	23273
835.097	23090
835.235	23121
835.373	23166
835.511	23170
835.65	23048
835.788	23060
835.926	22965
836.064	22702
836.202	22843
836.34	22972
836.478	23105
836.615	23098
836.753	23041
836.891	23109
837.029	22984
837.167	22991
837.305	22968
837.443	22786
837.58	22816
837.718	22980
837.856	22763
837.993	22809
838.131	22858
838.269	22698
838.406	22683
838.544	22736
838.681	22512
838.819	22497
838.956	22443
839.094	22348
839.231	22527
839.369	22497
839.506	22805
839.643	22538
839.781	22360
839.918	22314
840.055	22257
840.193	22333
840.33	22154
840.467	22230
840.604	22188
840.742	22519
840.879	22188
841.016	22204
841.153	22207
841.29	22424
841.427	22177
841.564	22287
841.701	22261
841.838	22230
841.975	22234
842.112	22192
842.249	22166
842.385	22010
842.522	22329
842.659	22051
842.796	21895
842.933	22040
843.069	22013
843.206	21930
843.343	22063
843.479	22002
843.616	21979
843.752	21930
843.889	21873
844.025	21968
844.162	21838
844.298	21998
844.435	21770
844.571	21770
844.708	21827
844.844	21922
844.98	21956
845.117	21835
845.253	21675
845.389	21633
845.525	21800
845.661	21789
845.798	21545
845.934	21698
846.07	21507
846.206	21519
846.342	21770
846.478	21504
846.614	21378
846.75	21195
846.886	21272
847.022	21363
847.158	21283
847.294	21268
847.429	21294
847.565	21291
847.701	21458
847.837	21077
847.972	21043
848.108	21085
848.244	21081
848.379	20925
848.515	20944
848.65	20929
848.786	20853
848.921	20956
849.057	20998
849.192	20861
849.328	21062
849.463	20769
849.598	20750
849.734	20716
849.869	20857
850.004	20651
850.14	20606
850.275	20701
850.41	20530
850.545	20640
850.68	20609
850.815	20640
850.95	20697
851.085	20811
851.22	20689
851.355	20636
851.49	20583
851.625	20674
851.76	20651
851.895	20636
852.03	20564
852.165	20701
852.299	20644
852.434	20804
852.569	20575
852.703	20602
852.838	20594
852.973	20697
853.107	20800
853.242	20552
853.376	20461
853.511	20412
853.645	20522
853.78	20579
853.914	20533
854.048	20473
854.183	20450
854.317	20511
854.451	20708
854.585	20552
854.72	20488
854.854	20609
854.988	20434
855.122	20332
855.256	20404
855.39	20408
855.524	20511
855.658	20423
855.792	20514
855.926	20476
856.06	20522
856.194	20560
856.327	20423
856.461	20355
856.595	20389
856.729	20495
856.862	20564
856.996	20571
857.13	20351
857.263	20598
857.397	20545
857.53	20427
857.664	20549
857.797	20541
857.931	20545
858.064	20434
858.197	20545
858.331	20332
858.464	20400
858.597	20393
858.731	20484
858.864	20385
858.997	20461
859.13	20450
859.263	20450
859.396	20583
859.529	20526
859.662	20336
859.795	20476
859.928	20461
860.061	20678
860.194	20663
860.327	20484
860.46	20495
860.592	20514
860.725	20598
860.858	20568
860.99	20495
861.123	20301
861.256	20450
861.388	20514
861.521	20960
861.653	20317
861.786	20221
861.918	20343
862.05	20332
862.183	20389
862.315	20339
862.447	20446
862.58	20324
862.712	20256
862.844	20183
862.976	20298
863.108	20309
863.24	20556
863.372	20199
863.504	20233
863.636	20138
863.768	20183
863.9	20218
864.032	20164
864.164	20180
864.296	20237
864.428	20256
864.559	20256
864.691	20237
864.823	20191
864.954	20233
865.086	20039
865.217	20039
865.349	20145
865.48	20069
865.612	20054
865.743	20153
865.875	20103
866.006	19982
866.137	20122
866.269	19944
866.4	20069
866.531	19997
866.662	20008
866.793	20050
866.924	20043
867.055	19951
867.186	20046
867.317	20031
867.448	19967
867.579	20012
867.71	19963
867.841	19913
867.972	20024
868.103	20031
868.233	19967
868.364	19959
868.495	20134
868.625	20347
868.756	20320
868.886	20092
869.017	20244
869.147	20339
869.278	20396
869.408	20408
869.539	20252
869.669	20343
869.799	20263
869.929	20415
870.06	20347
870.19	20575
870.32	20602
870.45	20701
870.58	20746
870.71	20674
870.84	20701
870.97	20625
871.1	20609
871.23	20819
871.36	20872
871.489	20739
871.619	20830
871.749	20906
871.879	20963
872.008	21036
872.138	20899
872.267	20826
872.397	20781
872.526	20617
872.656	20758
872.785	20613
872.915	20929
873.044	20925
873.173	20807
873.303	20941
873.432	20872
873.561	20982
873.69	20979
873.819	20948
873.948	21077
874.077	20838
874.206	20921
874.335	20914
874.464	20963
874.593	21135
874.722	21085
874.851	21188
874.979	21279
875.108	21237
875.237	21085
875.365	20994
875.494	21055
875.623	21138
875.751	21260
875.88	21161
876.008	21306
876.136	21424
876.265	21587
876.393	21641
876.521	21648
876.65	21755
876.778	21603
876.906	21473
877.034	21469
877.162	21511
877.29	21321
877.418	21469
877.546	21447
877.674	21485
877.802	21424
877.93	21477
878.058	21564
878.185	21405
878.313	21420
878.441	21515
878.568	21458
878.696	21359
878.824	21500
878.951	21701
879.079	21595
879.206	21808
879.333	21682
879.461	21523
879.588	21625
879.715	21698
879.842	21732
879.97	21454
880.097	21298
880.224	21363
880.351	21382
880.478	21302
880.605	21351
880.732	21279
880.859	21523
880.986	21363
881.112	21481
881.239	21154
881.366	21131
881.493	21036
881.619	20994
881.746	21001
881.872	20918
881.999	20864
882.125	20849
882.252	20902
882.378	20937
882.505	20971
882.631	20918
882.757	20640
882.883	20720
883.01	20651
883.136	20625
883.262	20446
883.388	20404
883.514	20651
883.64	20807
883.766	20552
883.892	20499
884.018	20495
884.143	20625
884.269	20735
884.395	20332
884.52	20328
884.646	20309
884.772	20320
884.897	20278
885.023	20233
885.148	20419
885.274	20434
885.399	20256
885.524	20130
885.65	20362
885.775	20298
885.9	20339
886.025	20541
886.15	20324
886.275	20183
886.4	20233
886.525	20183
886.65	20172
886.775	20229
886.9	20396
887.025	20446
887.149	20149
887.274	19997
887.399	20043
887.523	20103
887.648	19871
887.773	20035
887.897	20134
888.021	20111
888.146	19997
888.27	20161
888.395	20092
888.519	20183
888.643	20016
888.767	20138
888.891	19833
889.015	19967
889.139	19932
889.263	19898
889.387	19936
889.511	19978
889.635	19978
889.759	19837
889.883	19845
890.006	19978
890.13	19890
890.254	19818
890.377	19791
890.501	19643
890.624	19567
890.748	19750
890.871	19518
890.995	19324
891.118	19388
891.241	19438
891.364	19537
891.488	19529
891.611	19430
891.734	19343
891.857	19510
891.98	19464
892.103	19540
892.226	19510
892.349	19411
892.471	19206
892.594	19445
892.717	19400
892.839	19320
892.962	19316
893.085	19354
893.207	19472
893.33	19236
893.452	19278
893.575	19354
893.697	19324
893.819	19594
893.941	19491
894.064	19544
894.186	19293
894.308	19228
894.43	19388
894.552	19483
894.674	19430
894.796	19190
894.918	19324
895.04	19304
895.161	19396
895.283	19407
895.405	19278
895.526	19430
895.648	19320
895.769	19331
895.891	19400
896.012	19358
896.134	19396
896.255	19407
896.376	19415
896.498	19324
896.619	19400
896.74	19324
896.861	19415
896.982	19605
897.103	19803
897.224	19677
897.345	19681
897.466	19518
897.587	19605
897.708	19772
897.828	19727
897.949	19521
898.07	19441
898.19	19468
898.311	19605
898.431	19597
898.552	19715
898.672	19685
898.792	19769
898.913	19727
899.033	19529
899.153	19384
899.273	19255
899.393	19400
899.513	19320
899.633	19415
899.753	19362
899.873	19266
899.993	19343
900.113	19297
900.232	19312
900.352	19453
900.472	19187
900.591	19194
900.711	19175
900.83	19152
900.95	19263
901.069	19346
901.189	19107
901.308	18890
901.427	18760
901.546	18787
901.665	18768
901.784	18703
901.904	18741
902.023	18601
902.141	18319
902.26	18266
902.379	18376
902.498	18197
902.617	18262
902.735	18327
902.854	18201
902.973	18209
903.091	17961
903.21	17859
903.328	17931
903.446	17931
903.565	17882
903.683	17657
903.801	17589
903.919	17695
904.038	17665
904.156	17497
904.274	17566
904.392	17554
904.51	17463
904.627	17551
904.745	17562
904.863	17547
904.981	17391
905.098	17204
905.216	17193
905.334	17261
905.451	17185
905.569	17109
905.686	17189
905.803	17159
905.921	16961
906.038	17117
906.155	16938
906.272	16812
906.389	16953
906.506	16706
906.623	16736
906.74	16824
906.857	16618
906.974	16607
907.091	16782
907.208	16748
907.324	16736
907.441	16622
907.557	16580
907.674	16413
907.79	16390
907.907	16478
908.023	16413
908.139	16474
908.256	16341
908.372	16519
908.488	16272
908.604	16223
908.72	16128
908.836	16219
908.952	16135
909.068	16154
909.184	16318
909.3	16234
909.415	16181
909.531	16188
909.647	15983
909.762	15937
909.878	15903
909.993	15956
910.108	15880
910.224	15918
910.339	15865
910.454	15770
910.57	15694
910.685	15671
910.8	15979
910.915	15789
911.03	15759
911.145	15507
911.259	15481
911.374	15485
911.489	15504
911.604	15428
911.718	15233
911.833	15329
911.947	15245
912.062	15157
912.176	15401
912.291	15317
912.405	15241
912.519	15469
912.633	15443
912.748	15458
912.862	15123
912.976	15150
913.09	14998
913.204	15051
913.318	15150
913.431	15127
913.545	15207
913.659	15237
913.772	15089
913.886	14944
914	14876
914.113	14963
914.226	15017
914.34	15024
914.453	14762
914.566	14941
914.68	14739
914.793	14705
914.906	14560
915.019	14549
915.132	14408
915.245	14503
915.358	14503
915.47	14415
915.583	14511
915.696	14610
915.809	14648
915.921	14613
916.034	14465
916.146	14427
916.259	14446
916.371	14457
916.483	14400
916.595	14355
916.708	14320
916.82	14431
916.932	14324
917.044	14320
917.156	14351
917.268	14183
917.38	14168
917.491	14134
917.603	14176
917.715	14244
917.826	14263
917.938	14031
918.049	14016
918.161	14054
918.272	14343
918.384	14218
918.495	14126
918.606	14084
918.717	13902
918.828	14020
918.939	13982
919.05	13913
919.161	13925
919.272	13731
919.383	13811
919.494	14024
919.604	14191
919.715	13986
919.826	13856
919.936	13986
920.047	13989
920.157	13993
920.267	14123
920.378	13997
920.488	13963
920.598	14161
920.708	14233
920.818	14126
920.928	13959
921.038	14187
921.148	14096
921.258	13963
921.368	13841
921.477	13750
921.587	13708
921.697	13533
921.806	13670
921.916	13575
922.025	13464
922.134	13259
922.244	13362
922.353	13460
922.462	13263
922.571	13103
922.68	13110
922.789	12954
922.898	12966
923.007	13004
923.116	13061
923.224	12954
923.333	12962
923.442	12894
923.55	12821
923.659	12852
923.767	12894
923.876	12787
923.984	12817
924.092	12806
924.201	12772
924.309	12810
924.417	12623
924.525	12658
924.633	12654
924.741	13723
924.849	12456
924.956	12563
925.064	12407
925.172	12437
925.279	12429
925.387	12490
925.494	12441
925.602	12585
925.709	12429
925.816	12277
925.924	12350
926.031	12490
926.138	12292
926.245	12467
926.352	12251
926.459	12448
926.566	12437
926.673	12258
926.779	12281
926.886	12194
926.993	12121
927.099	12022
927.206	12007
927.312	11992
927.419	12076
927.525	12026
927.631	12038
927.737	11935
927.843	11897
927.95	11729
928.056	11904
928.162	11897
928.267	11859
928.373	12525
928.479	11961
928.585	11672
928.69	11790
928.796	11897
928.901	11737
929.007	11554
929.112	11726
929.218	11684
929.323	11646
929.428	11539
929.533	11680
929.638	11482
929.743	11535
929.848	11600
929.953	11486
930.058	11398
930.163	11307
930.267	11273
930.372	11383
930.477	11303
930.581	11474
930.685	11330
930.79	11242
930.894	11185
930.998	11159
931.103	11334
931.207	10976
931.311	10968
931.415	10809
931.519	10550
931.623	10565
