Data from test_V78500241_451.txt Node
Date: Fri Mar 25 15:13:00 CST 2022
User: usil
Spectrometer: V785-0024
Trigger mode: 0
Integration Time (sec): 4.000000E-1
Scans to average: 1
Nonlinearity correction enabled: false
Boxcar width: 0
Storing dark spectrum: false
XAxis mode: Wavelengths
Number of Pixels in Spectrum: 1024
>>>>>Begin Spectral Data<<<<<
801.071	27142
801.214	27066
801.356	26971
801.499	26887
801.641	26606
801.783	26792
801.926	26754
802.068	26743
802.211	26644
802.353	26518
802.496	26381
802.638	26446
802.78	26362
802.923	26339
803.065	26218
803.208	26412
803.35	26317
803.492	26366
803.635	26484
803.777	26412
803.919	26541
804.061	26785
804.204	26473
804.346	26541
804.488	26480
804.63	26484
804.773	26336
804.915	26590
805.057	26739
805.199	26438
805.341	26583
805.483	26667
805.626	26667
805.768	26545
805.91	26549
806.052	26545
806.194	26545
806.336	26613
806.478	26746
806.62	26469
806.762	26659
806.904	26834
807.046	26979
807.188	27043
807.33	26998
807.472	27108
807.614	26971
807.756	27005
807.898	26735
808.04	26678
808.182	26765
808.324	26769
808.465	26739
808.607	27085
808.749	27077
808.891	27306
809.033	27439
809.174	27340
809.316	27226
809.458	27310
809.6	27260
809.741	27344
809.883	27283
810.025	27443
810.166	27473
810.308	27485
810.45	27431
810.591	27427
810.733	27226
810.875	27226
811.016	26948
811.158	27127
811.299	27233
811.441	27416
811.582	27367
811.724	27127
811.865	27195
812.007	27264
812.148	27112
812.29	27340
812.431	27405
812.573	27447
812.714	27660
812.855	27648
812.997	27857
813.138	27903
813.279	27892
813.421	27804
813.562	27785
813.703	27625
813.845	27435
813.986	27188
814.127	27043
814.268	26948
814.41	26792
814.551	26663
814.692	26937
814.833	26731
814.974	26963
815.115	26712
815.256	26568
815.397	26693
815.539	26629
815.68	26602
815.821	26499
815.962	26530
816.103	26636
816.244	26507
816.385	26446
816.526	26385
816.666	26172
816.807	26069
816.948	26195
817.089	26229
817.23	26332
817.371	26092
817.512	26172
817.653	26084
817.793	25993
817.934	26088
818.075	26271
818.216	26115
818.356	25925
818.497	25887
818.638	25753
818.778	25925
818.919	25902
819.06	25913
819.2	26020
819.341	26073
819.481	26027
819.622	26237
819.762	26412
819.903	26317
820.043	26381
820.184	26412
820.324	26244
820.465	26172
820.605	26240
820.746	26172
820.886	26077
821.026	26092
821.167	26134
821.307	26142
821.447	26039
821.588	26122
821.728	25909
821.868	25868
822.008	25609
822.149	25525
822.289	25613
822.429	25434
822.569	25438
822.709	25137
822.849	25091
822.99	25168
823.13	25148
823.27	25095
823.41	24875
823.55	24802
823.69	24973
823.83	24810
823.97	24772
824.11	24604
824.25	24589
824.389	24749
824.529	24635
824.669	24726
824.809	24757
824.949	24726
825.089	24840
825.228	24688
825.368	24608
825.508	24608
825.648	24570
825.787	24616
825.927	24578
826.067	24582
826.206	24623
826.346	24627
826.485	24593
826.625	24502
826.765	24734
826.904	24620
827.044	24224
827.183	24323
827.323	24136
827.462	24399
827.601	24357
827.741	24323
827.88	24247
828.02	24213
828.159	24327
828.298	24239
828.437	24330
828.577	24262
828.716	24380
828.855	24117
828.994	24026
829.134	24007
829.273	24095
829.412	23920
829.551	23973
829.69	23988
829.829	24045
829.968	24015
830.107	24015
830.246	24057
830.385	23901
830.524	23783
830.663	23802
830.802	23805
830.941	23547
831.08	23653
831.219	23604
831.357	23695
831.496	23889
831.635	23630
831.774	23611
831.913	23608
832.051	23360
832.19	23387
832.329	23520
832.467	23425
832.606	23220
832.744	23307
832.883	23284
833.022	23326
833.16	23372
833.299	23429
833.437	23193
833.576	23406
833.714	23440
833.852	23315
833.991	23592
834.129	23585
834.267	23391
834.406	23318
834.544	23376
834.682	23440
834.821	23433
834.959	23421
835.097	23307
835.235	23463
835.373	23250
835.511	23318
835.65	23288
835.788	23208
835.926	22987
836.064	22938
836.202	22908
836.34	23322
836.478	23334
836.615	23079
836.753	23254
836.891	23197
837.029	23277
837.167	23037
837.305	23109
837.443	23140
837.58	23098
837.718	23105
837.856	23010
837.993	23025
838.131	23075
838.269	22942
838.406	22892
838.544	22896
838.681	22729
838.819	22672
838.956	22577
839.094	22565
839.231	22702
839.369	22725
839.506	22961
839.643	22797
839.781	22580
839.918	22443
840.055	22432
840.193	22573
840.33	22580
840.467	22512
840.604	22535
840.742	22653
840.879	22409
841.016	22341
841.153	22424
841.29	22527
841.427	22428
841.564	22508
841.701	22451
841.838	22421
841.975	22333
842.112	22394
842.249	22246
842.385	22211
842.522	22455
842.659	22234
842.796	22162
842.933	22303
843.069	22261
843.206	22185
843.343	22265
843.479	22272
843.616	22242
843.752	22029
843.889	22036
844.025	22128
844.162	22067
844.298	22082
844.435	22021
844.571	21960
844.708	21998
844.844	22147
844.98	22135
845.117	22249
845.253	21876
845.389	21827
845.525	21899
845.661	21747
845.798	21781
845.934	21804
846.07	21701
846.206	21743
846.342	21785
846.478	21701
846.614	21641
846.75	21454
846.886	21530
847.022	21583
847.158	21466
847.294	21580
847.429	21504
847.565	21450
847.701	21663
847.837	21233
847.972	21214
848.108	21389
848.244	21401
848.379	21093
848.515	21028
848.65	21100
848.786	21051
848.921	21017
849.057	21260
849.192	21108
849.328	21116
849.463	21127
849.598	21180
849.734	21036
849.869	20906
850.004	20807
850.14	20800
850.275	20804
850.41	20777
850.545	20834
850.68	20815
850.815	20849
850.95	20838
851.085	21036
851.22	20948
851.355	20781
851.49	20807
851.625	20861
851.76	20792
851.895	20811
852.03	20701
852.165	20842
852.299	20811
852.434	20956
852.569	20857
852.703	20804
852.838	20899
852.973	20944
853.107	20994
853.242	20693
853.376	20781
853.511	20648
853.645	20670
853.78	20632
853.914	20765
854.048	20609
854.183	20575
854.317	20689
854.451	20902
854.585	20674
854.72	20571
854.854	20811
854.988	20583
855.122	20659
855.256	20613
855.39	20670
855.524	20807
855.658	20701
855.792	20743
855.926	20663
856.06	20674
856.194	20743
856.327	20632
856.461	20651
856.595	20606
856.729	20575
856.862	20819
856.996	20746
857.13	20788
857.263	20762
857.397	20743
857.53	20579
857.664	20720
857.797	20788
857.931	20811
858.064	20663
858.197	20705
858.331	20636
858.464	20629
858.597	20571
858.731	20640
858.864	20648
858.997	20651
859.13	20564
859.263	20689
859.396	20712
859.529	20720
859.662	20678
859.795	20655
859.928	20716
860.061	20819
860.194	20868
860.327	20663
860.46	20792
860.592	20743
860.725	20826
860.858	20861
860.99	20746
861.123	20598
861.256	20609
861.388	20644
861.521	21325
861.653	20617
861.786	20454
861.918	20511
862.05	20587
862.183	20606
862.315	20602
862.447	20693
862.58	20587
862.712	20507
862.844	20252
862.976	20560
863.108	20434
863.24	20864
863.372	20339
863.504	20374
863.636	20374
863.768	20476
863.9	20385
864.032	20313
864.164	20450
864.296	20476
864.428	20590
864.559	20400
864.691	20415
864.823	20484
864.954	20263
865.086	20313
865.217	20336
865.349	20172
865.48	20259
865.612	20381
865.743	20434
865.875	20351
866.006	20218
866.137	20263
866.269	20282
866.4	20309
866.531	20381
866.662	20161
866.793	20332
866.924	20164
867.055	20286
867.186	20263
867.317	20206
867.448	20206
867.579	20191
867.71	20248
867.841	20115
867.972	20286
868.103	20214
868.233	20221
868.364	20248
868.495	20233
868.625	20419
868.756	20640
868.886	20381
869.017	20507
869.147	20693
869.278	20693
869.408	20514
869.539	20518
869.669	20564
869.799	20533
869.929	20571
870.06	20541
870.19	20697
870.32	20716
870.45	20739
870.58	20765
870.71	20819
870.84	20998
870.97	20868
871.1	20861
871.23	20925
871.36	21150
871.489	20998
871.619	21077
871.749	21142
871.879	21081
872.008	21104
872.138	21074
872.267	21135
872.397	20944
872.526	20902
872.656	20941
872.785	20876
872.915	21108
873.044	21272
873.173	21104
873.303	21192
873.432	21195
873.561	21294
873.69	21157
873.819	21017
873.948	21256
874.077	21081
874.206	21047
874.335	21218
874.464	21291
874.593	21374
874.722	21306
874.851	21264
874.979	21336
875.108	21291
875.237	21195
875.365	21298
875.494	21294
875.623	21450
875.751	21256
875.88	21348
876.008	21294
876.136	21622
876.265	21682
876.393	21983
876.521	21751
876.65	21819
876.778	21736
876.906	21580
877.034	21724
877.162	21751
877.29	21641
877.418	21724
877.546	21797
877.674	21648
877.802	21656
877.93	21629
878.058	21728
878.185	21530
878.313	21675
878.441	21606
878.568	21553
878.696	21614
878.824	21770
878.951	21819
879.079	21983
879.206	21911
879.333	21827
879.461	21743
879.588	21884
879.715	21857
879.842	21956
879.97	21660
880.097	21542
880.224	21443
880.351	21667
880.478	21580
880.605	21519
880.732	21496
880.859	21800
880.986	21534
881.112	21450
881.239	21382
881.366	21226
881.493	21112
881.619	21093
881.746	20975
881.872	21085
881.999	21173
882.125	21047
882.252	21123
882.378	21161
882.505	21264
882.631	20944
882.757	20910
882.883	20845
883.01	20845
883.136	20754
883.262	20594
883.388	20571
883.514	20826
883.64	20815
883.766	20815
883.892	20587
884.018	20674
884.143	20667
884.269	20872
884.395	20503
884.52	20446
884.646	20541
884.772	20320
884.897	20423
885.023	20454
885.148	20701
885.274	20621
885.399	20507
885.524	20503
885.65	20503
885.775	20415
885.9	20423
886.025	20556
886.15	20583
886.275	20400
886.4	20370
886.525	20484
886.65	20343
886.775	20511
886.9	20648
887.025	20708
887.149	20522
887.274	20218
887.399	20206
887.523	20183
887.648	20145
887.773	20176
887.897	20393
888.021	20355
888.146	20164
888.27	20343
888.395	20301
888.519	20286
888.643	20305
888.767	20355
888.891	20050
889.015	20111
889.139	20172
889.263	20035
889.387	20153
889.511	20305
889.635	20229
889.759	19993
889.883	19970
890.006	20065
890.13	20111
890.254	20016
890.377	20005
890.501	19852
890.624	19811
890.748	19841
890.871	19662
890.995	19571
891.118	19586
891.241	19666
891.364	19693
891.488	19906
891.611	19685
891.734	19647
891.857	19616
891.98	19689
892.103	19818
892.226	19753
892.349	19590
892.471	19521
892.594	19609
892.717	19586
892.839	19609
892.962	19540
893.085	19533
893.207	19605
893.33	19396
893.452	19597
893.575	19502
893.697	19594
893.819	19685
893.941	19712
894.064	19719
894.186	19472
894.308	19483
894.43	19708
894.552	19643
894.674	19525
894.796	19480
894.918	19651
895.04	19552
895.161	19681
895.283	19590
895.405	19441
895.526	19521
895.648	19537
895.769	19529
895.891	19677
896.012	19620
896.134	19693
896.255	19540
896.376	19449
896.498	19632
896.619	19590
896.74	19480
896.861	19647
896.982	19887
897.103	20035
897.224	19803
897.345	19875
897.466	19769
897.587	19814
897.708	19913
897.828	19807
897.949	19765
898.07	19556
898.19	19708
898.311	19830
898.431	19860
898.552	19753
898.672	19868
898.792	19830
898.913	19780
899.033	19666
899.153	19681
899.273	19575
899.393	19514
899.513	19674
899.633	19639
899.753	19571
899.873	19567
899.993	19635
900.113	19480
900.232	19499
900.352	19426
900.472	19320
900.591	19259
900.711	19373
900.83	19240
900.95	19422
901.069	19369
901.189	19228
901.308	18947
901.427	19004
901.546	18867
901.665	19023
901.784	18962
901.904	18779
902.023	18715
902.141	18452
902.26	18467
902.379	18559
902.498	18437
902.617	18414
902.735	18475
902.854	18289
902.973	18266
903.091	18136
903.21	18102
903.328	18110
903.446	18079
903.565	17939
903.683	17992
903.801	17889
903.919	17977
904.038	17805
904.156	17737
904.274	17760
904.392	17691
904.51	17710
904.627	17585
904.745	17821
904.863	17691
904.981	17429
905.098	17296
905.216	17429
905.334	17368
905.451	17436
905.569	17364
905.686	17448
905.803	17425
905.921	17136
906.038	17284
906.155	17273
906.272	17052
906.389	17117
906.506	16965
906.623	16999
906.74	17029
906.857	16816
906.974	16923
907.091	16946
907.208	16972
907.324	17083
907.441	16873
907.557	16649
907.674	16588
907.79	16542
907.907	16653
908.023	16691
908.139	16691
908.256	16618
908.372	16592
908.488	16504
908.604	16474
908.72	16375
908.836	16485
908.952	16226
909.068	16348
909.184	16508
909.3	16371
909.415	16341
909.531	16356
909.647	16143
909.762	16063
909.878	16090
909.993	16169
910.108	16059
910.224	16051
910.339	16082
910.454	15835
910.57	15892
910.685	15831
910.8	16150
910.915	16093
911.03	15907
911.145	15739
911.259	15709
911.374	15705
911.489	15599
911.604	15580
911.718	15538
911.833	15447
911.947	15332
912.062	15321
912.176	15412
912.291	15393
912.405	15393
912.519	15610
912.633	15557
912.748	15469
912.862	15272
912.976	15264
913.09	15036
913.204	15237
913.318	15237
913.431	15294
913.545	15332
913.659	15321
913.772	15268
913.886	15097
914	14956
914.113	15119
914.226	15135
914.34	15157
914.453	14956
914.566	15005
914.68	14952
914.793	14834
914.906	14769
915.019	14648
915.132	14697
915.245	14693
915.358	14670
915.47	14758
915.583	14689
915.696	14644
915.809	14796
915.921	14842
916.034	14625
916.146	14636
916.259	14587
916.371	14663
916.483	14655
916.595	14518
916.708	14545
916.82	14571
916.932	14514
917.044	14427
917.156	14419
917.268	14286
917.38	14393
917.491	14370
917.603	14385
917.715	14415
917.826	14339
917.938	14332
918.049	14225
918.161	14248
918.272	14431
918.384	14412
918.495	14301
918.606	14172
918.717	14180
918.828	14172
918.939	14218
919.05	14058
919.161	14096
919.272	13925
919.383	13982
919.494	14195
919.604	14305
919.715	14168
919.826	13982
919.936	14092
920.047	14202
920.157	14111
920.267	14309
920.378	14180
920.488	13997
920.598	14183
920.708	14309
920.818	14202
920.928	14202
921.038	14332
921.148	14347
921.258	14100
921.368	13978
921.477	13879
921.587	13807
921.697	13776
921.806	13727
921.916	13666
922.025	13540
922.134	13472
922.244	13407
922.353	13472
922.462	13384
922.571	13324
922.68	13179
922.789	13103
922.898	13133
923.007	13103
923.116	13050
923.224	13152
923.333	13099
923.442	13031
923.55	12951
923.659	12973
923.767	13076
923.876	12897
923.984	12970
924.092	12848
924.201	12856
924.309	12966
924.417	12871
924.525	12791
924.633	12810
924.741	13750
924.849	12673
924.956	12703
925.064	12642
925.172	12547
925.279	12578
925.387	12608
925.494	12616
925.602	12700
925.709	12604
925.816	12479
925.924	12506
926.031	12566
926.138	12604
926.245	12601
926.352	12445
926.459	12559
926.566	12612
926.673	12498
926.779	12304
926.886	12273
926.993	12273
927.099	12194
927.206	12140
927.312	12091
927.419	12133
927.525	12175
927.631	12167
927.737	12076
927.843	11969
927.95	11935
928.056	12007
928.162	11958
928.267	12068
928.373	12635
928.479	12064
928.585	11817
928.69	11965
928.796	12026
928.901	11802
929.007	11779
929.112	11779
929.218	11779
929.323	11707
929.428	11748
929.533	11870
929.638	11630
929.743	11710
929.848	11653
929.953	11691
930.058	11619
930.163	11455
930.267	11433
930.372	11490
930.477	11376
930.581	11573
930.685	11387
930.79	11292
930.894	11337
930.998	11296
931.103	11356
931.207	11056
931.311	11022
931.415	10877
931.519	10653
931.623	10691
