Data from test_V78500241_3366.txt Node
Date: Fri Mar 25 15:33:18 CST 2022
User: usil
Spectrometer: V785-0024
Trigger mode: 0
Integration Time (sec): 4.000000E-1
Scans to average: 1
Nonlinearity correction enabled: false
Boxcar width: 0
Storing dark spectrum: false
XAxis mode: Wavelengths
Number of Pixels in Spectrum: 1024
>>>>>Begin Spectral Data<<<<<
801.071	27096
801.214	27214
801.356	26834
801.499	26800
801.641	26724
801.783	26568
801.926	26625
802.068	26663
802.211	26461
802.353	26507
802.496	26423
802.638	26248
802.78	26267
802.923	26267
803.065	26187
803.208	26294
803.35	26073
803.492	26286
803.635	26495
803.777	26366
803.919	26412
804.061	26921
804.204	26648
804.346	26434
804.488	26453
804.63	26336
804.773	26317
804.915	26526
805.057	26648
805.199	26404
805.341	26442
805.483	26621
805.626	26480
805.768	26423
805.91	26594
806.052	26571
806.194	26514
806.336	26705
806.478	26552
806.62	26442
806.762	26693
806.904	26720
807.046	27001
807.188	26880
807.33	27028
807.472	27013
807.614	26895
807.756	26899
807.898	26845
808.04	26678
808.182	26743
808.324	26868
808.465	26815
808.607	27058
808.749	27036
808.891	27283
809.033	27287
809.174	27112
809.316	27222
809.458	27028
809.6	27119
809.741	27245
809.883	27279
810.025	27523
810.166	27374
810.308	27374
810.45	27313
810.591	27283
810.733	27161
810.875	27233
811.016	27036
811.158	27077
811.299	27188
811.441	27241
811.582	27275
811.724	27123
811.865	27093
812.007	27074
812.148	27043
812.29	27123
812.431	27180
812.573	27382
812.714	27515
812.855	27606
812.997	27705
813.138	27736
813.279	27755
813.421	27709
813.562	27530
813.703	27439
813.845	27264
813.986	27070
814.127	26868
814.268	26765
814.41	26674
814.551	26727
814.692	26914
814.833	26602
814.974	26560
815.115	26792
815.256	26689
815.397	26564
815.539	26689
815.68	26522
815.821	26442
815.962	26629
816.103	26442
816.244	26396
816.385	26278
816.526	26381
816.666	26100
816.807	25932
816.948	26069
817.089	26001
817.23	26035
817.371	26016
817.512	26043
817.653	25947
817.793	26001
817.934	26081
818.075	26100
818.216	25936
818.356	25997
818.497	25898
818.638	25814
818.778	25818
818.919	25765
819.06	25769
819.2	25875
819.341	25989
819.481	25982
819.622	26122
819.762	26328
819.903	26233
820.043	26111
820.184	26008
820.324	26278
820.465	26214
820.605	26058
820.746	26111
820.886	26016
821.026	26153
821.167	26111
821.307	26119
821.447	25966
821.588	25936
821.728	25925
821.868	25628
822.008	25537
822.149	25609
822.289	25499
822.429	25164
822.569	25198
822.709	25251
822.849	24992
822.99	24954
823.13	24928
823.27	24829
823.41	24741
823.55	24802
823.69	24913
823.83	24722
823.97	24711
824.11	24631
824.25	24684
824.389	24601
824.529	24642
824.669	24547
824.809	24707
824.949	24734
825.089	24620
825.228	24661
825.368	24456
825.508	24376
825.648	24490
825.787	24528
825.927	24566
826.067	24448
826.206	24445
826.346	24661
826.485	24566
826.625	24566
826.765	24494
826.904	24608
827.044	24251
827.183	24262
827.323	24167
827.462	24277
827.601	24174
827.741	24148
827.88	24357
828.02	24083
828.159	24098
828.298	24220
828.437	24254
828.577	24182
828.716	24281
828.855	24083
828.994	23923
829.134	23992
829.273	23965
829.412	23836
829.551	23847
829.69	23935
829.829	23878
829.968	24038
830.107	23836
830.246	23920
830.385	23840
830.524	23958
830.663	23813
830.802	23805
830.941	23539
831.08	23539
831.219	23649
831.357	23539
831.496	23790
831.635	23570
831.774	23509
831.913	23322
832.051	23322
832.19	23242
832.329	23330
832.467	23379
832.606	23086
832.744	23170
832.883	23292
833.022	23303
833.16	23162
833.299	23265
833.437	23261
833.576	23250
833.714	23307
833.852	23311
833.991	23364
834.129	23490
834.267	23356
834.406	23223
834.544	23383
834.682	23379
834.821	23391
834.959	23429
835.097	23265
835.235	23417
835.373	23269
835.511	23337
835.65	23174
835.788	23242
835.926	22942
836.064	22934
836.202	23044
836.34	23208
836.478	23181
836.615	23239
836.753	23128
836.891	23212
837.029	23143
837.167	23075
837.305	22965
837.443	22896
837.58	22965
837.718	22999
837.856	23064
837.993	23006
838.131	22995
838.269	22847
838.406	22892
838.544	22793
838.681	22653
838.819	22664
838.956	22478
839.094	22451
839.231	22440
839.369	22736
839.506	22911
839.643	22561
839.781	22500
839.918	22375
840.055	22462
840.193	22466
840.33	22409
840.467	22413
840.604	22356
840.742	22550
840.879	22333
841.016	22238
841.153	22421
841.29	22603
841.427	22382
841.564	22519
841.701	22379
841.838	22360
841.975	22276
842.112	22291
842.249	22299
842.385	22147
842.522	22466
842.659	22272
842.796	22166
842.933	22284
843.069	22242
843.206	22185
843.343	22234
843.479	22196
843.616	22112
843.752	21918
843.889	22013
844.025	22055
844.162	22006
844.298	22029
844.435	21903
844.571	21911
844.708	21964
844.844	22116
844.98	22070
845.117	21991
845.253	21934
845.389	21800
845.525	21869
845.661	21770
845.798	21728
845.934	21812
846.07	21663
846.206	21728
846.342	21892
846.478	21720
846.614	21382
846.75	21428
846.886	21344
847.022	21435
847.158	21530
847.294	21511
847.429	21523
847.565	21405
847.701	21675
847.837	21222
847.972	21127
848.108	21211
848.244	21184
848.379	21032
848.515	20994
848.65	21036
848.786	21138
848.921	21055
849.057	21135
849.192	21051
849.328	21165
849.463	21104
849.598	20963
849.734	20872
849.869	20948
850.004	20792
850.14	20765
850.275	20807
850.41	20739
850.545	20705
850.68	20716
850.815	20758
850.95	20838
851.085	21024
851.22	20952
851.355	20765
851.49	20811
851.625	20746
851.76	20701
851.895	20606
852.03	20807
852.165	20815
852.299	20845
852.434	20887
852.569	20826
852.703	20689
852.838	20845
852.973	20975
853.107	20883
853.242	20720
853.376	20625
853.511	20484
853.645	20583
853.78	20693
853.914	20644
854.048	20476
854.183	20648
854.317	20697
854.451	20861
854.585	20701
854.72	20640
854.854	20826
854.988	20541
855.122	20629
855.256	20495
855.39	20590
855.524	20773
855.658	20655
855.792	20625
855.926	20590
856.06	20602
856.194	20670
856.327	20545
856.461	20640
856.595	20530
856.729	20598
856.862	20773
856.996	20708
857.13	20667
857.263	20724
857.397	20716
857.53	20609
857.664	20701
857.797	20583
857.931	20689
858.064	20602
858.197	20716
858.331	20545
858.464	20587
858.597	20541
858.731	20545
858.864	20606
858.997	20564
859.13	20579
859.263	20579
859.396	20724
859.529	20590
859.662	20587
859.795	20575
859.928	20556
860.061	20792
860.194	20891
860.327	20651
860.46	20552
860.592	20689
860.725	20743
860.858	20826
860.99	20693
861.123	20503
861.256	20583
861.388	20587
861.521	21363
861.653	20518
861.786	20366
861.918	20351
862.05	20571
862.183	20598
862.315	20526
862.447	20476
862.58	20667
862.712	20358
862.844	20256
862.976	20412
863.108	20423
863.24	20762
863.372	20248
863.504	20370
863.636	20423
863.768	20366
863.9	20400
864.032	20320
864.164	20347
864.296	20366
864.428	20488
864.559	20423
864.691	20434
864.823	20290
864.954	20320
865.086	20347
865.217	20267
865.349	20172
865.48	20256
865.612	20206
865.743	20374
865.875	20214
866.006	20214
866.137	20240
866.269	20267
866.4	20305
866.531	20020
866.662	20191
866.793	20122
866.924	20138
867.055	20199
867.186	20218
867.317	20084
867.448	19982
867.579	20180
867.71	20115
867.841	19917
867.972	20130
868.103	20153
868.233	20187
868.364	20172
868.495	20225
868.625	20438
868.756	20560
868.886	20263
869.017	20358
869.147	20461
869.278	20511
869.408	20423
869.539	20419
869.669	20461
869.799	20473
869.929	20442
870.06	20541
870.19	20796
870.32	20644
870.45	20769
870.58	20849
870.71	20979
870.84	20891
870.97	20781
871.1	20727
871.23	21055
871.36	21020
871.489	20910
871.619	20971
871.749	20956
871.879	20994
872.008	21169
872.138	21070
872.267	21032
872.397	20845
872.526	20967
872.656	20823
872.785	20823
872.915	21058
873.044	21165
873.173	21131
873.303	21100
873.432	21135
873.561	21226
873.69	21077
873.819	21096
873.948	21222
874.077	21085
874.206	20982
874.335	20994
874.464	21176
874.593	21298
874.722	21173
874.851	21252
874.979	21291
875.108	21272
875.237	21192
875.365	21249
875.494	21203
875.623	21367
875.751	21268
875.88	21310
876.008	21378
876.136	21458
876.265	21728
876.393	21857
876.521	21804
876.65	21751
876.778	21770
876.906	21599
877.034	21580
877.162	21633
877.29	21656
877.418	21496
877.546	21713
877.674	21686
877.802	21618
877.93	21709
878.058	21591
878.185	21591
878.313	21663
878.441	21591
878.568	21443
878.696	21580
878.824	21804
878.951	21747
879.079	21774
879.206	21869
879.333	21918
879.461	21709
879.588	21812
879.715	21857
879.842	21785
879.97	21675
880.097	21485
880.224	21561
880.351	21477
880.478	21523
880.605	21443
880.732	21454
880.859	21698
880.986	21443
881.112	21443
881.239	21412
881.366	21237
881.493	21207
881.619	20967
881.746	21070
881.872	21047
881.999	20880
882.125	20906
882.252	21127
882.378	20998
882.505	21138
882.631	20857
882.757	20762
882.883	20872
883.01	20621
883.136	20682
883.262	20613
883.388	20693
883.514	20678
883.64	20781
883.766	20686
883.892	20408
884.018	20640
884.143	20678
884.269	20777
884.395	20495
884.52	20473
884.646	20457
884.772	20320
884.897	20381
885.023	20419
885.148	20609
885.274	20587
885.399	20431
885.524	20484
885.65	20412
885.775	20358
885.9	20328
886.025	20526
886.15	20400
886.275	20275
886.4	20343
886.525	20465
886.65	20419
886.775	20263
886.9	20351
887.025	20549
887.149	20419
887.274	20176
887.399	20237
887.523	20130
887.648	20035
887.773	20122
887.897	20256
888.021	20206
888.146	20134
888.27	20252
888.395	20301
888.519	20317
888.643	20172
888.767	20240
888.891	20084
889.015	20005
889.139	20103
889.263	19967
889.387	20077
889.511	20263
889.635	20027
889.759	19963
889.883	19868
890.006	20027
890.13	20016
890.254	19913
890.377	19807
890.501	19833
890.624	19685
890.748	19772
890.871	19696
890.995	19620
891.118	19529
891.241	19609
891.364	19605
891.488	19753
891.611	19487
891.734	19559
891.857	19620
891.98	19563
892.103	19696
892.226	19495
892.349	19533
892.471	19327
892.594	19499
892.717	19491
892.839	19540
892.962	19499
893.085	19666
893.207	19468
893.33	19350
893.452	19377
893.575	19525
893.697	19552
893.819	19727
893.941	19643
894.064	19651
894.186	19430
894.308	19464
894.43	19590
894.552	19521
894.674	19601
894.796	19449
894.918	19449
895.04	19460
895.161	19518
895.283	19506
895.405	19411
895.526	19518
895.648	19468
895.769	19525
895.891	19480
896.012	19537
896.134	19499
896.255	19453
896.376	19415
896.498	19460
896.619	19426
896.74	19491
896.861	19540
896.982	19788
897.103	20058
897.224	19613
897.345	19731
897.466	19616
897.587	19757
897.708	19841
897.828	19708
897.949	19670
898.07	19559
898.19	19613
898.311	19746
898.431	19655
898.552	19681
898.672	19761
898.792	19818
898.913	19791
899.033	19693
899.153	19632
899.273	19575
899.393	19586
899.513	19590
899.633	19559
899.753	19594
899.873	19472
899.993	19487
900.113	19476
900.232	19468
900.352	19476
900.472	19392
900.591	19259
900.711	19388
900.83	19198
900.95	19388
901.069	19266
901.189	19183
901.308	18890
901.427	18791
901.546	18916
901.665	18875
901.784	18795
901.904	18673
902.023	18513
902.141	18506
902.26	18456
902.379	18452
902.498	18319
902.617	18327
902.735	18353
902.854	18334
902.973	18346
903.091	18068
903.21	18095
903.328	18197
903.446	17992
903.565	17866
903.683	17946
903.801	17756
903.919	17870
904.038	17649
904.156	17596
904.274	17699
904.392	17577
904.51	17760
904.627	17653
904.745	17665
904.863	17729
904.981	17497
905.098	17303
905.216	17269
905.334	17353
905.451	17318
905.569	17318
905.686	17368
905.803	17402
905.921	17014
906.038	17220
906.155	17128
906.272	16957
906.389	17006
906.506	16927
906.623	16961
906.74	16847
906.857	16805
906.974	16816
907.091	16923
907.208	17041
907.324	16972
907.441	16717
907.557	16584
907.674	16664
907.79	16451
907.907	16596
908.023	16649
908.139	16626
908.256	16523
908.372	16459
908.488	16440
908.604	16242
908.72	16356
908.836	16402
908.952	16276
909.068	16303
909.184	16371
909.3	16352
909.415	16325
909.531	16295
909.647	16147
909.762	16051
909.878	15892
909.993	15964
910.108	16040
910.224	15941
910.339	16048
910.454	15823
910.57	15960
910.685	15778
910.8	16021
910.915	16059
911.03	15857
911.145	15686
911.259	15648
911.374	15629
911.489	15557
911.604	15424
911.718	15374
911.833	15336
911.947	15199
912.062	15211
912.176	15382
912.291	15424
912.405	15355
912.519	15515
912.633	15584
912.748	15382
912.862	15306
912.976	15211
913.09	15093
913.204	15146
913.318	15173
913.431	15249
913.545	15211
913.659	15199
913.772	15146
913.886	15039
914	14941
914.113	15108
914.226	15097
914.34	15066
914.453	14883
914.566	14963
914.68	14948
914.793	14796
914.906	14674
915.019	14568
915.132	14606
915.245	14564
915.358	14629
915.47	14598
915.583	14621
915.696	14629
915.809	14712
915.921	14785
916.034	14461
916.146	14514
916.259	14507
916.371	14682
916.483	14590
916.595	14499
916.708	14461
916.82	14499
916.932	14446
917.044	14514
917.156	14473
917.268	14282
917.38	14332
917.491	14286
917.603	14313
917.715	14332
917.826	14396
917.938	14267
918.049	14115
918.161	14305
918.272	14301
918.384	14374
918.495	14259
918.606	14084
918.717	14001
918.828	14210
918.939	14153
919.05	13944
919.161	14024
919.272	13837
919.383	13826
919.494	14050
919.604	14271
919.715	14020
919.826	14012
919.936	13928
920.047	14134
920.157	14005
920.267	14218
920.378	14020
920.488	14024
920.598	14237
920.708	14294
920.818	14145
920.928	14103
921.038	14377
921.148	14309
921.258	14024
921.368	13890
921.477	13788
921.587	13696
921.697	13639
921.806	13677
921.916	13590
922.025	13468
922.134	13419
922.244	13422
922.353	13544
922.462	13304
922.571	13289
922.68	13050
922.789	13160
922.898	13118
923.007	13156
923.116	13149
923.224	13019
923.333	13110
923.442	12928
923.55	12909
923.659	12905
923.767	12958
923.876	12905
923.984	12981
924.092	12829
924.201	12928
924.309	12863
924.417	12753
924.525	12753
924.633	12719
924.741	13689
924.849	12574
924.956	12722
925.064	12563
925.172	12479
925.279	12521
925.387	12555
925.494	12456
925.602	12612
925.709	12574
925.816	12467
925.924	12460
926.031	12498
926.138	12540
926.245	12502
926.352	12445
926.459	12486
926.566	12547
926.673	12426
926.779	12243
926.886	12296
926.993	12133
927.099	12095
927.206	12091
927.312	12106
927.419	12133
927.525	12133
927.631	12110
927.737	12053
927.843	11904
927.95	11908
928.056	11885
928.162	11935
928.267	12053
928.373	12506
928.479	12079
928.585	11771
928.69	11946
928.796	11882
928.901	11843
929.007	11619
929.112	11870
929.218	11783
929.323	11649
929.428	11630
929.533	11855
929.638	11585
929.743	11627
929.848	11646
929.953	11554
930.058	11516
930.163	11414
930.267	11356
930.372	11509
930.477	11280
930.581	11615
930.685	11463
930.79	11246
930.894	11273
930.998	11284
931.103	11406
931.207	10999
931.311	10908
931.415	10889
931.519	10679
931.623	10672
