Data from test_V78500241_970.txt Node
Date: Fri Mar 25 15:16:36 CST 2022
User: usil
Spectrometer: V785-0024
Trigger mode: 0
Integration Time (sec): 4.000000E-1
Scans to average: 1
Nonlinearity correction enabled: false
Boxcar width: 0
Storing dark spectrum: false
XAxis mode: Wavelengths
Number of Pixels in Spectrum: 1024
>>>>>Begin Spectral Data<<<<<
801.071	28124
801.214	28036
801.356	27785
801.499	27854
801.641	27751
801.783	27713
801.926	27675
802.068	27766
802.211	27587
802.353	27473
802.496	27393
802.638	27321
802.78	27336
802.923	27237
803.065	27321
803.208	27344
803.35	27310
803.492	27393
803.635	27492
803.777	27408
803.919	27652
804.061	27903
804.204	27622
804.346	27591
804.488	27530
804.63	27625
804.773	27454
804.915	27530
805.057	27652
805.199	27557
805.341	27679
805.483	27766
805.626	27610
805.768	27519
805.91	27698
806.052	27568
806.194	27580
806.336	27926
806.478	27701
806.62	27755
806.762	27819
806.904	27987
807.046	28207
807.188	28128
807.33	28128
807.472	28143
807.614	28044
807.756	28032
807.898	27998
808.04	27960
808.182	27850
808.324	27994
808.465	28101
808.607	28223
808.749	28261
808.891	28379
809.033	28447
809.174	28352
809.316	28451
809.458	28363
809.6	28333
809.741	28432
809.883	28500
810.025	28561
810.166	28752
810.308	28565
810.45	28569
810.591	28580
810.733	28436
810.875	28310
811.016	28306
811.158	28226
811.299	28489
811.441	28569
811.582	28371
811.724	28401
811.865	28421
812.007	28352
812.148	28295
812.29	28451
812.431	28599
812.573	28820
812.714	28630
812.855	29018
812.997	29052
813.138	29216
813.279	29052
813.421	28965
813.562	28927
813.703	28790
813.845	28645
813.986	28390
814.127	28242
814.268	28067
814.41	28070
814.551	28021
814.692	28143
814.833	27945
814.974	28135
815.115	28074
815.256	27918
815.397	27949
815.539	27880
815.68	27831
815.821	27751
815.962	27785
816.103	27865
816.244	27861
816.385	27660
816.526	27705
816.666	27557
816.807	27466
816.948	27378
817.089	27447
817.23	27454
817.371	27485
817.512	27321
817.653	27405
817.793	27389
817.934	27370
818.075	27351
818.216	27462
818.356	27359
818.497	27329
818.638	27001
818.778	27260
818.919	27222
819.06	27119
819.2	27283
819.341	27447
819.481	27431
819.622	27473
819.762	27770
819.903	27633
820.043	27564
820.184	27538
820.324	27462
820.465	27576
820.605	27595
820.746	27530
820.886	27405
821.026	27427
821.167	27553
821.307	27447
821.447	27260
821.588	27302
821.728	27199
821.868	27036
822.008	26845
822.149	26872
822.289	26765
822.429	26526
822.569	26541
822.709	26511
822.849	26480
822.99	26362
823.13	26381
823.27	26324
823.41	26275
823.55	26073
823.69	26221
823.83	26210
823.97	26244
824.11	26031
824.25	26020
824.389	26054
824.529	26134
824.669	26046
824.809	26202
824.949	26039
825.089	26107
825.228	26054
825.368	25970
825.508	25849
825.648	25902
825.787	25837
825.927	26043
826.067	25826
826.206	25757
826.346	25986
826.485	25830
826.625	25875
826.765	25955
826.904	25959
827.044	25685
827.183	25635
827.323	25582
827.462	25578
827.601	25746
827.741	25571
827.88	25799
828.02	25601
828.159	25643
828.298	25529
828.437	25666
828.577	25518
828.716	25613
828.855	25639
828.994	25350
829.134	25346
829.273	25419
829.412	25369
829.551	25255
829.69	25365
829.829	25297
829.968	25434
830.107	25320
830.246	25468
830.385	25308
830.524	25148
830.663	25171
830.802	25061
830.941	24913
831.08	24863
831.219	25042
831.357	25129
831.496	25095
831.635	24905
831.774	24894
831.913	24924
832.051	24681
832.19	24722
832.329	24703
832.467	24658
832.606	24730
832.744	24521
832.883	24532
833.022	24525
833.16	24635
833.299	24646
833.437	24479
833.576	24692
833.714	24661
833.852	24764
833.991	24665
834.129	24650
834.267	24772
834.406	24528
834.544	24661
834.682	24772
834.821	24787
834.959	24840
835.097	24650
835.235	24715
835.373	24639
835.511	24711
835.65	24418
835.788	24570
835.926	24372
836.064	24308
836.202	24380
836.34	24486
836.478	24722
836.615	24464
836.753	24540
836.891	24650
837.029	24551
837.167	24467
837.305	24475
837.443	24251
837.58	24311
837.718	24391
837.856	24418
837.993	24209
838.131	24338
838.269	24216
838.406	24304
838.544	24133
838.681	24018
838.819	23950
838.956	23783
839.094	23878
839.231	24015
839.369	24034
839.506	24262
839.643	24049
839.781	23832
839.918	23703
840.055	23863
840.193	23923
840.33	23775
840.467	23790
840.604	23859
840.742	23954
840.879	23585
841.016	23687
841.153	23627
841.29	23885
841.427	23722
841.564	23840
841.701	23684
841.838	23630
841.975	23657
842.112	23668
842.249	23566
842.385	23414
842.522	23771
842.659	23547
842.796	23436
842.933	23512
843.069	23452
843.206	23448
843.343	23566
843.479	23596
843.616	23414
843.752	23349
843.889	23337
844.025	23520
844.162	23417
844.298	23448
844.435	23208
844.571	23254
844.708	23254
844.844	23364
844.98	23379
845.117	23307
845.253	23235
845.389	23223
845.525	23159
845.661	23200
845.798	22987
845.934	23064
846.07	22968
846.206	22999
846.342	23098
846.478	23044
846.614	22729
846.75	22641
846.886	22748
847.022	22797
847.158	22771
847.294	22717
847.429	22744
847.565	22630
847.701	22938
847.837	22485
847.972	22421
848.108	22592
848.244	22508
848.379	22379
848.515	22432
848.65	22322
848.786	22310
848.921	22386
849.057	22375
849.192	22356
849.328	22329
849.463	22405
849.598	22394
849.734	22280
849.869	22093
850.004	22120
850.14	22147
850.275	22120
850.41	22002
850.545	22074
850.68	22097
850.815	22048
850.95	21956
851.085	22284
851.22	22219
851.355	22143
851.49	22101
851.625	22044
851.76	21998
851.895	22090
852.03	22078
852.165	22109
852.299	22314
852.434	22169
852.569	22124
852.703	22055
852.838	22169
852.973	22276
853.107	22207
853.242	21994
853.376	21991
853.511	21899
853.645	21915
853.78	22109
853.914	21949
854.048	21876
854.183	21857
854.317	22010
854.451	22135
854.585	21884
854.72	21850
854.854	22051
854.988	21880
855.122	21937
855.256	21751
855.39	21911
855.524	22002
855.658	21972
855.792	21983
855.926	21857
856.06	21975
856.194	22025
856.327	21842
856.461	21804
856.595	21857
856.729	21876
856.862	22093
856.996	21888
857.13	22044
857.263	21949
857.397	21945
857.53	21907
857.664	21956
857.797	21930
857.931	22116
858.064	21778
858.197	22109
858.331	21953
858.464	21743
858.597	21694
858.731	21842
858.864	21808
858.997	21895
859.13	21930
859.263	21865
859.396	21964
859.529	21915
859.662	21869
859.795	21812
859.928	21854
860.061	22044
860.194	22143
860.327	22021
860.46	21850
860.592	22082
860.725	22090
860.858	22185
860.99	21888
861.123	21770
861.256	21850
861.388	21793
861.521	22527
861.653	21789
861.786	21743
861.918	21743
862.05	21819
862.183	21793
862.315	21770
862.447	21850
862.58	21903
862.712	21637
862.844	21686
862.976	21614
863.108	21679
863.24	22021
863.372	21603
863.504	21507
863.636	21595
863.768	21652
863.9	21610
864.032	21492
864.164	21622
864.296	21534
864.428	21660
864.559	21679
864.691	21835
864.823	21606
864.954	21599
865.086	21625
865.217	21526
865.349	21454
865.48	21469
865.612	21557
865.743	21724
865.875	21606
866.006	21389
866.137	21477
866.269	21447
866.4	21408
866.531	21389
866.662	21428
866.793	21542
866.924	21488
867.055	21405
867.186	21545
867.317	21344
867.448	21336
867.579	21469
867.71	21469
867.841	21435
867.972	21496
868.103	21447
868.233	21344
868.364	21344
868.495	21424
868.625	21622
868.756	21755
868.886	21694
869.017	21648
869.147	21701
869.278	21846
869.408	21591
869.539	21587
869.669	21698
869.799	21781
869.929	21736
870.06	21762
870.19	22051
870.32	22032
870.45	21918
870.58	21998
870.71	22025
870.84	22196
870.97	22082
871.1	22143
871.23	22097
871.36	22246
871.489	22112
871.619	22192
871.749	22207
871.879	22314
872.008	22390
872.138	22291
872.267	22284
872.397	22086
872.526	21998
872.656	22135
872.785	22006
872.915	22337
873.044	22432
873.173	22284
873.303	22440
873.432	22295
873.561	22363
873.69	22261
873.819	22329
873.948	22379
874.077	22109
874.206	22192
874.335	22322
874.464	22314
874.593	22512
874.722	22504
874.851	22565
874.979	22565
875.108	22516
875.237	22455
875.365	22451
875.494	22428
875.623	22618
875.751	22405
875.88	22451
876.008	22656
876.136	22740
876.265	22812
876.393	23037
876.521	22911
876.65	22946
876.778	22991
876.906	22866
877.034	22759
877.162	22812
877.29	22820
877.418	22885
877.546	22767
877.674	22835
877.802	22797
877.93	22881
878.058	22805
878.185	22698
878.313	22820
878.441	22721
878.568	22580
878.696	22725
878.824	22889
878.951	22801
879.079	22968
879.206	23124
879.333	22858
879.461	22820
879.588	22946
879.715	23086
879.842	23060
879.97	22812
880.097	22744
880.224	22664
880.351	22656
880.478	22691
880.605	22694
880.732	22668
880.859	22843
880.986	22588
881.112	22771
881.239	22550
881.366	22405
881.493	22363
881.619	22284
881.746	22257
881.872	22196
881.999	22120
882.125	22090
882.252	22249
882.378	22268
882.505	22310
882.631	22059
882.757	21937
882.883	21895
883.01	21876
883.136	21766
883.262	21831
883.388	21652
883.514	21888
883.64	22025
883.766	21819
883.892	21743
884.018	21736
884.143	21846
884.269	21884
884.395	21690
884.52	21526
884.646	21553
884.772	21431
884.897	21428
885.023	21549
885.148	21610
885.274	21713
885.399	21698
885.524	21469
885.65	21603
885.775	21583
885.9	21538
886.025	21625
886.15	21519
886.275	21454
886.4	21462
886.525	21564
886.65	21287
886.775	21351
886.9	21667
887.025	21854
887.149	21496
887.274	21416
887.399	21233
887.523	21466
887.648	21306
887.773	21237
887.897	21367
888.021	21367
888.146	21192
888.27	21313
888.395	21424
888.519	21302
888.643	21363
888.767	21370
888.891	21161
889.015	21043
889.139	21211
889.263	21024
889.387	21233
889.511	21367
889.635	21226
889.759	21047
889.883	21127
890.006	21081
890.13	21184
890.254	21081
890.377	21001
890.501	20861
890.624	20838
890.748	20872
890.871	20739
890.995	20735
891.118	20533
891.241	20682
891.364	20781
891.488	20826
891.611	20655
891.734	20651
891.857	20876
891.98	20609
892.103	20720
892.226	20670
892.349	20598
892.471	20476
892.594	20648
892.717	20587
892.839	20579
892.962	20473
893.085	20659
893.207	20564
893.33	20374
893.452	20579
893.575	20552
893.697	20499
893.819	20781
893.941	20724
894.064	20575
894.186	20492
894.308	20507
894.43	20549
894.552	20769
894.674	20625
894.796	20404
894.918	20571
895.04	20499
895.161	20640
895.283	20640
895.405	20537
895.526	20488
895.648	20579
895.769	20473
895.891	20419
896.012	20659
896.134	20644
896.255	20499
896.376	20514
896.498	20533
896.619	20613
896.74	20556
896.861	20568
896.982	20830
897.103	20899
897.224	20765
897.345	20617
897.466	20670
897.587	20739
897.708	20876
897.828	20830
897.949	20750
898.07	20575
898.19	20682
898.311	20937
898.431	20686
898.552	20796
898.672	20796
898.792	20785
898.913	20906
899.033	20621
899.153	20526
899.273	20484
899.393	20473
899.513	20495
899.633	20408
899.753	20579
899.873	20412
899.993	20507
900.113	20492
900.232	20495
900.352	20438
900.472	20259
900.591	20301
900.711	20313
900.83	20237
900.95	20347
901.069	20263
901.189	20202
901.308	19894
901.427	19833
901.546	19883
901.665	19864
901.784	19776
901.904	19708
902.023	19628
902.141	19499
902.26	19419
902.379	19419
902.498	19320
902.617	19388
902.735	19392
902.854	19255
902.973	19293
903.091	18985
903.21	19072
903.328	18993
903.446	18840
903.565	19023
903.683	18772
903.801	18730
903.919	18760
904.038	18601
904.156	18574
904.274	18741
904.392	18658
904.51	18563
904.627	18536
904.745	18547
904.863	18677
904.981	18448
905.098	18281
905.216	18292
905.334	18155
905.451	18399
905.569	18205
905.686	18277
905.803	18292
905.921	18136
906.038	18136
906.155	18114
906.272	17904
906.389	17965
906.506	17783
906.623	17794
906.74	17809
906.857	17665
906.974	17726
907.091	17828
907.208	17874
907.324	17882
907.441	17684
907.557	17471
907.674	17425
907.79	17417
907.907	17486
908.023	17528
908.139	17482
908.256	17467
908.372	17482
908.488	17341
908.604	17292
908.72	17185
908.836	17102
908.952	17208
909.068	17341
909.184	17307
909.3	17277
909.415	17307
909.531	17170
909.647	17029
909.762	16843
909.878	16896
909.993	16900
910.108	16816
910.224	16866
910.339	16911
910.454	16782
910.57	16850
910.685	16664
910.8	16850
910.915	16801
911.03	16752
911.145	16580
911.259	16584
911.374	16451
911.489	16531
911.604	16375
911.718	16177
911.833	16226
911.947	16131
912.062	16093
912.176	16268
912.291	16257
912.405	16265
912.519	16394
912.633	16451
912.748	16196
912.862	16226
912.976	15994
913.09	15861
913.204	16021
913.318	16086
913.431	16215
913.545	16090
913.659	16276
913.772	16010
913.886	15854
914	15873
914.113	15972
914.226	15911
914.34	15994
914.453	15701
914.566	15892
914.68	15808
914.793	15717
914.906	15572
915.019	15466
915.132	15397
915.245	15447
915.358	15458
915.47	15439
915.583	15397
915.696	15610
915.809	15545
915.921	15652
916.034	15332
916.146	15382
916.259	15272
916.371	15496
916.483	15359
916.595	15321
916.708	15275
916.82	15203
916.932	15272
917.044	15207
917.156	15199
917.268	15032
917.38	15161
917.491	15081
917.603	15150
917.715	15173
917.826	15165
917.938	14960
918.049	14982
918.161	15081
918.272	15180
918.384	15173
918.495	15062
918.606	14944
918.717	14769
918.828	14925
918.939	14914
919.05	14746
919.161	14762
919.272	14579
919.383	14594
919.494	14804
919.604	14986
919.715	14857
919.826	14735
919.936	14785
920.047	14785
920.157	14758
920.267	14918
920.378	14933
920.488	14769
920.598	14925
920.708	14975
920.818	14853
920.928	14956
921.038	15009
921.148	15032
921.258	14788
921.368	14693
921.477	14564
921.587	14556
921.697	14469
921.806	14492
921.916	14412
922.025	14225
922.134	14134
922.244	14046
922.353	14138
922.462	13936
922.571	13967
922.68	13902
922.789	13909
922.898	13784
923.007	13670
923.116	13788
923.224	13849
923.333	13719
923.442	13651
923.55	13567
923.659	13601
923.767	13632
923.876	13537
923.984	13708
924.092	13559
924.201	13666
924.309	13594
924.417	13438
924.525	13483
924.633	13495
924.741	14301
924.849	13274
924.956	13457
925.064	13217
925.172	13152
925.279	13198
925.387	13255
925.494	13228
925.602	13308
925.709	13232
925.816	13118
925.924	13137
926.031	13228
926.138	13168
926.245	13122
926.352	13057
926.459	13225
926.566	13209
926.673	13042
926.779	12981
926.886	12916
926.993	12791
927.099	12833
927.206	12711
927.312	12646
927.419	12760
927.525	12764
927.631	12779
927.737	12578
927.843	12559
927.95	12475
928.056	12601
928.162	12639
928.267	12608
928.373	13213
928.479	12646
928.585	12483
928.69	12483
928.796	12574
928.901	12426
929.007	12304
929.112	12403
929.218	12338
929.323	12289
929.428	12194
929.533	12399
929.638	12296
929.743	12277
929.848	12266
929.953	12266
930.058	12190
930.163	11946
930.267	12091
930.372	12011
930.477	11916
930.581	12186
930.685	11980
930.79	11874
930.894	11980
930.998	11710
931.103	11969
931.207	11604
931.311	11566
931.415	11486
931.519	11258
931.623	11231
