Data from test_V78500241_2616.txt Node
Date: Fri Mar 25 15:28:04 CST 2022
User: usil
Spectrometer: V785-0024
Trigger mode: 0
Integration Time (sec): 4.000000E-1
Scans to average: 1
Nonlinearity correction enabled: false
Boxcar width: 0
Storing dark spectrum: false
XAxis mode: Wavelengths
Number of Pixels in Spectrum: 1024
>>>>>Begin Spectral Data<<<<<
801.071	27173
801.214	27180
801.356	26895
801.499	26918
801.641	26705
801.783	26705
801.926	26674
802.068	26682
802.211	26659
802.353	26594
802.496	26339
802.638	26434
802.78	26290
802.923	26309
803.065	26278
803.208	26229
803.35	26358
803.492	26484
803.635	26568
803.777	26358
803.919	26465
804.061	26834
804.204	26583
804.346	26522
804.488	26442
804.63	26366
804.773	26328
804.915	26556
805.057	26594
805.199	26423
805.341	26598
805.483	26598
805.626	26682
805.768	26583
805.91	26678
806.052	26556
806.194	26549
806.336	26906
806.478	26575
806.62	26701
806.762	26667
806.904	26788
807.046	27104
807.188	27047
807.33	27085
807.472	27055
807.614	26735
807.756	26979
807.898	26876
808.04	26800
808.182	26667
808.324	26773
808.465	27081
808.607	27066
808.749	27165
808.891	27230
809.033	27336
809.174	27131
809.316	27161
809.458	27165
809.6	27188
809.741	27329
809.883	27424
810.025	27447
810.166	27401
810.308	27568
810.45	27576
810.591	27325
810.733	27272
810.875	27157
811.016	27093
811.158	27062
811.299	27287
811.441	27329
811.582	27249
811.724	27230
811.865	27188
812.007	27150
812.148	27157
812.29	27146
812.431	27325
812.573	27469
812.714	27351
812.855	27682
812.997	27660
813.138	27865
813.279	27865
813.421	27625
813.562	27637
813.703	27439
813.845	27393
813.986	27070
814.127	26849
814.268	27070
814.41	26906
814.551	26986
814.692	26849
814.833	26762
814.974	26830
815.115	26777
815.256	26587
815.397	26701
815.539	26674
815.68	26743
815.821	26640
815.962	26632
816.103	26609
816.244	26545
816.385	26514
816.526	26374
816.666	26153
816.807	26065
816.948	26218
817.089	26240
817.23	26153
817.371	26130
817.512	26145
817.653	26187
817.793	26031
817.934	26077
818.075	26111
818.216	26096
818.356	25936
818.497	25989
818.638	25837
818.778	25902
818.919	25841
819.06	25856
819.2	26008
819.341	26016
819.481	26031
819.622	26206
819.762	26381
819.903	26233
820.043	26225
820.184	26122
820.324	26191
820.465	26237
820.605	26195
820.746	26168
820.886	26039
821.026	26153
821.167	26183
821.307	26256
821.447	26031
821.588	26008
821.728	25887
821.868	25753
822.008	25597
822.149	25632
822.289	25502
822.429	25301
822.569	25194
822.709	25152
822.849	25031
822.99	25114
823.13	24939
823.27	24985
823.41	24795
823.55	24856
823.69	24837
823.83	24810
823.97	24787
824.11	24627
824.25	24711
824.389	24700
824.529	24783
824.669	24852
824.809	24878
824.949	24890
825.089	24795
825.228	24722
825.368	24460
825.508	24437
825.648	24498
825.787	24532
825.927	24582
826.067	24505
826.206	24574
826.346	24639
826.485	24684
826.625	24578
826.765	24665
826.904	24669
827.044	24410
827.183	24289
827.323	24292
827.462	24467
827.601	24327
827.741	24304
827.88	24426
828.02	24133
828.159	24376
828.298	24171
828.437	24315
828.577	24311
828.716	24426
828.855	24174
828.994	24129
829.134	24106
829.273	23901
829.412	23977
829.551	24022
829.69	23996
829.829	24022
829.968	23988
830.107	23988
830.246	24045
830.385	24136
830.524	23908
830.663	23760
830.802	23710
830.941	23638
831.08	23634
831.219	23646
831.357	23615
831.496	23821
831.635	23547
831.774	23581
831.913	23554
832.051	23429
832.19	23398
832.329	23516
832.467	23391
832.606	23265
832.744	23239
832.883	23216
833.022	23208
833.16	23341
833.299	23440
833.437	23372
833.576	23395
833.714	23425
833.852	23425
833.991	23356
834.129	23356
834.267	23425
834.406	23376
834.544	23474
834.682	23391
834.821	23231
834.959	23459
835.097	23383
835.235	23311
835.373	23299
835.511	23383
835.65	23318
835.788	23197
835.926	23105
836.064	23105
836.202	23109
836.34	23296
836.478	23261
836.615	23223
836.753	23071
836.891	23315
837.029	23231
837.167	23090
837.305	23067
837.443	23086
837.58	23075
837.718	23075
837.856	23010
837.993	22968
838.131	23079
838.269	22968
838.406	22980
838.544	22987
838.681	22626
838.819	22694
838.956	22485
839.094	22508
839.231	22493
839.369	22634
839.506	22919
839.643	22862
839.781	22630
839.918	22481
840.055	22527
840.193	22352
840.33	22447
840.467	22535
840.604	22523
840.742	22915
840.879	22295
841.016	22481
841.153	22230
841.29	22656
841.427	22405
841.564	22462
841.701	22451
841.838	22375
841.975	22394
842.112	22440
842.249	22363
842.385	22356
842.522	22512
842.659	22287
842.796	22223
842.933	22131
843.069	22200
843.206	22185
843.343	22238
843.479	22295
843.616	22192
843.752	22090
843.889	21983
844.025	22192
844.162	21945
844.298	22154
844.435	21975
844.571	21941
844.708	22017
844.844	22074
844.98	22120
845.117	22177
845.253	22032
845.389	21953
845.525	22025
845.661	21991
845.798	21770
845.934	21827
846.07	21709
846.206	21812
846.342	21888
846.478	21701
846.614	21496
846.75	21485
846.886	21450
847.022	21610
847.158	21443
847.294	21488
847.429	21603
847.565	21450
847.701	21713
847.837	21112
847.972	21272
848.108	21439
848.244	21146
848.379	21184
848.515	21058
848.65	21077
848.786	21077
848.921	21108
849.057	21176
849.192	21131
849.328	21077
849.463	21142
849.598	20910
849.734	21028
849.869	20899
850.004	20762
850.14	20876
850.275	20743
850.41	20727
850.545	20880
850.68	20811
850.815	20777
850.95	20785
851.085	20944
851.22	20986
851.355	20773
851.49	20826
851.625	20724
851.76	20781
851.895	20781
852.03	20811
852.165	20830
852.299	20948
852.434	21020
852.569	20941
852.703	20861
852.838	20838
852.973	20990
853.107	21017
853.242	20705
853.376	20815
853.511	20613
853.645	20480
853.78	20872
853.914	20651
854.048	20613
854.183	20613
854.317	20788
854.451	20849
854.585	20609
854.72	20526
854.854	20765
854.988	20617
855.122	20651
855.256	20484
855.39	20629
855.524	20716
855.658	20743
855.792	20754
855.926	20667
856.06	20716
856.194	20796
856.327	20579
856.461	20556
856.595	20575
856.729	20583
856.862	20594
856.996	20743
857.13	20678
857.263	20880
857.397	20815
857.53	20667
857.664	20731
857.797	20788
857.931	20731
858.064	20640
858.197	20697
858.331	20716
858.464	20621
858.597	20613
858.731	20667
858.864	20625
858.997	20632
859.13	20663
859.263	20655
859.396	20686
859.529	20659
859.662	20617
859.795	20636
859.928	20708
860.061	20910
860.194	20872
860.327	20796
860.46	20571
860.592	20792
860.725	20845
860.858	20743
860.99	20693
861.123	20495
861.256	20655
861.388	20686
861.521	21306
861.653	20598
861.786	20473
861.918	20480
862.05	20621
862.183	20556
862.315	20636
862.447	20568
862.58	20564
862.712	20347
862.844	20419
862.976	20442
863.108	20465
863.24	20941
863.372	20362
863.504	20377
863.636	20442
863.768	20446
863.9	20374
864.032	20339
864.164	20324
864.296	20389
864.428	20488
864.559	20457
864.691	20454
864.823	20503
864.954	20412
865.086	20347
865.217	20366
865.349	20164
865.48	20240
865.612	20259
865.743	20332
865.875	20221
866.006	20240
866.137	20317
866.269	20199
866.4	20263
866.531	20221
866.662	20210
866.793	20103
866.924	20309
867.055	20237
867.186	20153
867.317	20252
867.448	20077
867.579	20176
867.71	20233
867.841	20206
867.972	20244
868.103	20214
868.233	20271
868.364	20278
868.495	20282
868.625	20526
868.756	20579
868.886	20400
869.017	20343
869.147	20549
869.278	20560
869.408	20556
869.539	20659
869.669	20621
869.799	20537
869.929	20537
870.06	20632
870.19	20735
870.32	20655
870.45	20857
870.58	20876
870.71	20948
870.84	20941
870.97	20937
871.1	20918
871.23	21112
871.36	21009
871.489	20921
871.619	20937
871.749	21127
871.879	21123
872.008	21233
872.138	21123
872.267	21066
872.397	20849
872.526	20899
872.656	20807
872.785	20864
872.915	20918
873.044	21226
873.173	21009
873.303	21230
873.432	21176
873.561	21142
873.69	21100
873.819	21043
873.948	21173
874.077	21108
874.206	21066
874.335	21005
874.464	21119
874.593	21336
874.722	21165
874.851	21363
874.979	21313
875.108	21469
875.237	21310
875.365	21161
875.494	21279
875.623	21435
875.751	21245
875.88	21321
876.008	21382
876.136	21652
876.265	21876
876.393	21838
876.521	21865
876.65	21873
876.778	21713
876.906	21644
877.034	21652
877.162	21679
877.29	21549
877.418	21663
877.546	21705
877.674	21781
877.802	21751
877.93	21747
878.058	21610
878.185	21561
878.313	21606
878.441	21679
878.568	21511
878.696	21701
878.824	21701
878.951	21675
879.079	21854
879.206	22036
879.333	21895
879.461	21762
879.588	21865
879.715	21857
879.842	22074
879.97	21736
880.097	21515
880.224	21496
880.351	21587
880.478	21572
880.605	21557
880.732	21458
880.859	21595
880.986	21454
881.112	21561
881.239	21534
881.366	21306
881.493	21195
881.619	21085
881.746	21230
881.872	21089
881.999	21020
882.125	21017
882.252	21077
882.378	21116
882.505	21283
882.631	20990
882.757	20823
882.883	20971
883.01	20800
883.136	20785
883.262	20800
883.388	20758
883.514	20876
883.64	20781
883.766	20716
883.892	20621
884.018	20609
884.143	20716
884.269	20845
884.395	20549
884.52	20454
884.646	20396
884.772	20320
884.897	20362
885.023	20552
885.148	20556
885.274	20568
885.399	20606
885.524	20377
885.65	20446
885.775	20457
885.9	20480
886.025	20495
886.15	20552
886.275	20404
886.4	20366
886.525	20454
886.65	20332
886.775	20324
886.9	20507
887.025	20606
887.149	20419
887.274	20290
887.399	20267
887.523	20332
887.648	20092
887.773	20180
887.897	20282
888.021	20290
888.146	20138
888.27	20324
888.395	20282
888.519	20225
888.643	20259
888.767	20278
888.891	20027
889.015	20069
889.139	20050
889.263	19940
889.387	20183
889.511	20252
889.635	20126
889.759	20069
889.883	19959
890.006	20100
890.13	20161
890.254	19902
890.377	19826
890.501	19803
890.624	19613
890.748	19868
890.871	19803
890.995	19502
891.118	19571
891.241	19620
891.364	19639
891.488	19734
891.611	19772
891.734	19616
891.857	19639
891.98	19674
892.103	19601
892.226	19605
892.349	19563
892.471	19472
892.594	19495
892.717	19518
892.839	19521
892.962	19544
893.085	19533
893.207	19620
893.33	19396
893.452	19510
893.575	19540
893.697	19480
893.819	19670
893.941	19704
894.064	19731
894.186	19506
894.308	19468
894.43	19613
894.552	19750
894.674	19651
894.796	19518
894.918	19632
895.04	19582
895.161	19586
895.283	19643
895.405	19422
895.526	19616
895.648	19521
895.769	19605
895.891	19544
896.012	19540
896.134	19616
896.255	19502
896.376	19460
896.498	19445
896.619	19544
896.74	19575
896.861	19620
896.982	19871
897.103	19955
897.224	19772
897.345	19738
897.466	19738
897.587	19689
897.708	19963
897.828	19780
897.949	19715
898.07	19605
898.19	19727
898.311	19921
898.431	19753
898.552	19864
898.672	19814
898.792	19731
898.913	19932
899.033	19674
899.153	19651
899.273	19369
899.393	19480
899.513	19533
899.633	19533
899.753	19506
899.873	19400
899.993	19483
900.113	19392
900.232	19575
900.352	19335
900.472	19381
900.591	19232
900.711	19438
900.83	19289
900.95	19476
901.069	19354
901.189	19122
901.308	19034
901.427	18856
901.546	18920
901.665	19034
901.784	18932
901.904	18768
902.023	18696
902.141	18551
902.26	18426
902.379	18471
902.498	18437
902.617	18342
902.735	18471
902.854	18334
902.973	18376
903.091	18049
903.21	18026
903.328	18091
903.446	18022
903.565	17912
903.683	17885
903.801	17863
903.919	17813
904.038	17836
904.156	17745
904.274	17767
904.392	17638
904.51	17596
904.627	17665
904.745	17680
904.863	17619
904.981	17410
905.098	17414
905.216	17318
905.334	17376
905.451	17296
905.569	17223
905.686	17395
905.803	17334
905.921	17124
906.038	17284
906.155	17128
906.272	17060
906.389	17006
906.506	16934
906.623	16938
906.74	16908
906.857	16820
906.974	16771
907.091	16930
907.208	16968
907.324	16972
907.441	16862
907.557	16637
907.674	16634
907.79	16611
907.907	16607
908.023	16653
908.139	16611
908.256	16504
908.372	16508
908.488	16531
908.604	16325
908.72	16337
908.836	16360
908.952	16284
909.068	16325
909.184	16428
909.3	16352
909.415	16356
909.531	16379
909.647	16093
909.762	16276
909.878	16055
909.993	16082
910.108	16074
910.224	16006
910.339	16071
910.454	15880
910.57	15907
910.685	15732
910.8	16112
910.915	16093
911.03	15949
911.145	15686
911.259	15652
911.374	15625
911.489	15610
911.604	15458
911.718	15374
911.833	15428
911.947	15389
912.062	15317
912.176	15477
912.291	15450
912.405	15428
912.519	15675
912.633	15568
912.748	15435
912.862	15367
912.976	15389
913.09	15214
913.204	15245
913.318	15245
913.431	15439
913.545	15279
913.659	15386
913.772	15230
913.886	15112
914	15039
914.113	15097
914.226	15287
914.34	15188
914.453	14967
914.566	15142
914.68	14960
914.793	14864
914.906	14773
915.019	14621
915.132	14610
915.245	14651
915.358	14750
915.47	14598
915.583	14568
915.696	14678
915.809	14849
915.921	14861
916.034	14636
916.146	14590
916.259	14488
916.371	14610
916.483	14621
916.595	14480
916.708	14495
916.82	14541
916.932	14431
917.044	14469
917.156	14389
917.268	14301
917.38	14450
917.491	14282
917.603	14355
917.715	14442
917.826	14404
917.938	14206
918.049	14138
918.161	14282
918.272	14377
918.384	14454
918.495	14313
918.606	14142
918.717	14149
918.828	14142
918.939	14119
919.05	14069
919.161	14096
919.272	13883
919.383	13951
919.494	14107
919.604	14256
919.715	14062
919.826	13940
919.936	13928
920.047	14119
920.157	14157
920.267	14286
920.378	14130
920.488	14035
920.598	14221
920.708	14454
920.818	14187
920.928	14161
921.038	14324
921.148	14412
921.258	14020
921.368	13955
921.477	13849
921.587	13784
921.697	13700
921.806	13791
921.916	13693
922.025	13537
922.134	13529
922.244	13449
922.353	13483
922.462	13445
922.571	13247
922.68	13152
922.789	13149
922.898	13156
923.007	13012
923.116	13103
923.224	13095
923.333	12932
923.442	13034
923.55	12916
923.659	12989
923.767	12970
923.876	12897
923.984	12962
924.092	12806
924.201	12867
924.309	12920
924.417	12852
924.525	12783
924.633	12795
924.741	13742
924.849	12620
924.956	12738
925.064	12631
925.172	12585
925.279	12589
925.387	12509
925.494	12540
925.602	12631
925.709	12642
925.816	12490
925.924	12448
926.031	12620
926.138	12460
926.245	12506
926.352	12414
926.459	12566
926.566	12669
926.673	12441
926.779	12281
926.886	12281
926.993	12114
927.099	12110
927.206	12038
927.312	12057
927.419	12155
927.525	12171
927.631	12117
927.737	12038
927.843	11984
927.95	11840
928.056	11920
928.162	11980
928.267	11973
928.373	12429
928.479	12034
928.585	11813
928.69	11836
928.796	11908
928.901	11817
929.007	11642
929.112	11885
929.218	11771
929.323	11695
929.428	11627
929.533	11843
929.638	11577
929.743	11646
929.848	11680
929.953	11646
930.058	11551
930.163	11414
930.267	11429
930.372	11543
930.477	11334
930.581	11623
930.685	11467
930.79	11296
930.894	11280
930.998	11288
931.103	11448
931.207	11029
931.311	10972
931.415	10869
931.519	10748
931.623	10683
