Data from test_V78500241_2033.txt Node
Date: Fri Mar 25 15:24:00 CST 2022
User: usil
Spectrometer: V785-0024
Trigger mode: 0
Integration Time (sec): 4.000000E-1
Scans to average: 1
Nonlinearity correction enabled: false
Boxcar width: 0
Storing dark spectrum: false
XAxis mode: Wavelengths
Number of Pixels in Spectrum: 1024
>>>>>Begin Spectral Data<<<<<
801.071	27751
801.214	27610
801.356	27458
801.499	27370
801.641	27226
801.783	27199
801.926	27348
802.068	27176
802.211	27291
802.353	27268
802.496	27020
802.638	27138
802.78	26819
802.923	26853
803.065	26777
803.208	26788
803.35	26899
803.492	26940
803.635	27055
803.777	27005
803.919	27161
804.061	27439
804.204	27230
804.346	26956
804.488	27085
804.63	27123
804.773	26994
804.915	27272
805.057	27207
805.199	27119
805.341	27135
805.483	27142
805.626	27203
805.768	27119
805.91	27180
806.052	27264
806.194	27142
806.336	27401
806.478	27169
806.62	27123
806.762	27264
806.904	27534
807.046	27717
807.188	27709
807.33	27652
807.472	27679
807.614	27492
807.756	27587
807.898	27504
808.04	27367
808.182	27530
808.324	27583
808.465	27564
808.607	27770
808.749	27785
808.891	27983
809.033	28017
809.174	27914
809.316	27759
809.458	27857
809.6	27914
809.741	28010
809.883	27937
810.025	28234
810.166	28150
810.308	28135
810.45	28120
810.591	28021
810.733	27907
810.875	27736
811.016	27724
811.158	27739
811.299	27892
811.441	28036
811.582	27960
811.724	27800
811.865	27751
812.007	27705
812.148	27854
812.29	27842
812.431	28105
812.573	28150
812.714	28284
812.855	28352
812.997	28432
813.138	28470
813.279	28493
813.421	28375
813.562	28303
813.703	28150
813.845	28063
813.986	27823
814.127	27599
814.268	27389
814.41	27618
814.551	27618
814.692	27443
814.833	27538
814.974	27500
815.115	27481
815.256	27386
815.397	27488
815.539	27359
815.68	27424
815.821	27351
815.962	27405
816.103	27237
816.244	27157
816.385	27104
816.526	27188
816.666	26887
816.807	26758
816.948	26819
817.089	26921
817.23	26819
817.371	26842
817.512	26739
817.653	26823
817.793	26857
817.934	26746
818.075	26765
818.216	26838
818.356	26682
818.497	26667
818.638	26507
818.778	26568
818.919	26697
819.06	26587
819.2	26693
819.341	26575
819.481	26815
819.622	26937
819.762	27131
819.903	27047
820.043	26872
820.184	26823
820.324	26899
820.465	26807
820.605	26861
820.746	26891
820.886	26845
821.026	26792
821.167	26693
821.307	26975
821.447	26746
821.588	26762
821.728	26530
821.868	26408
822.008	26298
822.149	26298
822.289	26259
822.429	26001
822.569	26027
822.709	25917
822.849	25769
822.99	25845
823.13	25826
823.27	25731
823.41	25544
823.55	25430
823.69	25666
823.83	25632
823.97	25453
824.11	25343
824.25	25460
824.389	25449
824.529	25499
824.669	25487
824.809	25510
824.949	25460
825.089	25445
825.228	25373
825.368	25179
825.508	25327
825.648	25228
825.787	25316
825.927	25316
826.067	25266
826.206	25202
826.346	25369
826.485	25247
826.625	25327
826.765	25251
826.904	25365
827.044	25069
827.183	25023
827.323	25065
827.462	25095
827.601	25019
827.741	25080
827.88	24878
828.02	24943
828.159	24943
828.298	24966
828.437	25107
828.577	24909
828.716	25103
828.855	24848
828.994	24715
829.134	24612
829.273	24833
829.412	24623
829.551	24688
829.69	24700
829.829	24772
829.968	24745
830.107	24726
830.246	24692
830.385	24525
830.524	24623
830.663	24490
830.802	24376
830.941	24327
831.08	24327
831.219	24376
831.357	24327
831.496	24559
831.635	24315
831.774	24357
831.913	24213
832.051	24178
832.19	23999
832.329	24155
832.467	24022
832.606	23931
832.744	23969
832.883	23878
833.022	23988
833.16	23927
833.299	23980
833.437	23965
833.576	24133
833.714	24110
833.852	24083
833.991	24038
834.129	24106
834.267	24079
834.406	24064
834.544	24049
834.682	24072
834.821	24026
834.959	24190
835.097	24015
835.235	24098
835.373	24038
835.511	23996
835.65	23923
835.788	23851
835.926	23775
836.064	23649
836.202	23756
836.34	23847
836.478	23961
836.615	23805
836.753	23916
836.891	23999
837.029	23870
837.167	23722
837.305	23737
837.443	23790
837.58	23904
837.718	23756
837.856	23733
837.993	23558
838.131	23756
838.269	23554
838.406	23524
838.544	23573
838.681	23311
838.819	23345
838.956	23102
839.094	23185
839.231	23178
839.369	23425
839.506	23516
839.643	23467
839.781	23136
839.918	23174
840.055	23094
840.193	23113
840.33	23094
840.467	23086
840.604	23132
840.742	23376
840.879	22995
841.016	23052
841.153	23010
841.29	23102
841.427	22999
841.564	23018
841.701	23143
841.838	23018
841.975	23025
842.112	22987
842.249	22858
842.385	22801
842.522	22938
842.659	23079
842.796	22850
842.933	22755
843.069	22729
843.206	22877
843.343	22934
843.479	22839
843.616	22862
843.752	22664
843.889	22611
844.025	22767
844.162	22535
844.298	22702
844.435	22603
844.571	22538
844.708	22611
844.844	22694
844.98	22763
845.117	22698
845.253	22641
845.389	22592
845.525	22550
845.661	22466
845.798	22360
845.934	22428
846.07	22318
846.206	22466
846.342	22421
846.478	22261
846.614	22131
846.75	22097
846.886	22116
847.022	22086
847.158	22162
847.294	22112
847.429	22135
847.565	22116
847.701	22356
847.837	21850
847.972	21747
848.108	21823
848.244	21800
848.379	21865
848.515	21610
848.65	21648
848.786	21686
848.921	21686
849.057	21778
849.192	21926
849.328	21720
849.463	21671
849.598	21614
849.734	21557
849.869	21591
850.004	21481
850.14	21454
850.275	21545
850.41	21408
850.545	21348
850.68	21428
850.815	21523
850.95	21462
851.085	21557
851.22	21549
851.355	21519
851.49	21458
851.625	21359
851.76	21252
851.895	21321
852.03	21386
852.165	21294
852.299	21542
852.434	21542
852.569	21488
852.703	21424
852.838	21408
852.973	21557
853.107	21504
853.242	21386
853.376	21287
853.511	21154
853.645	21268
853.78	21348
853.914	21199
854.048	21188
854.183	21313
854.317	21226
854.451	21405
854.585	21192
854.72	21340
854.854	21317
854.988	21157
855.122	21138
855.256	21264
855.39	21272
855.524	21264
855.658	21306
855.792	21317
855.926	21294
856.06	21237
856.194	21329
856.327	21173
856.461	21135
856.595	21138
856.729	21241
856.862	21382
856.996	21351
857.13	21245
857.263	21405
857.397	21389
857.53	21233
857.664	21207
857.797	21283
857.931	21344
858.064	21279
858.197	21340
858.331	21268
858.464	21252
858.597	21070
858.731	21154
858.864	21154
858.997	21249
859.13	21233
859.263	21313
859.396	21435
859.529	21291
859.662	21142
859.795	21169
859.928	21157
860.061	21389
860.194	21428
860.327	21245
860.46	21336
860.592	21439
860.725	21485
860.858	21439
860.99	21340
861.123	21233
861.256	21188
861.388	21252
861.521	21827
861.653	21135
861.786	21116
861.918	21173
862.05	21043
862.183	21245
862.315	21279
862.447	21313
862.58	21222
862.712	20979
862.844	21013
862.976	20975
863.108	21043
863.24	21504
863.372	20876
863.504	20979
863.636	21051
863.768	21184
863.9	21013
864.032	20921
864.164	20883
864.296	20834
864.428	20998
864.559	21142
864.691	20960
864.823	21017
864.954	20994
865.086	20880
865.217	20895
865.349	20724
865.48	20891
865.612	20861
865.743	20956
865.875	20800
866.006	20754
866.137	20864
866.269	20899
866.4	20864
866.531	20792
866.662	20762
866.793	20811
866.924	20838
867.055	20781
867.186	20883
867.317	20815
867.448	20625
867.579	20807
867.71	20697
867.841	20659
867.972	20849
868.103	20807
868.233	20914
868.364	20823
868.495	20956
868.625	21043
868.756	21161
868.886	21005
869.017	21066
869.147	21096
869.278	21180
869.408	21039
869.539	20990
869.669	21096
869.799	21081
869.929	21222
870.06	21226
870.19	21321
870.32	21348
870.45	21420
870.58	21355
870.71	21530
870.84	21473
870.97	21488
871.1	21435
871.23	21614
871.36	21652
871.489	21553
871.619	21656
871.749	21625
871.879	21717
872.008	21732
872.138	21629
872.267	21534
872.397	21515
872.526	21473
872.656	21507
872.785	21553
872.915	21641
873.044	21682
873.173	21720
873.303	21641
873.432	21732
873.561	21804
873.69	21633
873.819	21557
873.948	21736
874.077	21720
874.206	21644
874.335	21694
874.464	21823
874.593	21812
874.722	21819
874.851	21972
874.979	21960
875.108	21953
875.237	21892
875.365	21717
875.494	21869
875.623	21880
875.751	21869
875.88	21956
876.008	22112
876.136	22120
876.265	22367
876.393	22409
876.521	22432
876.65	22417
876.778	22341
876.906	22215
877.034	22242
877.162	22337
877.29	22234
877.418	22249
877.546	22280
877.674	22105
877.802	22261
877.93	22211
878.058	22158
878.185	22074
878.313	22204
878.441	22128
878.568	22017
878.696	22257
878.824	22268
878.951	22409
879.079	22356
879.206	22535
879.333	22386
879.461	22242
879.588	22295
879.715	22436
879.842	22577
879.97	22337
880.097	22116
880.224	22158
880.351	22109
880.478	22257
880.605	22067
880.732	22154
880.859	22329
880.986	22147
881.112	21960
881.239	21968
881.366	21800
881.493	21728
881.619	21766
881.746	21686
881.872	21739
881.999	21648
882.125	21698
882.252	21599
882.378	21686
882.505	21709
882.631	21610
882.757	21420
882.883	21462
883.01	21363
883.136	21374
883.262	21332
883.388	21294
883.514	21386
883.64	21439
883.766	21256
883.892	21150
884.018	21138
884.143	21176
884.269	21355
884.395	21032
884.52	21036
884.646	20952
884.772	20883
884.897	20914
885.023	20979
885.148	21165
885.274	21112
885.399	21062
885.524	21024
885.65	21039
885.775	20941
885.9	20960
886.025	21142
886.15	21066
886.275	20967
886.4	20986
886.525	20887
886.65	20918
886.775	21058
886.9	21146
887.025	21192
887.149	20921
887.274	20785
887.399	20754
887.523	20720
887.648	20708
887.773	20781
887.897	20861
888.021	20804
888.146	20663
888.27	20849
888.395	20800
888.519	20876
888.643	20811
888.767	20804
888.891	20708
889.015	20541
889.139	20594
889.263	20689
889.387	20762
889.511	20773
889.635	20617
889.759	20514
889.883	20514
890.006	20469
890.13	20636
890.254	20564
890.377	20495
890.501	20294
890.624	20351
890.748	20408
890.871	20107
890.995	20058
891.118	20077
891.241	20214
891.364	20290
891.488	20385
891.611	20130
891.734	20073
891.857	20214
891.98	20168
892.103	20126
892.226	20138
892.349	20187
892.471	19928
892.594	20161
892.717	19986
892.839	20001
892.962	20103
893.085	20119
893.207	20012
893.33	19974
893.452	19947
893.575	20050
893.697	20100
893.819	20122
893.941	20164
894.064	20168
894.186	19978
894.308	20008
894.43	20187
894.552	20187
894.674	20065
894.796	20024
894.918	20065
895.04	20069
895.161	20145
895.283	20058
895.405	19978
895.526	20027
895.648	20012
895.769	20100
895.891	20126
896.012	20073
896.134	20039
896.255	20062
896.376	19986
896.498	20077
896.619	19970
896.74	20073
896.861	20031
896.982	20267
897.103	20446
897.224	20256
897.345	20161
897.466	20168
897.587	20233
897.708	20298
897.828	20317
897.949	20081
898.07	20138
898.19	20126
898.311	20343
898.431	20157
898.552	20176
898.672	20317
898.792	20305
898.913	20339
899.033	20130
899.153	20005
899.273	19849
899.393	20024
899.513	20050
899.633	20039
899.753	20054
899.873	20065
899.993	20012
900.113	20054
900.232	20046
900.352	19894
900.472	19803
900.591	19791
900.711	19803
900.83	19624
900.95	19883
901.069	19860
901.189	19734
901.308	19510
901.427	19392
901.546	19499
901.665	19365
901.784	19339
901.904	19221
902.023	19129
902.141	18985
902.26	18954
902.379	19042
902.498	18875
902.617	18852
902.735	18973
902.854	18859
902.973	18840
903.091	18574
903.21	18604
903.328	18483
903.446	18486
903.565	18437
903.683	18327
903.801	18174
903.919	18369
904.038	18220
904.156	18068
904.274	18235
904.392	18106
904.51	18148
904.627	18098
904.745	18152
904.863	18247
904.981	17973
905.098	17870
905.216	17764
905.334	17775
905.451	17748
905.569	17779
905.686	17840
905.803	17874
905.921	17532
906.038	17729
906.155	17726
906.272	17421
906.389	17516
906.506	17383
906.623	17322
906.74	17296
906.857	17254
906.974	17261
907.091	17376
907.208	17398
907.324	17376
907.441	17170
907.557	17060
907.674	17064
907.79	17014
907.907	17045
908.023	17083
908.139	16976
908.256	17025
908.372	16999
908.488	16972
908.604	16805
908.72	16771
908.836	16767
908.952	16725
909.068	16771
909.184	16908
909.3	16702
909.415	16748
909.531	16771
909.647	16637
909.762	16531
909.878	16417
909.993	16500
910.108	16497
910.224	16375
910.339	16459
910.454	16394
910.57	16299
910.685	16253
910.8	16489
910.915	16405
911.03	16356
911.145	16215
911.259	16147
911.374	16093
911.489	16006
911.604	15930
911.718	15907
911.833	15793
911.947	15736
912.062	15671
912.176	15762
912.291	15747
912.405	15804
912.519	16063
912.633	15998
912.748	15892
912.862	15800
912.976	15641
913.09	15526
913.204	15542
913.318	15591
913.431	15656
913.545	15720
913.659	15732
913.772	15686
913.886	15431
914	15496
914.113	15534
914.226	15553
914.34	15496
914.453	15336
914.566	15488
914.68	15355
914.793	15370
914.906	15112
915.019	14986
915.132	14960
915.245	15062
915.358	15146
915.47	15032
915.583	15036
915.696	15062
915.809	15127
915.921	15188
916.034	14952
916.146	14979
916.259	14925
916.371	14960
916.483	15024
916.595	14868
916.708	14952
916.82	14773
916.932	14857
917.044	14857
917.156	14842
917.268	14746
917.38	14667
917.491	14743
917.603	14720
917.715	14705
917.826	14678
917.938	14674
918.049	14598
918.161	14674
918.272	14686
918.384	14804
918.495	14640
918.606	14484
918.717	14419
918.828	14549
918.939	14358
919.05	14366
919.161	14461
919.272	14282
919.383	14320
919.494	14545
919.604	14636
919.715	14438
919.826	14393
919.936	14434
920.047	14412
920.157	14404
920.267	14644
920.378	14412
920.488	14385
920.598	14625
920.708	14670
920.818	14575
920.928	14526
921.038	14727
921.148	14610
921.258	14480
921.368	14294
921.477	14206
921.587	14123
921.697	13917
921.806	14237
921.916	14027
922.025	13788
922.134	13822
922.244	13761
922.353	13784
922.462	13674
922.571	13628
922.68	13510
922.789	13460
922.898	13525
923.007	13308
923.116	13438
923.224	13411
923.333	13464
923.442	13403
923.55	13320
923.659	13346
923.767	13396
923.876	13202
923.984	13274
924.092	13156
924.201	13164
924.309	13206
924.417	13213
924.525	13152
924.633	13034
924.741	13955
924.849	12970
924.956	13175
925.064	12973
925.172	12928
925.279	12798
925.387	12985
925.494	12954
925.602	12989
925.709	12970
925.816	12825
925.924	12837
926.031	12859
926.138	12856
926.245	12837
926.352	12707
926.459	12894
926.566	12863
926.673	12719
926.779	12658
926.886	12585
926.993	12399
927.099	12456
927.206	12296
927.312	12414
927.419	12448
927.525	12414
927.631	12441
927.737	12376
927.843	12296
927.95	12232
928.056	12304
928.162	12232
928.267	12365
928.373	12897
928.479	12353
928.585	12076
928.69	12228
928.796	12304
928.901	12114
929.007	11992
929.112	12121
929.218	12110
929.323	12034
929.428	11965
929.533	12140
929.638	12030
929.743	12064
929.848	11965
929.953	12011
930.058	11836
930.163	11729
930.267	11627
930.372	11794
930.477	11604
930.581	11828
930.685	11760
930.79	11551
930.894	11611
930.998	11676
931.103	11646
931.207	11261
931.311	11311
931.415	11136
931.519	11025
931.623	11006
