Data from test_V78500241_3116.txt Node
Date: Fri Mar 25 15:31:33 CST 2022
User: usil
Spectrometer: V785-0024
Trigger mode: 0
Integration Time (sec): 4.000000E-1
Scans to average: 1
Nonlinearity correction enabled: false
Boxcar width: 0
Storing dark spectrum: false
XAxis mode: Wavelengths
Number of Pixels in Spectrum: 1024
>>>>>Begin Spectral Data<<<<<
801.071	26830
801.214	26823
801.356	26674
801.499	26526
801.641	26355
801.783	26374
801.926	26495
802.068	26438
802.211	26343
802.353	26195
802.496	26161
802.638	26111
802.78	26024
802.923	25871
803.065	25780
803.208	25940
803.35	25959
803.492	26199
803.635	26161
803.777	26130
803.919	26180
804.061	26412
804.204	26142
804.346	26119
804.488	26046
804.63	26164
804.773	26039
804.915	26035
805.057	26145
805.199	26077
805.341	26145
805.483	26305
805.626	26172
805.768	26054
805.91	26366
806.052	26404
806.194	26153
806.336	26377
806.478	26259
806.62	26180
806.762	26271
806.904	26381
807.046	26929
807.188	26644
807.33	26625
807.472	26773
807.614	26556
807.756	26495
807.898	26457
808.04	26446
808.182	26374
808.324	26469
808.465	26549
808.607	26564
808.749	26819
808.891	27001
809.033	26971
809.174	26857
809.316	26670
809.458	26796
809.6	26804
809.741	26830
809.883	26891
810.025	27157
810.166	27074
810.308	27169
810.45	26891
810.591	26948
810.733	26823
810.875	26701
811.016	26682
811.158	26754
811.299	26739
811.441	26960
811.582	26918
811.724	26705
811.865	26777
812.007	26735
812.148	26746
812.29	26902
812.431	27013
812.573	27119
812.714	27165
812.855	27279
812.997	27378
813.138	27389
813.279	27450
813.421	27317
813.562	27119
813.703	27036
813.845	27013
813.986	26746
814.127	26545
814.268	26370
814.41	26480
814.551	26377
814.692	26461
814.833	26336
814.974	26263
815.115	26381
815.256	26298
815.397	26336
815.539	26358
815.68	26301
815.821	26218
815.962	26336
816.103	25966
816.244	26020
816.385	25928
816.526	25849
816.666	25738
816.807	25658
816.948	25738
817.089	25795
817.23	25719
817.371	25616
817.512	25639
817.653	25727
817.793	25628
817.934	25681
818.075	25677
818.216	25734
818.356	25708
818.497	25533
818.638	25468
818.778	25556
818.919	25491
819.06	25563
819.2	25499
819.341	25647
819.481	25556
819.622	25769
819.762	26107
819.903	25982
820.043	25776
820.184	25780
820.324	25681
820.465	25746
820.605	25738
820.746	25723
820.886	25575
821.026	25750
821.167	25651
821.307	25864
821.447	25620
821.588	25563
821.728	25301
821.868	25316
822.008	25190
822.149	25107
822.289	25228
822.429	24928
822.569	24779
822.709	24901
822.849	24707
822.99	24722
823.13	24536
823.27	24540
823.41	24464
823.55	24346
823.69	24528
823.83	24426
823.97	24399
824.11	24289
824.25	24239
824.389	24224
824.529	24471
824.669	24182
824.809	24391
824.949	24346
825.089	24334
825.228	24357
825.368	24262
825.508	24091
825.648	24125
825.787	24049
825.927	24178
826.067	24098
826.206	24079
826.346	24163
826.485	24205
826.625	24034
826.765	24220
826.904	24197
827.044	23992
827.183	23889
827.323	23798
827.462	23901
827.601	23920
827.741	23912
827.88	23855
828.02	23733
828.159	23737
828.298	23946
828.437	23878
828.577	23828
828.716	23904
828.855	23680
828.994	23551
829.134	23611
829.273	23665
829.412	23562
829.551	23478
829.69	23531
829.829	23676
829.968	23604
830.107	23649
830.246	23638
830.385	23425
830.524	23364
830.663	23265
830.802	23296
830.941	23121
831.08	23117
831.219	23170
831.357	23269
831.496	23360
831.635	23162
831.774	23178
831.913	23010
832.051	22892
832.19	22908
832.329	22942
832.467	22862
832.606	22862
832.744	22812
832.883	22854
833.022	22869
833.16	22915
833.299	22915
833.437	22877
833.576	22911
833.714	22911
833.852	22896
833.991	22915
834.129	22980
834.267	22904
834.406	22923
834.544	22892
834.682	22839
834.821	22767
834.959	23117
835.097	22782
835.235	22919
835.373	22831
835.511	22957
835.65	22786
835.788	22653
835.926	22588
836.064	22607
836.202	22577
836.34	22740
836.478	22911
836.615	22767
836.753	22668
836.891	22873
837.029	22786
837.167	22710
837.305	22569
837.443	22497
837.58	22584
837.718	22645
837.856	22729
837.993	22542
838.131	22599
838.269	22443
838.406	22531
838.544	22436
838.681	22356
838.819	22135
838.956	22131
839.094	22150
839.231	22242
839.369	22234
839.506	22519
839.643	22382
839.781	22055
839.918	22105
840.055	22055
840.193	22029
840.33	21915
840.467	22040
840.604	22055
840.742	22196
840.879	21960
841.016	21869
841.153	22021
841.29	22105
841.427	21865
841.564	21998
841.701	21983
841.838	21907
841.975	21941
842.112	21888
842.249	21941
842.385	21831
842.522	22025
842.659	21831
842.796	21686
842.933	21713
843.069	21717
843.206	21671
843.343	21698
843.479	21812
843.616	21831
843.752	21553
843.889	21553
844.025	21644
844.162	21504
844.298	21644
844.435	21523
844.571	21412
844.708	21629
844.844	21629
844.98	21694
845.117	21675
845.253	21496
845.389	21332
845.525	21428
845.661	21431
845.798	21233
845.934	21431
846.07	21332
846.206	21260
846.342	21507
846.478	21348
846.614	21039
846.75	21047
846.886	21005
847.022	21161
847.158	21028
847.294	21237
847.429	21036
847.565	21066
847.701	21157
847.837	20849
847.972	20655
848.108	20891
848.244	20689
848.379	20590
848.515	20594
848.65	20549
848.786	20644
848.921	20621
849.057	20807
849.192	20720
849.328	20674
849.463	20727
849.598	20590
849.734	20499
849.869	20568
850.004	20480
850.14	20473
850.275	20514
850.41	20427
850.545	20366
850.68	20473
850.815	20415
850.95	20305
851.085	20575
851.22	20514
851.355	20389
851.49	20290
851.625	20423
851.76	20370
851.895	20320
852.03	20332
852.165	20290
852.299	20347
852.434	20492
852.569	20473
852.703	20434
852.838	20446
852.973	20533
853.107	20431
853.242	20286
853.376	20176
853.511	20088
853.645	20153
853.78	20339
853.914	20115
854.048	20210
854.183	20081
854.317	20320
854.451	20358
854.585	20210
854.72	20225
854.854	20450
854.988	20122
855.122	20149
855.256	20035
855.39	20119
855.524	20248
855.658	20187
855.792	20248
855.926	20221
856.06	20183
856.194	20358
856.327	20248
856.461	20092
856.595	20218
856.729	20191
856.862	20282
856.996	20096
857.13	20237
857.263	20301
857.397	20237
857.53	20180
857.664	20214
857.797	20263
857.931	20229
858.064	20290
858.197	20278
858.331	20145
858.464	20187
858.597	20035
858.731	20256
858.864	20210
858.997	20164
859.13	20214
859.263	20294
859.396	20339
859.529	20263
859.662	20206
859.795	20134
859.928	20176
860.061	20294
860.194	20461
860.327	20290
860.46	20336
860.592	20263
860.725	20461
860.858	20267
860.99	20240
861.123	20206
861.256	20050
861.388	20142
861.521	20682
861.653	20115
861.786	20073
861.918	20119
862.05	20210
862.183	20119
862.315	20130
862.447	20271
862.58	20062
862.712	19967
862.844	19982
862.976	19902
863.108	20016
863.24	20202
863.372	19989
863.504	19887
863.636	19932
863.768	19917
863.9	19841
864.032	19868
864.164	19928
864.296	20043
864.428	19947
864.559	20008
864.691	19970
864.823	19871
864.954	20012
865.086	20054
865.217	19909
865.349	19841
865.48	19887
865.612	19818
865.743	19989
865.875	19822
866.006	19845
866.137	19784
866.269	19909
866.4	19753
866.531	19757
866.662	19715
866.793	19811
866.924	19826
867.055	19704
867.186	19883
867.317	19750
867.448	19635
867.579	19860
867.71	19772
867.841	19780
867.972	19818
868.103	19731
868.233	19811
868.364	19909
868.495	19841
868.625	20005
868.756	20096
868.886	19887
869.017	20012
869.147	20183
869.278	20088
869.408	20058
869.539	20024
869.669	20073
869.799	20126
869.929	20149
870.06	20191
870.19	20286
870.32	20320
870.45	20240
870.58	20370
870.71	20560
870.84	20533
870.97	20305
871.1	20408
871.23	20530
871.36	20606
871.489	20568
871.619	20640
871.749	20609
871.879	20762
872.008	20800
872.138	20720
872.267	20648
872.397	20587
872.526	20389
872.656	20419
872.785	20465
872.915	20655
873.044	20735
873.173	20583
873.303	20674
873.432	20705
873.561	20815
873.69	20651
873.819	20686
873.948	20750
874.077	20701
874.206	20640
874.335	20594
874.464	20796
874.593	20918
874.722	20785
874.851	20948
874.979	20861
875.108	21036
875.237	20815
875.365	20910
875.494	20880
875.623	21066
875.751	20842
875.88	20929
876.008	20986
876.136	21165
876.265	21397
876.393	21625
876.521	21378
876.65	21389
876.778	21199
876.906	21268
877.034	21226
877.162	21287
877.29	21214
877.418	21298
877.546	21237
877.674	21344
877.802	21226
877.93	21291
878.058	21211
878.185	21169
878.313	21165
878.441	21192
878.568	21222
878.696	21260
878.824	21203
878.951	21321
879.079	21492
879.206	21485
879.333	21378
879.461	21264
879.588	21473
879.715	21473
879.842	21408
879.97	21439
880.097	21169
880.224	21055
880.351	21108
880.478	21089
880.605	20998
880.732	21017
880.859	21256
880.986	21085
881.112	21100
881.239	20826
881.366	20872
881.493	20804
881.619	20644
881.746	20765
881.872	20743
881.999	20769
882.125	20579
882.252	20651
882.378	20636
882.505	20678
882.631	20377
882.757	20412
882.883	20492
883.01	20347
883.136	20237
883.262	20396
883.388	20221
883.514	20488
883.64	20423
883.766	20168
883.892	20221
884.018	20183
884.143	20328
884.269	20450
884.395	20157
884.52	19989
884.646	20069
884.772	19967
884.897	19963
885.023	20035
885.148	20225
885.274	20202
885.399	20252
885.524	19970
885.65	20046
885.775	19967
885.9	20020
886.025	20084
886.15	20187
886.275	19955
886.4	19883
886.525	19944
886.65	20050
886.775	19818
886.9	20161
887.025	20286
887.149	19906
887.274	19830
887.399	19826
887.523	19841
887.648	19708
887.773	19807
887.897	19894
888.021	19852
888.146	19799
888.27	19811
888.395	19917
888.519	19940
888.643	19837
888.767	19909
888.891	19811
889.015	19643
889.139	19753
889.263	19685
889.387	19814
889.511	19826
889.635	19712
889.759	19693
889.883	19662
890.006	19632
890.13	19712
890.254	19556
890.377	19487
890.501	19430
890.624	19304
890.748	19426
890.871	19381
890.995	19110
891.118	19095
891.241	19198
891.364	19209
891.488	19388
891.611	19289
891.734	19122
891.857	19171
891.98	19282
892.103	19202
892.226	19187
892.349	19251
892.471	18947
892.594	19175
892.717	19259
892.839	19175
892.962	19316
893.085	19171
893.207	19133
893.33	19050
893.452	19126
893.575	19255
893.697	19050
893.819	19339
893.941	19320
894.064	19255
894.186	19118
894.308	18989
894.43	19183
894.552	19244
894.674	19316
894.796	19099
894.918	19232
895.04	19187
895.161	19187
895.283	19137
895.405	19099
895.526	19118
895.648	19152
895.769	19114
895.891	19160
896.012	19221
896.134	19202
896.255	19236
896.376	19126
896.498	19183
896.619	19206
896.74	19168
896.861	19255
896.982	19521
897.103	19662
897.224	19457
897.345	19403
897.466	19400
897.587	19369
897.708	19559
897.828	19495
897.949	19369
898.07	19308
898.19	19396
898.311	19502
898.431	19384
898.552	19407
898.672	19457
898.792	19472
898.913	19354
899.033	19331
899.153	19343
899.273	19133
899.393	19152
899.513	19266
899.633	19187
899.753	19270
899.873	19042
899.993	19156
900.113	19183
900.232	19137
900.352	19175
900.472	18989
900.591	18894
900.711	19050
900.83	18905
900.95	19061
901.069	19061
901.189	18814
901.308	18738
901.427	18601
901.546	18437
901.665	18616
901.784	18623
901.904	18521
902.023	18353
902.141	18186
902.26	18106
902.379	18076
902.498	18011
902.617	17980
902.735	17977
902.854	18117
902.973	18049
903.091	17805
903.21	17775
903.328	17775
903.446	17707
903.565	17714
903.683	17653
903.801	17501
903.919	17524
904.038	17589
904.156	17364
904.274	17433
904.392	17288
904.51	17284
904.627	17322
904.745	17406
904.863	17360
904.981	17200
905.098	17033
905.216	17014
905.334	17025
905.451	17006
905.569	16980
905.686	17010
905.803	16991
905.921	16786
906.038	16949
906.155	16843
906.272	16793
906.389	16668
906.506	16637
906.623	16565
906.74	16565
906.857	16478
906.974	16550
907.091	16675
907.208	16637
907.324	16599
907.441	16440
907.557	16249
907.674	16409
907.79	16246
907.907	16417
908.023	16268
908.139	16322
908.256	16234
908.372	16177
908.488	16143
908.604	16074
908.72	16025
908.836	15983
908.952	16051
909.068	15953
909.184	16181
909.3	16051
909.415	16105
909.531	16025
909.647	15770
909.762	15743
909.878	15644
909.993	15720
910.108	15679
910.224	15667
910.339	15667
910.454	15549
910.57	15618
910.685	15526
910.8	15785
910.915	15808
911.03	15504
911.145	15363
911.259	15435
911.374	15226
911.489	15256
911.604	15226
911.718	15142
911.833	15188
911.947	15009
912.062	15066
912.176	15218
912.291	15176
912.405	15100
912.519	15291
912.633	15336
912.748	15165
912.862	15112
912.976	14910
913.09	14902
913.204	14921
913.318	14883
913.431	14986
913.545	15009
913.659	15093
913.772	14918
913.886	14796
914	14712
914.113	14727
914.226	14804
914.34	14807
914.453	14629
914.566	14800
914.68	14556
914.793	14602
914.906	14473
915.019	14347
915.132	14305
915.245	14332
915.358	14332
915.47	14389
915.583	14377
915.696	14355
915.809	14461
915.921	14503
916.034	14271
916.146	14301
916.259	14225
916.371	14347
916.483	14374
916.595	14180
916.708	14218
916.82	14157
916.932	14149
917.044	14119
917.156	14142
917.268	13989
917.38	14119
917.491	14024
917.603	14081
917.715	14020
917.826	14111
917.938	13951
918.049	13871
918.161	14058
918.272	14058
918.384	14119
918.495	13913
918.606	13860
918.717	13788
918.828	13837
918.939	13811
919.05	13704
919.161	13799
919.272	13670
919.383	13647
919.494	13776
919.604	13898
919.715	13845
919.826	13750
919.936	13742
920.047	13887
920.157	13868
920.267	14039
920.378	13791
920.488	13734
920.598	13993
920.708	14024
920.818	13906
920.928	13917
921.038	14138
921.148	14050
921.258	13723
921.368	13651
921.477	13624
921.587	13529
921.697	13441
921.806	13544
921.916	13521
922.025	13289
922.134	13206
922.244	13175
922.353	13266
922.462	13129
922.571	13069
922.68	12932
922.789	12837
922.898	12833
923.007	12791
923.116	12833
923.224	12928
923.333	12783
923.442	12730
923.55	12654
923.659	12722
923.767	12749
923.876	12703
923.984	12658
924.092	12502
924.201	12677
924.309	12707
924.417	12669
924.525	12612
924.633	12509
924.741	13514
924.849	12445
924.956	12467
925.064	12319
925.172	12304
925.279	12289
925.387	12399
925.494	12296
925.602	12464
925.709	12350
925.816	12224
925.924	12319
926.031	12391
926.138	12319
926.245	12319
926.352	12239
926.459	12319
926.566	12388
926.673	12216
926.779	12167
926.886	12083
926.993	11935
927.099	11863
927.206	11874
927.312	11802
927.419	11996
927.525	11961
927.631	11946
927.737	11878
927.843	11859
927.95	11680
928.056	11733
928.162	11832
928.267	11855
928.373	12380
928.479	11859
928.585	11649
928.69	11745
928.796	11756
928.901	11589
929.007	11490
929.112	11707
929.218	11608
929.323	11547
929.428	11535
929.533	11661
929.638	11474
929.743	11330
929.848	11463
929.953	11482
930.058	11444
930.163	11155
930.267	11318
930.372	11330
930.477	11170
930.581	11368
930.685	11258
930.79	11147
930.894	11109
930.998	11060
931.103	11261
931.207	10885
931.311	10774
931.415	10687
931.519	10512
931.623	10485
