Data from test_V78500241_2566.txt Node
Date: Fri Mar 25 15:27:43 CST 2022
User: usil
Spectrometer: V785-0024
Trigger mode: 0
Integration Time (sec): 4.000000E-1
Scans to average: 1
Nonlinearity correction enabled: false
Boxcar width: 0
Storing dark spectrum: false
XAxis mode: Wavelengths
Number of Pixels in Spectrum: 1024
>>>>>Begin Spectral Data<<<<<
801.071	27321
801.214	27245
801.356	26986
801.499	26940
801.641	26895
801.783	26918
801.926	26868
802.068	26864
802.211	26792
802.353	26754
802.496	26594
802.638	26564
802.78	26473
802.923	26488
803.065	26343
803.208	26568
803.35	26579
803.492	26659
803.635	26674
803.777	26621
803.919	26689
804.061	26960
804.204	26659
804.346	26697
804.488	26788
804.63	26651
804.773	26530
804.915	26686
805.057	26674
805.199	26526
805.341	26686
805.483	26739
805.626	26792
805.768	26644
805.91	26727
806.052	26716
806.194	26686
806.336	26967
806.478	26640
806.62	26876
806.762	26902
806.904	27093
807.046	27420
807.188	27146
807.33	27214
807.472	27192
807.614	27051
807.756	27199
807.898	26994
808.04	26910
808.182	27036
808.324	26975
808.465	27100
808.607	27211
808.749	27427
808.891	27450
809.033	27477
809.174	27382
809.316	27367
809.458	27515
809.6	27435
809.741	27306
809.883	27629
810.025	27686
810.166	27751
810.308	27656
810.45	27644
810.591	27599
810.733	27427
810.875	27386
811.016	27249
811.158	27268
811.299	27427
811.441	27545
811.582	27667
811.724	27291
811.865	27252
812.007	27268
812.148	27363
812.29	27408
812.431	27553
812.573	27709
812.714	27732
812.855	27884
812.997	27941
813.138	27918
813.279	28067
813.421	27922
813.562	27770
813.703	27660
813.845	27447
813.986	27382
814.127	27108
814.268	27043
814.41	27150
814.551	27032
814.692	27161
814.833	27043
814.974	26944
815.115	27001
815.256	26876
815.397	26956
815.539	26929
815.68	26868
815.821	26705
815.962	26830
816.103	26781
816.244	26659
816.385	26545
816.526	26499
816.666	26298
816.807	26320
816.948	26320
817.089	26461
817.23	26275
817.371	26286
817.512	26309
817.653	26263
817.793	26153
817.934	26248
818.075	26278
818.216	26355
818.356	26195
818.497	26031
818.638	25936
818.778	26020
818.919	25951
819.06	26081
819.2	26187
819.341	26237
819.481	26366
819.622	26442
819.762	26579
819.903	26492
820.043	26453
820.184	26396
820.324	26370
820.465	26530
820.605	26393
820.746	26408
820.886	26328
821.026	26389
821.167	26233
821.307	26438
821.447	26305
821.588	26244
821.728	26119
821.868	25879
822.008	25871
822.149	25845
822.289	25738
822.429	25502
822.569	25430
822.709	25601
822.849	25285
822.99	25362
823.13	25206
823.27	25301
823.41	25072
823.55	24954
823.69	25194
823.83	25160
823.97	25034
824.11	24970
824.25	24833
824.389	24817
824.529	24939
824.669	24981
824.809	25152
824.949	25042
825.089	25069
825.228	24981
825.368	24749
825.508	24684
825.648	24852
825.787	24703
825.927	24966
826.067	24810
826.206	24776
826.346	24901
826.485	24871
826.625	24821
826.765	24791
826.904	24776
827.044	24585
827.183	24631
827.323	24566
827.462	24525
827.601	24540
827.741	24627
827.88	24559
828.02	24403
828.159	24486
828.298	24578
828.437	24555
828.577	24494
828.716	24521
828.855	24391
828.994	24205
829.134	24190
829.273	24289
829.412	24266
829.551	24117
829.69	24178
829.829	24174
829.968	24300
830.107	24239
830.246	24144
830.385	24292
830.524	24106
830.663	24095
830.802	24072
830.941	24026
831.08	23832
831.219	23783
831.357	23882
831.496	24095
831.635	23836
831.774	23779
831.913	23726
832.051	23604
832.19	23562
832.329	23539
832.467	23531
832.606	23589
832.744	23505
832.883	23463
833.022	23455
833.16	23615
833.299	23509
833.437	23592
833.576	23608
833.714	23619
833.852	23608
833.991	23615
834.129	23718
834.267	23718
834.406	23790
834.544	23611
834.682	23554
834.821	23695
834.959	23779
835.097	23501
835.235	23726
835.373	23570
835.511	23596
835.65	23551
835.788	23623
835.926	23242
836.064	23280
836.202	23269
836.34	23417
836.478	23551
836.615	23376
836.753	23463
836.891	23497
837.029	23414
837.167	23315
837.305	23265
837.443	23326
837.58	23200
837.718	23440
837.856	23337
837.993	23261
838.131	23258
838.269	23166
838.406	23280
838.544	23200
838.681	22934
838.819	22881
838.956	22687
839.094	22885
839.231	22809
839.369	22976
839.506	23064
839.643	22980
839.781	22790
839.918	22706
840.055	22706
840.193	22759
840.33	22767
840.467	22649
840.604	22729
840.742	22980
840.879	22615
841.016	22675
841.153	22504
841.29	22778
841.427	22691
841.564	22767
841.701	22759
841.838	22653
841.975	22675
842.112	22637
842.249	22626
842.385	22512
842.522	22721
842.659	22577
842.796	22535
842.933	22344
843.069	22462
843.206	22455
843.343	22519
843.479	22409
843.616	22455
843.752	22211
843.889	22185
844.025	22367
844.162	22325
844.298	22238
844.435	22318
844.571	22242
844.708	22207
844.844	22409
844.98	22348
845.117	22341
845.253	22200
845.389	22192
845.525	22211
845.661	22230
845.798	21873
845.934	21979
846.07	21899
846.206	22036
846.342	22166
846.478	22021
846.614	21778
846.75	21606
846.886	21610
847.022	21770
847.158	21610
847.294	21785
847.429	21861
847.565	21778
847.701	21987
847.837	21447
847.972	21549
848.108	21500
848.244	21515
848.379	21313
848.515	21374
848.65	21310
848.786	21370
848.921	21298
849.057	21435
849.192	21378
849.328	21249
849.463	21252
849.598	21230
849.734	21211
849.869	21157
850.004	21020
850.14	21157
850.275	21043
850.41	20967
850.545	20982
850.68	21169
850.815	21077
850.95	20994
851.085	21108
851.22	21180
851.355	21131
851.49	21154
851.625	21020
851.76	21173
851.895	20899
852.03	20941
852.165	21100
852.299	21131
852.434	21150
852.569	21157
852.703	21032
852.838	21157
852.973	21237
853.107	21226
853.242	21024
853.376	20956
853.511	20785
853.645	20887
853.78	21005
853.914	20868
854.048	20929
854.183	20902
854.317	20933
854.451	21070
854.585	20902
854.72	20899
854.854	21066
854.988	20731
855.122	20982
855.256	20758
855.39	20941
855.524	20906
855.658	20925
855.792	20842
855.926	20891
856.06	20899
856.194	20994
856.327	20910
856.461	20743
856.595	20941
856.729	20902
856.862	20971
856.996	20899
857.13	20986
857.263	20975
857.397	20845
857.53	20914
857.664	20925
857.797	20971
857.931	20941
858.064	20952
858.197	20975
858.331	20910
858.464	20941
858.597	20868
858.731	20853
858.864	20792
858.997	20872
859.13	20887
859.263	20952
859.396	21058
859.529	20842
859.662	20933
859.795	20861
859.928	20872
860.061	20986
860.194	21024
860.327	21070
860.46	20838
860.592	21028
860.725	20967
860.858	20967
860.99	20864
861.123	20811
861.256	20735
861.388	20868
861.521	21553
861.653	20716
861.786	20655
861.918	20727
862.05	20804
862.183	20716
862.315	20830
862.447	20941
862.58	20731
862.712	20731
862.844	20621
862.976	20701
863.108	20701
863.24	20998
863.372	20552
863.504	20537
863.636	20480
863.768	20636
863.9	20659
864.032	20579
864.164	20556
864.296	20590
864.428	20708
864.559	20625
864.691	20651
864.823	20598
864.954	20587
865.086	20617
865.217	20457
865.349	20511
865.48	20530
865.612	20476
865.743	20655
865.875	20568
866.006	20507
866.137	20571
866.269	20530
866.4	20568
866.531	20511
866.662	20518
866.793	20488
866.924	20503
867.055	20427
867.186	20514
867.317	20400
867.448	20351
867.579	20320
867.71	20317
867.841	20290
867.972	20446
868.103	20568
868.233	20450
868.364	20427
868.495	20644
868.625	20602
868.756	20796
868.886	20606
869.017	20720
869.147	20769
869.278	20689
869.408	20731
869.539	20678
869.669	20842
869.799	20758
869.929	20727
870.06	20689
870.19	20982
870.32	20990
870.45	21062
870.58	21036
870.71	21100
870.84	21188
870.97	21089
871.1	21070
871.23	21207
871.36	21272
871.489	21230
871.619	21252
871.749	21344
871.879	21298
872.008	21462
872.138	21291
872.267	21226
872.397	21135
872.526	21116
872.656	21249
872.785	21142
872.915	21226
873.044	21420
873.173	21367
873.303	21329
873.432	21439
873.561	21443
873.69	21199
873.819	21264
873.948	21412
874.077	21431
874.206	21237
874.335	21291
874.464	21370
874.593	21507
874.722	21610
874.851	21454
874.979	21587
875.108	21606
875.237	21561
875.365	21641
875.494	21462
875.623	21694
875.751	21511
875.88	21595
876.008	21774
876.136	21781
876.265	21899
876.393	22070
876.521	22032
876.65	21918
876.778	22040
876.906	21865
877.034	21857
877.162	21960
877.29	21850
877.418	21937
877.546	21861
877.674	21915
877.802	22021
877.93	21865
878.058	21911
878.185	21778
878.313	21842
878.441	21911
878.568	21580
878.696	21884
878.824	21819
878.951	21945
879.079	22166
879.206	22044
879.333	22040
879.461	21930
879.588	22078
879.715	22044
879.842	22169
879.97	21964
880.097	21736
880.224	21720
880.351	21709
880.478	21660
880.605	21793
880.732	21667
880.859	21998
880.986	21895
881.112	21755
881.239	21637
881.366	21481
881.493	21450
881.619	21336
881.746	21348
881.872	21306
881.999	21302
882.125	21207
882.252	21272
882.378	21211
882.505	21389
882.631	21184
882.757	21028
882.883	21058
883.01	21005
883.136	21017
883.262	20963
883.388	20868
883.514	20883
883.64	21039
883.766	20979
883.892	20910
884.018	20823
884.143	20902
884.269	20979
884.395	20663
884.52	20629
884.646	20617
884.772	20727
884.897	20454
885.023	20648
885.148	20750
885.274	20670
885.399	20800
885.524	20838
885.65	20773
885.775	20689
885.9	20659
886.025	20693
886.15	20724
886.275	20613
886.4	20537
886.525	20583
886.65	20480
886.775	20541
886.9	20765
887.025	20849
887.149	20537
887.274	20419
887.399	20404
887.523	20461
887.648	20393
887.773	20358
887.897	20488
888.021	20549
888.146	20332
888.27	20457
888.395	20461
888.519	20457
888.643	20415
888.767	20526
888.891	20366
889.015	20248
889.139	20278
889.263	20218
889.387	20431
889.511	20484
889.635	20374
889.759	20221
889.883	20259
890.006	20278
890.13	20183
890.254	20164
890.377	20122
890.501	20077
890.624	19951
890.748	19940
890.871	19940
890.995	19856
891.118	19765
891.241	19868
891.364	19807
891.488	19925
891.611	19826
891.734	19826
891.857	19818
891.98	19868
892.103	19883
892.226	19871
892.349	19780
892.471	19578
892.594	19689
892.717	19791
892.839	19655
892.962	19871
893.085	19803
893.207	19689
893.33	19704
893.452	19712
893.575	19753
893.697	19693
893.819	19947
893.941	19944
894.064	19811
894.186	19700
894.308	19601
894.43	19750
894.552	19909
894.674	19849
894.796	19594
894.918	19708
895.04	19666
895.161	19864
895.283	19670
895.405	19556
895.526	19715
895.648	19704
895.769	19723
895.891	19833
896.012	19826
896.134	19700
896.255	19704
896.376	19769
896.498	19708
896.619	19803
896.74	19704
896.861	19807
896.982	20164
897.103	20149
897.224	20001
897.345	19898
897.466	19879
897.587	19909
897.708	20088
897.828	19959
897.949	19769
898.07	19799
898.19	19871
898.311	19932
898.431	19913
898.552	19967
898.672	19955
898.792	20069
898.913	19868
899.033	19761
899.153	19791
899.273	19681
899.393	19708
899.513	19784
899.633	19689
899.753	19647
899.873	19662
899.993	19597
900.113	19506
900.232	19696
900.352	19609
900.472	19567
900.591	19403
900.711	19514
900.83	19377
900.95	19499
901.069	19491
901.189	19434
901.308	19179
901.427	19000
901.546	19187
901.665	19095
901.784	19122
901.904	18920
902.023	18840
902.141	18681
902.26	18521
902.379	18597
902.498	18677
902.617	18544
902.735	18608
902.854	18593
902.973	18471
903.091	18327
903.21	18243
903.328	18232
903.446	18163
903.565	18068
903.683	18174
903.801	17996
903.919	18159
904.038	17950
904.156	17779
904.274	17912
904.392	17786
904.51	17741
904.627	17908
904.745	17866
904.863	17855
904.981	17615
905.098	17493
905.216	17353
905.334	17608
905.451	17558
905.569	17436
905.686	17478
905.803	17471
905.921	17299
906.038	17421
906.155	17269
906.272	17265
906.389	17223
906.506	17060
906.623	17025
906.74	16984
906.857	16873
906.974	17052
907.091	17166
907.208	17181
907.324	17064
907.441	16831
907.557	16854
907.674	16748
907.79	16702
907.907	16706
908.023	16744
908.139	16683
908.256	16752
908.372	16706
908.488	16634
908.604	16516
908.72	16542
908.836	16523
908.952	16481
909.068	16580
909.184	16531
909.3	16451
909.415	16561
909.531	16508
909.647	16287
909.762	16169
909.878	16207
909.993	16204
910.108	16185
910.224	16215
910.339	16223
910.454	16013
910.57	16051
910.685	16032
910.8	16230
910.915	16162
911.03	16032
911.145	15793
911.259	15812
911.374	15975
911.489	15682
911.604	15625
911.718	15606
911.833	15595
911.947	15591
912.062	15488
912.176	15686
912.291	15652
912.405	15637
912.519	15823
912.633	15876
912.748	15557
912.862	15530
912.976	15359
913.09	15268
913.204	15329
913.318	15336
913.431	15408
913.545	15439
913.659	15447
913.772	15283
913.886	15146
914	15184
914.113	15245
914.226	15306
914.34	15279
914.453	15043
914.566	15252
914.68	15024
914.793	15036
914.906	14872
915.019	14785
915.132	14716
915.245	14819
915.358	14849
915.47	14880
915.583	14785
915.696	14689
915.809	14929
915.921	14857
916.034	14739
916.146	14689
916.259	14686
916.371	14834
916.483	14788
916.595	14629
916.708	14682
916.82	14686
916.932	14556
917.044	14488
917.156	14583
917.268	14533
917.38	14511
917.491	14419
917.603	14461
917.715	14571
917.826	14503
917.938	14389
918.049	14305
918.161	14393
918.272	14511
918.384	14568
918.495	14480
918.606	14256
918.717	14240
918.828	14298
918.939	14271
919.05	14126
919.161	14221
919.272	14005
919.383	14161
919.494	14206
919.604	14374
919.715	14168
919.826	14149
919.936	14199
920.047	14256
920.157	14233
920.267	14358
920.378	14157
920.488	14138
920.598	14298
920.708	14412
920.818	14301
920.928	14370
921.038	14499
921.148	14431
921.258	14153
921.368	14092
921.477	13917
921.587	13944
921.697	13871
921.806	13879
921.916	13799
922.025	13662
922.134	13609
922.244	13559
922.353	13616
922.462	13457
922.571	13514
922.68	13289
922.789	13175
922.898	13187
923.007	13206
923.116	13244
923.224	13225
923.333	13194
923.442	13145
923.55	13027
923.659	13088
923.767	13152
923.876	13019
923.984	13069
924.092	12958
924.201	13008
924.309	12973
924.417	13088
924.525	12913
924.633	12890
924.741	13837
924.849	12734
924.956	12890
925.064	12681
925.172	12608
925.279	12662
925.387	12692
925.494	12681
925.602	12768
925.709	12673
925.816	12509
925.924	12654
926.031	12677
926.138	12570
926.245	12650
926.352	12509
926.459	12604
926.566	12722
926.673	12585
926.779	12437
926.886	12452
926.993	12254
927.099	12239
927.206	12083
927.312	12159
927.419	12292
927.525	12232
927.631	12315
927.737	12121
927.843	12007
927.95	11996
928.056	12106
928.162	12091
928.267	12068
928.373	12623
928.479	12163
928.585	11897
928.69	12057
928.796	11965
928.901	12041
929.007	11863
929.112	11977
929.218	12026
929.323	11824
929.428	11809
929.533	11977
929.638	11676
929.743	11786
929.848	11798
929.953	11688
930.058	11653
930.163	11471
930.267	11554
930.372	11619
930.477	11490
930.581	11657
930.685	11604
930.79	11368
930.894	11349
930.998	11379
931.103	11486
931.207	11223
931.311	11022
931.415	10957
931.519	10763
931.623	10698
