Data from test_V78500241_2538.txt Node
Date: Fri Mar 25 15:27:31 CST 2022
User: usil
Spectrometer: V785-0024
Trigger mode: 0
Integration Time (sec): 4.000000E-1
Scans to average: 1
Nonlinearity correction enabled: false
Boxcar width: 0
Storing dark spectrum: false
XAxis mode: Wavelengths
Number of Pixels in Spectrum: 1024
>>>>>Begin Spectral Data<<<<<
801.071	27096
801.214	26948
801.356	26933
801.499	26640
801.641	26826
801.783	26674
801.926	26785
802.068	26667
802.211	26648
802.353	26667
802.496	26332
802.638	26240
802.78	26320
802.923	26240
803.065	26187
803.208	26191
803.35	26347
803.492	26396
803.635	26438
803.777	26336
803.919	26575
804.061	26811
804.204	26549
804.346	26267
804.488	26309
804.63	26465
804.773	26427
804.915	26476
805.057	26568
805.199	26396
805.341	26476
805.483	26533
805.626	26560
805.768	26564
805.91	26587
806.052	26724
806.194	26522
806.336	26674
806.478	26590
806.62	26667
806.762	26777
806.904	26807
807.046	27066
807.188	27036
807.33	27070
807.472	27028
807.614	26986
807.756	26933
807.898	26792
808.04	26826
808.182	26902
808.324	27017
808.465	26811
808.607	26967
808.749	27146
808.891	27241
809.033	27359
809.174	27313
809.316	27211
809.458	27237
809.6	27096
809.741	27245
809.883	27291
810.025	27363
810.166	27386
810.308	27504
810.45	27416
810.591	27504
810.733	27374
810.875	27169
811.016	27005
811.158	27157
811.299	27268
811.441	27298
811.582	27336
811.724	27279
811.865	27161
812.007	27055
812.148	27214
812.29	27173
812.431	27348
812.573	27340
812.714	27538
812.855	27629
812.997	27869
813.138	27850
813.279	27762
813.421	27679
813.562	27549
813.703	27454
813.845	27367
813.986	27066
814.127	26979
814.268	26792
814.41	26883
814.551	26906
814.692	26720
814.833	26678
814.974	26754
815.115	26773
815.256	26754
815.397	26868
815.539	26625
815.68	26674
815.821	26492
815.962	26602
816.103	26609
816.244	26488
816.385	26381
816.526	26374
816.666	26263
816.807	26054
816.948	26145
817.089	26183
817.23	26077
817.371	26130
817.512	26046
817.653	26122
817.793	26046
817.934	26024
818.075	26092
818.216	25993
818.356	26069
818.497	26039
818.638	25803
818.778	25951
818.919	25833
819.06	26046
819.2	25864
819.341	26126
819.481	26107
819.622	26286
819.762	26313
819.903	26278
820.043	26237
820.184	26172
820.324	26252
820.465	26275
820.605	26183
820.746	26138
820.886	25928
821.026	26176
821.167	26187
821.307	26210
821.447	26012
821.588	26027
821.728	25986
821.868	25693
822.008	25556
822.149	25628
822.289	25445
822.429	25297
822.569	25232
822.709	25289
822.849	25031
822.99	25240
823.13	25053
823.27	25008
823.41	24894
823.55	24795
823.69	24875
823.83	24890
823.97	24764
824.11	24760
824.25	24703
824.389	24783
824.529	24821
824.669	24627
824.809	24962
824.949	24894
825.089	24684
825.228	24604
825.368	24525
825.508	24635
825.648	24494
825.787	24623
825.927	24650
826.067	24582
826.206	24601
826.346	24696
826.485	24711
826.625	24547
826.765	24639
826.904	24593
827.044	24304
827.183	24372
827.323	24262
827.462	24361
827.601	24445
827.741	24311
827.88	24380
828.02	24083
828.159	24194
828.298	24350
828.437	24372
828.577	24327
828.716	24319
828.855	24171
828.994	23977
829.134	23954
829.273	24087
829.412	23920
829.551	23984
829.69	23958
829.829	24041
829.968	23954
830.107	24136
830.246	23904
830.385	23954
830.524	23927
830.663	23790
830.802	23790
830.941	23615
831.08	23634
831.219	23786
831.357	23756
831.496	23756
831.635	23570
831.774	23501
831.913	23539
832.051	23444
832.19	23429
832.329	23360
832.467	23307
832.606	23372
832.744	23185
832.883	23318
833.022	23242
833.16	23330
833.299	23296
833.437	23334
833.576	23387
833.714	23349
833.852	23512
833.991	23501
834.129	23436
834.267	23334
834.406	23429
834.544	23448
834.682	23337
834.821	23235
834.959	23528
835.097	23322
835.235	23486
835.373	23448
835.511	23364
835.65	23216
835.788	23334
835.926	23117
836.064	23060
836.202	23067
836.34	23185
836.478	23265
836.615	23212
836.753	23162
836.891	23265
837.029	23220
837.167	23136
837.305	23200
837.443	23086
837.58	23071
837.718	23200
837.856	23037
837.993	23102
838.131	23189
838.269	23044
838.406	22892
838.544	22927
838.681	22755
838.819	22622
838.956	22596
839.094	22561
839.231	22687
839.369	22710
839.506	22991
839.643	22858
839.781	22607
839.918	22516
840.055	22527
840.193	22512
840.33	22580
840.467	22489
840.604	22569
840.742	22839
840.879	22443
841.016	22527
841.153	22303
841.29	22660
841.427	22386
841.564	22569
841.701	22485
841.838	22405
841.975	22379
842.112	22538
842.249	22284
842.385	22367
842.522	22489
842.659	22379
842.796	22253
842.933	22325
843.069	22261
843.206	22287
843.343	22226
843.479	22200
843.616	22287
843.752	22051
843.889	22074
844.025	22124
844.162	22070
844.298	22059
844.435	22036
844.571	21888
844.708	22032
844.844	22242
844.98	22215
845.117	22074
845.253	21983
845.389	21934
845.525	21857
845.661	21907
845.798	21850
845.934	21873
846.07	21644
846.206	21831
846.342	21850
846.478	21778
846.614	21549
846.75	21488
846.886	21443
847.022	21599
847.158	21564
847.294	21644
847.429	21652
847.565	21424
847.701	21660
847.837	21351
847.972	21226
848.108	21222
848.244	21329
848.379	21218
848.515	21036
848.65	21017
848.786	21146
848.921	21047
849.057	21218
849.192	21169
849.328	21116
849.463	21051
849.598	21047
849.734	21032
849.869	20864
850.004	20849
850.14	20899
850.275	20880
850.41	20864
850.545	20765
850.68	20838
850.815	20868
850.95	20819
851.085	21051
851.22	20910
851.355	21005
851.49	20830
851.625	20853
851.76	20906
851.895	20899
852.03	20781
852.165	20902
852.299	20933
852.434	20914
852.569	20937
852.703	20925
852.838	20914
852.973	20975
853.107	20933
853.242	20819
853.376	20754
853.511	20598
853.645	20731
853.78	20754
853.914	20651
854.048	20739
854.183	20568
854.317	20815
854.451	20918
854.585	20636
854.72	20686
854.854	20727
854.988	20720
855.122	20716
855.256	20667
855.39	20670
855.524	20693
855.658	20762
855.792	20667
855.926	20724
856.06	20842
856.194	20804
856.327	20758
856.461	20598
856.595	20606
856.729	20720
856.862	20811
856.996	20739
857.13	20777
857.263	20651
857.397	20781
857.53	20697
857.664	20785
857.797	20883
857.931	20826
858.064	20720
858.197	20762
858.331	20705
858.464	20674
858.597	20564
858.731	20701
858.864	20693
858.997	20549
859.13	20705
859.263	20629
859.396	20849
859.529	20648
859.662	20579
859.795	20575
859.928	20788
860.061	20891
860.194	20861
860.327	20613
860.46	20636
860.592	20864
860.725	20864
860.858	20758
860.99	20762
861.123	20651
861.256	20560
861.388	20773
861.521	21462
861.653	20594
861.786	20587
861.918	20507
862.05	20434
862.183	20667
862.315	20625
862.447	20796
862.58	20621
862.712	20389
862.844	20301
862.976	20476
863.108	20423
863.24	20899
863.372	20366
863.504	20511
863.636	20450
863.768	20381
863.9	20571
864.032	20343
864.164	20351
864.296	20476
864.428	20541
864.559	20499
864.691	20457
864.823	20488
864.954	20389
865.086	20442
865.217	20374
865.349	20244
865.48	20328
865.612	20305
865.743	20419
865.875	20298
866.006	20328
866.137	20339
866.269	20358
866.4	20328
866.531	20225
866.662	20214
866.793	20278
866.924	20286
867.055	20256
867.186	20259
867.317	20263
867.448	20119
867.579	20172
867.71	20298
867.841	20240
867.972	20358
868.103	20278
868.233	20191
868.364	20313
868.495	20442
868.625	20533
868.756	20613
868.886	20412
869.017	20408
869.147	20629
869.278	20598
869.408	20568
869.539	20427
869.669	20594
869.799	20484
869.929	20568
870.06	20625
870.19	20777
870.32	20724
870.45	20781
870.58	20895
870.71	20963
870.84	20941
870.97	20861
871.1	20929
871.23	21104
871.36	21123
871.489	20952
871.619	21142
871.749	21047
871.879	21146
872.008	21180
872.138	21268
872.267	21066
872.397	20948
872.526	20990
872.656	21047
872.785	20956
872.915	21154
873.044	21249
873.173	21108
873.303	21138
873.432	21146
873.561	21260
873.69	21138
873.819	21055
873.948	21245
874.077	21188
874.206	21131
874.335	21116
874.464	21260
874.593	21507
874.722	21386
874.851	21420
874.979	21283
875.108	21530
875.237	21302
875.365	21279
875.494	21310
875.623	21389
875.751	21367
875.88	21382
876.008	21511
876.136	21564
876.265	21755
876.393	21972
876.521	21823
876.65	21819
876.778	21812
876.906	21781
877.034	21793
877.162	21694
877.29	21595
877.418	21717
877.546	21728
877.674	21614
877.802	21724
877.93	21637
878.058	21690
878.185	21641
878.313	21819
878.441	21774
878.568	21504
878.696	21633
878.824	21720
878.951	21922
879.079	21922
879.206	22109
879.333	21953
879.461	21743
879.588	21941
879.715	21930
879.842	22074
879.97	21747
880.097	21583
880.224	21496
880.351	21545
880.478	21534
880.605	21568
880.732	21488
880.859	21808
880.986	21675
881.112	21587
881.239	21545
881.366	21344
881.493	21150
881.619	21123
881.746	21161
881.872	21085
881.999	21096
882.125	21138
882.252	21222
882.378	21214
882.505	21237
882.631	20960
882.757	20785
882.883	21020
883.01	20872
883.136	20834
883.262	20705
883.388	20716
883.514	21070
883.64	20758
883.766	20834
883.892	20606
884.018	20648
884.143	20819
884.269	20868
884.395	20644
884.52	20488
884.646	20541
884.772	20396
884.897	20434
885.023	20522
885.148	20625
885.274	20693
885.399	20511
885.524	20336
885.65	20594
885.775	20488
885.9	20492
886.025	20526
886.15	20495
886.275	20454
886.4	20366
886.525	20347
886.65	20446
886.775	20438
886.9	20579
887.025	20670
887.149	20393
887.274	20415
887.399	20134
887.523	20202
887.648	20229
887.773	20145
887.897	20233
888.021	20298
888.146	20210
888.27	20358
888.395	20305
888.519	20301
888.643	20240
888.767	20237
888.891	20191
889.015	20081
889.139	20161
889.263	20103
889.387	20183
889.511	20225
889.635	20153
889.759	20024
889.883	19997
890.006	20088
890.13	20218
890.254	19959
890.377	19967
890.501	19822
890.624	19746
890.748	19799
890.871	19746
890.995	19529
891.118	19575
891.241	19662
891.364	19559
891.488	19613
891.611	19731
891.734	19693
891.857	19635
891.98	19689
892.103	19746
892.226	19662
892.349	19597
892.471	19468
892.594	19601
892.717	19529
892.839	19544
892.962	19567
893.085	19624
893.207	19537
893.33	19422
893.452	19445
893.575	19609
893.697	19464
893.819	19715
893.941	19845
894.064	19776
894.186	19438
894.308	19552
894.43	19620
894.552	19670
894.674	19651
894.796	19483
894.918	19559
895.04	19575
895.161	19651
895.283	19567
895.405	19525
895.526	19529
895.648	19518
895.769	19643
895.891	19464
896.012	19723
896.134	19662
896.255	19715
896.376	19559
896.498	19537
896.619	19597
896.74	19544
896.861	19544
896.982	19852
897.103	20008
897.224	19814
897.345	19795
897.466	19670
897.587	19868
897.708	19814
897.828	19826
897.949	19753
898.07	19632
898.19	19856
898.311	19849
898.431	19655
898.552	19788
898.672	19860
898.792	19860
898.913	19913
899.033	19689
899.153	19613
899.273	19518
899.393	19590
899.513	19643
899.633	19563
899.753	19563
899.873	19449
899.993	19518
900.113	19480
900.232	19510
900.352	19533
900.472	19403
900.591	19335
900.711	19346
900.83	19255
900.95	19327
901.069	19422
901.189	19194
901.308	18954
901.427	18966
901.546	18844
901.665	18875
901.784	18760
901.904	18802
902.023	18639
902.141	18544
902.26	18426
902.379	18544
902.498	18391
902.617	18334
902.735	18566
902.854	18410
902.973	18319
903.091	18239
903.21	18171
903.328	18106
903.446	17973
903.565	17889
903.683	17996
903.801	17851
903.919	17954
904.038	17855
904.156	17760
904.274	17699
904.392	17752
904.51	17687
904.627	17676
904.745	17722
904.863	17756
904.981	17467
905.098	17471
905.216	17318
905.334	17345
905.451	17360
905.569	17349
905.686	17433
905.803	17410
905.921	17136
906.038	17364
906.155	17185
906.272	17010
906.389	17079
906.506	16972
906.623	16911
906.74	16946
906.857	16831
906.974	16839
907.091	17056
907.208	17060
907.324	16927
907.441	16824
907.557	16729
907.674	16653
907.79	16637
907.907	16584
908.023	16634
908.139	16626
908.256	16660
908.372	16592
908.488	16440
908.604	16402
908.72	16352
908.836	16367
908.952	16371
909.068	16413
909.184	16489
909.3	16306
909.415	16371
909.531	16421
909.647	16124
909.762	16093
909.878	16002
909.993	16090
910.108	16032
910.224	15998
910.339	16051
910.454	15930
910.57	15854
910.685	15789
910.8	16086
910.915	15975
911.03	15835
911.145	15797
911.259	15701
911.374	15720
911.489	15561
911.604	15580
911.718	15431
911.833	15370
911.947	15393
912.062	15226
912.176	15515
912.291	15523
912.405	15534
912.519	15633
912.633	15686
912.748	15439
912.862	15386
912.976	15325
913.09	15066
913.204	15165
913.318	15249
913.431	15374
913.545	15424
913.659	15287
913.772	15199
913.886	15157
914	15119
914.113	15199
914.226	15146
914.34	15081
914.453	14956
914.566	15222
914.68	14925
914.793	14944
914.906	14762
915.019	14773
915.132	14674
915.245	14697
915.358	14765
915.47	14800
915.583	14705
915.696	14781
915.809	14842
915.921	14746
916.034	14651
916.146	14640
916.259	14484
916.371	14651
916.483	14674
916.595	14587
916.708	14511
916.82	14476
916.932	14457
917.044	14473
917.156	14492
917.268	14328
917.38	14347
917.491	14400
917.603	14366
917.715	14347
917.826	14419
917.938	14263
918.049	14259
918.161	14263
918.272	14423
918.384	14400
918.495	14259
918.606	14107
918.717	14020
918.828	14176
918.939	14107
919.05	14126
919.161	14046
919.272	13909
919.383	13970
919.494	14107
919.604	14404
919.715	14126
919.826	13944
919.936	14130
920.047	14225
920.157	14164
920.267	14282
920.378	14058
920.488	14005
920.598	14248
920.708	14347
920.818	14233
920.928	14168
921.038	14324
921.148	14301
921.258	14008
921.368	13856
921.477	13712
921.587	13780
921.697	13719
921.806	13807
921.916	13700
922.025	13575
922.134	13476
922.244	13540
922.353	13495
922.462	13339
922.571	13316
922.68	13183
922.789	13122
922.898	13065
923.007	13023
923.116	13171
923.224	13175
923.333	13164
923.442	13080
923.55	13000
923.659	13012
923.767	13015
923.876	12939
923.984	13061
924.092	12825
924.201	12935
924.309	12878
924.417	12852
924.525	12681
924.633	12932
924.741	13780
924.849	12551
924.956	12768
925.064	12623
925.172	12513
925.279	12540
925.387	12665
925.494	12540
925.602	12722
925.709	12658
925.816	12467
925.924	12490
926.031	12574
926.138	12490
926.245	12494
926.352	12452
926.459	12593
926.566	12475
926.673	12426
926.779	12448
926.886	12311
926.993	12197
927.099	12129
927.206	12030
927.312	12079
927.419	12270
927.525	12102
927.631	12152
927.737	12106
927.843	12022
927.95	11821
928.056	11961
928.162	11965
928.267	11988
928.373	12635
928.479	12045
928.585	11809
928.69	11961
928.796	11999
928.901	11809
929.007	11676
929.112	11756
929.218	11817
929.323	11729
929.428	11619
929.533	11836
929.638	11668
929.743	11756
929.848	11733
929.953	11775
930.058	11543
930.163	11455
930.267	11414
930.372	11642
930.477	11417
930.581	11600
930.685	11474
930.79	11303
930.894	11326
930.998	11201
931.103	11402
931.207	11052
931.311	10980
931.415	10927
931.519	10653
931.623	10706
