Data from test_V78500241_196.txt Node
Date: Fri Mar 25 15:11:13 CST 2022
User: usil
Spectrometer: V785-0024
Trigger mode: 0
Integration Time (sec): 4.000000E-1
Scans to average: 1
Nonlinearity correction enabled: false
Boxcar width: 0
Storing dark spectrum: false
XAxis mode: Wavelengths
Number of Pixels in Spectrum: 1024
>>>>>Begin Spectral Data<<<<<
801.071	28006
801.214	27991
801.356	27892
801.499	27774
801.641	27667
801.783	27629
801.926	27675
802.068	27488
802.211	27477
802.353	27386
802.496	27355
802.638	27367
802.78	27367
802.923	27161
803.065	27039
803.208	27085
803.35	27150
803.492	27241
803.635	27401
803.777	27165
803.919	27389
804.061	27705
804.204	27450
804.346	27294
804.488	27348
804.63	27237
804.773	27233
804.915	27218
805.057	27264
805.199	27332
805.341	27199
805.483	27431
805.626	27443
805.768	27359
805.91	27439
806.052	27549
806.194	27534
806.336	27576
806.478	27329
806.62	27340
806.762	27507
806.904	27652
807.046	27835
807.188	27732
807.33	27736
807.472	27686
807.614	27587
807.756	27648
807.898	27663
808.04	27420
808.182	27542
808.324	27580
808.465	27633
808.607	27888
808.749	28044
808.891	27918
809.033	28051
809.174	28044
809.316	28067
809.458	28086
809.6	28010
809.741	28006
809.883	27884
810.025	28173
810.166	28150
810.308	28185
810.45	28169
810.591	28135
810.733	28010
810.875	27835
811.016	27629
811.158	27831
811.299	27899
811.441	28101
811.582	27972
811.724	27911
811.865	27846
812.007	27888
812.148	27964
812.29	27934
812.431	28051
812.573	28192
812.714	28322
812.855	28405
812.997	28318
813.138	28546
813.279	28440
813.421	28375
813.562	28382
813.703	28310
813.845	28246
813.986	27945
814.127	27709
814.268	27504
814.41	27549
814.551	27568
814.692	27572
814.833	27367
814.974	27458
815.115	27454
815.256	27389
815.397	27279
815.539	27355
815.68	27310
815.821	27150
815.962	27313
816.103	27264
816.244	27070
816.385	26944
816.526	27032
816.666	26891
816.807	26617
816.948	26724
817.089	26781
817.23	26708
817.371	26636
817.512	26743
817.653	26606
817.793	26594
817.934	26796
818.075	26686
818.216	26727
818.356	26526
818.497	26503
818.638	26366
818.778	26530
818.919	26431
819.06	26465
819.2	26480
819.341	26533
819.481	26670
819.622	26693
819.762	26986
819.903	26899
820.043	26746
820.184	26765
820.324	26651
820.465	26925
820.605	26636
820.746	26830
820.886	26537
821.026	26575
821.167	26629
821.307	26720
821.447	26556
821.588	26560
821.728	26343
821.868	26286
822.008	25978
822.149	26134
822.289	26043
822.429	25780
822.569	25849
822.709	25609
822.849	25521
822.99	25537
823.13	25689
823.27	25620
823.41	25350
823.55	25209
823.69	25202
823.83	25331
823.97	25289
824.11	25069
824.25	25194
824.389	25209
824.529	25217
824.669	25247
824.809	25278
824.949	25232
825.089	25259
825.228	25107
825.368	25004
825.508	25118
825.648	24935
825.787	24947
825.927	24935
826.067	25034
826.206	24890
826.346	24897
826.485	24947
826.625	25076
826.765	25133
826.904	24962
827.044	24745
827.183	24677
827.323	24760
827.462	24696
827.601	24722
827.741	24677
827.88	24703
828.02	24525
828.159	24589
828.298	24612
828.437	24776
828.577	24460
828.716	24661
828.855	24681
828.994	24350
829.134	24399
829.273	24525
829.412	24304
829.551	24281
829.69	24266
829.829	24372
829.968	24239
830.107	24369
830.246	24334
830.385	24372
830.524	24281
830.663	24155
830.802	24155
830.941	23958
831.08	23866
831.219	23954
831.357	23931
831.496	24064
831.635	23863
831.774	23805
831.913	23802
832.051	23760
832.19	23695
832.329	23828
832.467	23646
832.606	23611
832.744	23577
832.883	23589
833.022	23539
833.16	23505
833.299	23642
833.437	23486
833.576	23619
833.714	23562
833.852	23528
833.991	23509
834.129	23596
834.267	23771
834.406	23661
834.544	23627
834.682	23600
834.821	23535
834.959	23756
835.097	23509
835.235	23608
835.373	23512
835.511	23501
835.65	23486
835.788	23337
835.926	23242
836.064	23132
836.202	23337
836.34	23554
836.478	23516
836.615	23383
836.753	23376
836.891	23452
837.029	23452
837.167	23273
837.305	23299
837.443	23334
837.58	23277
837.718	23288
837.856	23273
837.993	23254
838.131	23090
838.269	23117
838.406	23113
838.544	23083
838.681	22816
838.819	22755
838.956	22683
839.094	22634
839.231	22755
839.369	22816
839.506	23041
839.643	22934
839.781	22580
839.918	22538
840.055	22717
840.193	22557
840.33	22478
840.467	22565
840.604	22721
840.742	23029
840.879	22394
841.016	22516
841.153	22542
841.29	22713
841.427	22759
841.564	22615
841.701	22607
841.838	22474
841.975	22611
842.112	22462
842.249	22375
842.385	22322
842.522	22588
842.659	22223
842.796	22310
842.933	22367
843.069	22242
843.206	22314
843.343	22265
843.479	22223
843.616	22386
843.752	22166
843.889	22059
844.025	22249
844.162	22055
844.298	22196
844.435	22131
844.571	22002
844.708	22200
844.844	22185
844.98	22207
845.117	22116
845.253	22013
845.389	21994
845.525	21949
845.661	21842
845.798	21797
845.934	21804
846.07	21724
846.206	21694
846.342	21934
846.478	21888
846.614	21583
846.75	21424
846.886	21481
847.022	21599
847.158	21469
847.294	21504
847.429	21511
847.565	21568
847.701	21698
847.837	21294
847.972	21218
848.108	21462
848.244	21344
848.379	21245
848.515	21233
848.65	21036
848.786	21032
848.921	21020
849.057	21310
849.192	21298
849.328	21264
849.463	21077
849.598	21055
849.734	20979
849.869	20933
850.004	20864
850.14	20899
850.275	20834
850.41	20705
850.545	20830
850.68	20769
850.815	20861
850.95	20750
851.085	20982
851.22	20906
851.355	20887
851.49	20785
851.625	20899
851.76	20815
851.895	20670
852.03	20568
852.165	20823
852.299	20857
852.434	20906
852.569	20815
852.703	20834
852.838	20929
852.973	20842
853.107	20948
853.242	20712
853.376	20606
853.511	20492
853.645	20579
853.78	20823
853.914	20621
854.048	20629
854.183	20495
854.317	20769
854.451	20834
854.585	20648
854.72	20644
854.854	20720
854.988	20609
855.122	20640
855.256	20507
855.39	20655
855.524	20644
855.658	20655
855.792	20617
855.926	20587
856.06	20670
856.194	20785
856.327	20667
856.461	20587
856.595	20625
856.729	20640
856.862	20651
856.996	20712
857.13	20655
857.263	20727
857.397	20731
857.53	20522
857.664	20648
857.797	20693
857.931	20705
858.064	20609
858.197	20735
858.331	20480
858.464	20431
858.597	20389
858.731	20590
858.864	20583
858.997	20613
859.13	20613
859.263	20625
859.396	20701
859.529	20621
859.662	20644
859.795	20545
859.928	20594
860.061	20792
860.194	20838
860.327	20720
860.46	20651
860.592	20724
860.725	20693
860.858	20743
860.99	20461
861.123	20564
861.256	20560
861.388	20579
861.521	21306
861.653	20465
861.786	20480
861.918	20393
862.05	20606
862.183	20644
862.315	20571
862.447	20686
862.58	20492
862.712	20294
862.844	20275
862.976	20484
863.108	20438
863.24	20792
863.372	20157
863.504	20355
863.636	20298
863.768	20263
863.9	20339
864.032	20244
864.164	20145
864.296	20374
864.428	20454
864.559	20484
864.691	20202
864.823	20263
864.954	20298
865.086	20199
865.217	20183
865.349	20122
865.48	20130
865.612	20202
865.743	20332
865.875	20294
866.006	20138
866.137	20206
866.269	20149
866.4	20134
866.531	20183
866.662	20081
866.793	20168
866.924	20157
867.055	20153
867.186	20111
867.317	20065
867.448	20008
867.579	20142
867.71	20043
867.841	20008
867.972	20161
868.103	20161
868.233	20062
868.364	20145
868.495	20126
868.625	20396
868.756	20446
868.886	20191
869.017	20271
869.147	20419
869.278	20450
869.408	20381
869.539	20442
869.669	20564
869.799	20526
869.929	20442
870.06	20503
870.19	20655
870.32	20648
870.45	20735
870.58	20750
870.71	20727
870.84	20765
870.97	20853
871.1	20670
871.23	20883
871.36	20899
871.489	20834
871.619	20914
871.749	20929
871.879	21043
872.008	21032
872.138	20941
872.267	20948
872.397	20864
872.526	20758
872.656	20739
872.785	20701
872.915	20986
873.044	21157
873.173	20986
873.303	21127
873.432	21032
873.561	21017
873.69	21043
873.819	21024
873.948	20994
874.077	21043
874.206	20921
874.335	21043
874.464	21013
874.593	21127
874.722	21218
874.851	21298
874.979	21233
875.108	21329
875.237	21199
875.365	21230
875.494	21096
875.623	21336
875.751	21203
875.88	21237
876.008	21389
876.136	21538
876.265	21526
876.393	21728
876.521	21732
876.65	21606
876.778	21629
876.906	21587
877.034	21519
877.162	21622
877.29	21610
877.418	21576
877.546	21682
877.674	21553
877.802	21618
877.93	21663
878.058	21549
878.185	21530
878.313	21568
878.441	21595
878.568	21477
878.696	21515
878.824	21694
878.951	21557
879.079	21724
879.206	21804
879.333	21629
879.461	21599
879.588	21739
879.715	21755
879.842	21812
879.97	21652
880.097	21530
880.224	21393
880.351	21466
880.478	21348
880.605	21272
880.732	21405
880.859	21686
880.986	21485
881.112	21272
881.239	21340
881.366	21135
881.493	21058
881.619	21058
881.746	21017
881.872	21066
881.999	20925
882.125	20975
882.252	21020
882.378	21066
882.505	21047
882.631	21005
882.757	20632
882.883	20815
883.01	20720
883.136	20651
883.262	20632
883.388	20590
883.514	20746
883.64	20777
883.766	20503
883.892	20457
884.018	20579
884.143	20708
884.269	20716
884.395	20446
884.52	20343
884.646	20328
884.772	20313
884.897	20267
885.023	20317
885.148	20541
885.274	20537
885.399	20423
885.524	20412
885.65	20362
885.775	20332
885.9	20278
886.025	20488
886.15	20431
886.275	20317
886.4	20221
886.525	20240
886.65	20176
886.775	20263
886.9	20457
887.025	20518
887.149	20332
887.274	20240
887.399	20164
887.523	20111
887.648	20077
887.773	20050
887.897	20187
888.021	20157
888.146	20058
888.27	20180
888.395	20210
888.519	20130
888.643	20088
888.767	20180
888.891	20001
889.015	19894
889.139	19944
889.263	19856
889.387	20043
889.511	20233
889.635	20046
889.759	19883
889.883	19879
890.006	19898
890.13	20050
890.254	19852
890.377	19807
890.501	19693
890.624	19521
890.748	19784
890.871	19540
890.995	19518
891.118	19422
891.241	19514
891.364	19487
891.488	19677
891.611	19312
891.734	19464
891.857	19567
891.98	19464
892.103	19483
892.226	19460
892.349	19453
892.471	19324
892.594	19457
892.717	19521
892.839	19343
892.962	19396
893.085	19502
893.207	19343
893.33	19396
893.452	19308
893.575	19445
893.697	19430
893.819	19525
893.941	19559
894.064	19499
894.186	19289
894.308	19320
894.43	19537
894.552	19559
894.674	19506
894.796	19339
894.918	19377
895.04	19301
895.161	19476
895.283	19464
895.405	19354
895.526	19304
895.648	19445
895.769	19362
895.891	19468
896.012	19540
896.134	19464
896.255	19438
896.376	19343
896.498	19430
896.619	19460
896.74	19491
896.861	19460
896.982	19795
897.103	19906
897.224	19689
897.345	19643
897.466	19696
897.587	19712
897.708	19795
897.828	19753
897.949	19582
898.07	19548
898.19	19651
898.311	19795
898.431	19662
898.552	19784
898.672	19731
898.792	19727
898.913	19658
899.033	19552
899.153	19403
899.273	19274
899.393	19373
899.513	19457
899.633	19339
899.753	19476
899.873	19278
899.993	19377
900.113	19327
900.232	19331
900.352	19285
900.472	19304
900.591	19114
900.711	19274
900.83	19244
900.95	19289
901.069	19202
901.189	19065
901.308	18844
901.427	18684
901.546	18787
901.665	18688
901.784	18867
901.904	18604
902.023	18601
902.141	18414
902.26	18407
902.379	18414
902.498	18311
902.617	18251
902.735	18399
902.854	18197
902.973	18163
903.091	18072
903.21	18026
903.328	17950
903.446	17863
903.565	17809
903.683	17691
903.801	17642
903.919	17737
904.038	17661
904.156	17532
904.274	17680
904.392	17463
904.51	17562
904.627	17577
904.745	17558
904.863	17646
904.981	17288
905.098	17280
905.216	17071
905.334	17162
905.451	17239
905.569	17140
905.686	17216
905.803	17235
905.921	17025
906.038	17018
906.155	17006
906.272	16915
906.389	16995
906.506	16938
906.623	16710
906.74	16752
906.857	16603
906.974	16763
907.091	16896
907.208	16854
907.324	16698
907.441	16584
907.557	16504
907.674	16386
907.79	16310
907.907	16417
908.023	16440
908.139	16325
908.256	16417
908.372	16348
908.488	16284
908.604	16230
908.72	16150
908.836	16268
908.952	16082
909.068	16185
909.184	16230
909.3	16131
909.415	16124
909.531	16112
909.647	15789
909.762	15941
909.878	15785
909.993	15797
910.108	15785
910.224	15751
910.339	15808
910.454	15838
910.57	15667
910.685	15633
910.8	15869
910.915	15804
911.03	15690
911.145	15488
911.259	15469
911.374	15519
911.489	15435
911.604	15283
911.718	15165
911.833	15222
911.947	15176
912.062	15104
912.176	15165
912.291	15199
912.405	15127
912.519	15332
912.633	15435
912.748	15180
912.862	15093
912.976	14971
913.09	14971
913.204	14960
913.318	14971
913.431	15032
913.545	15077
913.659	15017
913.772	14956
913.886	14830
914	14785
914.113	14929
914.226	14918
914.34	14826
914.453	14735
914.566	14933
914.68	14724
914.793	14663
914.906	14511
915.019	14457
915.132	14389
915.245	14495
915.358	14469
915.47	14480
915.583	14461
915.696	14526
915.809	14621
915.921	14632
916.034	14377
916.146	14488
916.259	14282
916.371	14377
916.483	14423
916.595	14202
916.708	14324
916.82	14324
916.932	14282
917.044	14290
917.156	14240
917.268	14039
917.38	14214
917.491	14043
917.603	14115
917.715	14069
917.826	14123
917.938	14027
918.049	13986
918.161	14111
918.272	14168
918.384	14126
918.495	14103
918.606	13909
918.717	13822
918.828	13944
918.939	13921
919.05	13776
919.161	13814
919.272	13719
919.383	13780
919.494	13906
919.604	14031
919.715	13932
919.826	13841
919.936	13769
920.047	13940
920.157	13845
920.267	13997
920.378	13803
920.488	13833
920.598	14134
920.708	14180
920.818	13947
920.928	13959
921.038	14126
921.148	14054
921.258	13830
921.368	13784
921.477	13590
921.587	13662
921.697	13468
921.806	13632
921.916	13464
922.025	13293
922.134	13240
922.244	13202
922.353	13282
922.462	13160
922.571	13095
922.68	12905
922.789	12863
922.898	12798
923.007	12787
923.116	12897
923.224	12882
923.333	12901
923.442	12730
923.55	12700
923.659	12722
923.767	12779
923.876	12715
923.984	12745
924.092	12608
924.201	12665
924.309	12627
924.417	12623
924.525	12582
924.633	12582
924.741	13354
924.849	12388
924.956	12563
925.064	12350
925.172	12311
925.279	12319
925.387	12388
925.494	12353
925.602	12486
925.709	12437
925.816	12289
925.924	12254
926.031	12403
926.138	12289
926.245	12323
926.352	12209
926.459	12369
926.566	12338
926.673	12262
926.779	12186
926.886	12129
926.993	11992
927.099	11992
927.206	11828
927.312	11851
927.419	11961
927.525	11897
927.631	11946
927.737	11840
927.843	11710
927.95	11665
928.056	11653
928.162	11745
928.267	11783
928.373	12391
928.479	11805
928.585	11604
928.69	11760
928.796	11775
928.901	11516
929.007	11448
929.112	11623
929.218	11566
929.323	11570
929.428	11467
929.533	11600
929.638	11505
929.743	11402
929.848	11463
929.953	11417
930.058	11391
930.163	11166
930.267	11303
930.372	11322
930.477	11132
930.581	11471
930.685	11239
930.79	11071
930.894	11128
930.998	11048
931.103	11216
931.207	10839
931.311	10702
931.415	10679
931.519	10481
931.623	10466
