Data from test_V78500241_1756.txt Node
Date: Fri Mar 25 15:22:05 CST 2022
User: usil
Spectrometer: V785-0024
Trigger mode: 0
Integration Time (sec): 4.000000E-1
Scans to average: 1
Nonlinearity correction enabled: false
Boxcar width: 0
Storing dark spectrum: false
XAxis mode: Wavelengths
Number of Pixels in Spectrum: 1024
>>>>>Begin Spectral Data<<<<<
801.071	28006
801.214	27766
801.356	27603
801.499	27614
801.641	27359
801.783	27488
801.926	27534
802.068	27329
802.211	27336
802.353	27344
802.496	27165
802.638	27047
802.78	26998
802.923	27218
803.065	27017
803.208	26971
803.35	27119
803.492	27070
803.635	27260
803.777	27104
803.919	27287
804.061	27675
804.204	27374
804.346	27313
804.488	27165
804.63	27203
804.773	27173
804.915	27386
805.057	27313
805.199	27245
805.341	27374
805.483	27481
805.626	27477
805.768	27389
805.91	27450
806.052	27454
806.194	27367
806.336	27595
806.478	27427
806.62	27454
806.762	27610
806.904	27709
807.046	27838
807.188	27899
807.33	27991
807.472	27907
807.614	27698
807.756	27831
807.898	27690
808.04	27709
808.182	27686
808.324	27622
808.465	27819
808.607	27873
808.749	28013
808.891	28207
809.033	28234
809.174	28143
809.316	28093
809.458	28074
809.6	28032
809.741	28128
809.883	28211
810.025	28401
810.166	28390
810.308	28352
810.45	28375
810.591	28109
810.733	28036
810.875	28078
811.016	27724
811.158	27945
811.299	28234
811.441	28200
811.582	28329
811.724	28177
811.865	28063
812.007	28010
812.148	28109
812.29	28070
812.431	28303
812.573	28390
812.714	28512
812.855	28588
812.997	28630
813.138	28755
813.279	28622
813.421	28577
813.562	28542
813.703	28360
813.845	28375
813.986	28120
814.127	27964
814.268	27587
814.41	27751
814.551	27720
814.692	27892
814.833	27705
814.974	27656
815.115	27759
815.256	27629
815.397	27671
815.539	27576
815.68	27507
815.821	27549
815.962	27549
816.103	27378
816.244	27454
816.385	27382
816.526	27256
816.666	27313
816.807	26921
816.948	27180
817.089	27169
817.23	27157
817.371	27058
817.512	27005
817.653	26876
817.793	27039
817.934	27051
818.075	27047
818.216	27024
818.356	26982
818.497	26971
818.638	26678
818.778	26773
818.919	26777
819.06	26823
819.2	26940
819.341	27051
819.481	26960
819.622	27131
819.762	27351
819.903	27260
820.043	27230
820.184	27230
820.324	27161
820.465	27264
820.605	27058
820.746	27241
820.886	27043
821.026	27070
821.167	27089
821.307	27173
821.447	27100
821.588	27001
821.728	26765
821.868	26651
822.008	26526
822.149	26537
822.289	26495
822.429	26305
822.569	26039
822.709	26149
822.849	26005
822.99	26069
823.13	26016
823.27	26031
823.41	25883
823.55	25708
823.69	25890
823.83	25883
823.97	25784
824.11	25548
824.25	25453
824.389	25563
824.529	25639
824.669	25708
824.809	25731
824.949	25769
825.089	25849
825.228	25856
825.368	25575
825.508	25518
825.648	25556
825.787	25616
825.927	25670
826.067	25483
826.206	25518
826.346	25609
826.485	25696
826.625	25578
826.765	25613
826.904	25483
827.044	25354
827.183	25259
827.323	25278
827.462	25274
827.601	25316
827.741	25289
827.88	25320
828.02	25217
828.159	25259
828.298	25320
828.437	25358
828.577	25160
828.716	25377
828.855	25175
828.994	24939
829.134	24970
829.273	25099
829.412	24935
829.551	24821
829.69	24932
829.829	24951
829.968	25046
830.107	24985
830.246	25126
830.385	24913
830.524	24776
830.663	24806
830.802	24734
830.941	24528
831.08	24509
831.219	24574
831.357	24639
831.496	24612
831.635	24623
831.774	24528
831.913	24429
832.051	24460
832.19	24323
832.329	24399
832.467	24372
832.606	24209
832.744	24273
832.883	24087
833.022	24232
833.16	24273
833.299	24346
833.437	24308
833.576	24247
833.714	24384
833.852	24369
833.991	24372
834.129	24353
834.267	24422
834.406	24258
834.544	24403
834.682	24350
834.821	24426
834.959	24399
835.097	24327
835.235	24391
835.373	24247
835.511	24334
835.65	24311
835.788	24133
835.926	24018
836.064	24060
836.202	23897
836.34	24114
836.478	24239
836.615	24171
836.753	24186
836.891	24205
837.029	24228
837.167	23984
837.305	24102
837.443	23992
837.58	23958
837.718	24121
837.856	23996
837.993	23980
838.131	24034
838.269	23813
838.406	23828
838.544	23817
838.681	23657
838.819	23699
838.956	23501
839.094	23490
839.231	23623
839.369	23676
839.506	23843
839.643	23722
839.781	23524
839.918	23387
840.055	23463
840.193	23448
840.33	23391
840.467	23277
840.604	23570
840.742	23657
840.879	23296
841.016	23318
841.153	23349
841.29	23463
841.427	23345
841.564	23410
841.701	23360
841.838	23269
841.975	23284
842.112	23185
842.249	23174
842.385	23178
842.522	23204
842.659	23105
842.796	23121
842.933	23155
843.069	23155
843.206	23094
843.343	23140
843.479	23121
843.616	23121
843.752	22885
843.889	22915
844.025	23147
844.162	22923
844.298	23003
844.435	22812
844.571	22915
844.708	23113
844.844	23117
844.98	23193
845.117	23067
845.253	22812
845.389	22767
845.525	22771
845.661	22828
845.798	22683
845.934	22729
846.07	22577
846.206	22824
846.342	22721
846.478	22641
846.614	22508
846.75	22322
846.886	22367
847.022	22550
847.158	22489
847.294	22504
847.429	22413
847.565	22466
847.701	22580
847.837	22078
847.972	22070
848.108	22223
848.244	22265
848.379	21861
848.515	21979
848.65	22032
848.786	21998
848.921	21873
849.057	22010
849.192	22173
849.328	21991
849.463	22109
849.598	21930
849.734	21838
849.869	21774
850.004	21778
850.14	21743
850.275	21755
850.41	21747
850.545	21694
850.68	21644
850.815	21831
850.95	21717
851.085	22010
851.22	21903
851.355	21816
851.49	21880
851.625	21671
851.76	21739
851.895	21606
852.03	21618
852.165	21667
852.299	21675
852.434	21797
852.569	21789
852.703	21747
852.838	21694
852.973	21857
853.107	21865
853.242	21641
853.376	21515
853.511	21591
853.645	21450
853.78	21766
853.914	21530
854.048	21507
854.183	21462
854.317	21660
854.451	21762
854.585	21610
854.72	21469
854.854	21587
854.988	21500
855.122	21587
855.256	21424
855.39	21637
855.524	21610
855.658	21561
855.792	21492
855.926	21633
856.06	21538
856.194	21622
856.327	21408
856.461	21507
856.595	21458
856.729	21572
856.862	21614
856.996	21614
857.13	21610
857.263	21660
857.397	21652
857.53	21500
857.664	21637
857.797	21534
857.931	21599
858.064	21595
858.197	21511
858.331	21469
858.464	21572
858.597	21424
858.731	21610
858.864	21416
858.997	21504
859.13	21447
859.263	21511
859.396	21561
859.529	21485
859.662	21587
859.795	21572
859.928	21557
860.061	21637
860.194	21572
860.327	21515
860.46	21572
860.592	21557
860.725	21686
860.858	21644
860.99	21667
861.123	21435
861.256	21389
861.388	21606
861.521	22200
861.653	21416
861.786	21249
861.918	21374
862.05	21370
862.183	21500
862.315	21507
862.447	21545
862.58	21477
862.712	21283
862.844	21294
862.976	21420
863.108	21302
863.24	21622
863.372	21226
863.504	21287
863.636	21195
863.768	21317
863.9	21214
864.032	21291
864.164	21233
864.296	21256
864.428	21287
864.559	21298
864.691	21386
864.823	21214
864.954	21211
865.086	21233
865.217	21256
865.349	21127
865.48	21146
865.612	21131
865.743	21192
865.875	21332
866.006	21218
866.137	21100
866.269	21119
866.4	21157
866.531	21066
866.662	21047
866.793	21039
866.924	21096
867.055	21207
867.186	21135
867.317	21081
867.448	21058
867.579	21024
867.71	20971
867.841	20960
867.972	21173
868.103	21195
868.233	21020
868.364	21047
868.495	21203
868.625	21302
868.756	21344
868.886	21230
869.017	21367
869.147	21317
869.278	21378
869.408	21325
869.539	21382
869.669	21359
869.799	21298
869.929	21355
870.06	21302
870.19	21641
870.32	21542
870.45	21663
870.58	21595
870.71	21751
870.84	21789
870.97	21580
871.1	21660
871.23	21880
871.36	21926
871.489	21880
871.619	21915
871.749	21934
871.879	22048
872.008	21949
872.138	21873
872.267	21922
872.397	21778
872.526	21781
872.656	21770
872.785	21770
872.915	21956
873.044	22105
873.173	22048
873.303	22036
873.432	21949
873.561	22120
873.69	22010
873.819	21884
873.948	22139
874.077	21911
874.206	21968
874.335	21960
874.464	22010
874.593	22135
874.722	22204
874.851	22105
874.979	22177
875.108	22249
875.237	22211
875.365	22021
875.494	22169
875.623	22280
875.751	22029
875.88	22295
876.008	22291
876.136	22314
876.265	22573
876.393	22698
876.521	22641
876.65	22630
876.778	22432
876.906	22394
877.034	22557
877.162	22500
877.29	22493
877.418	22424
877.546	22424
877.674	22607
877.802	22405
877.93	22565
878.058	22409
878.185	22299
878.313	22592
878.441	22546
878.568	22265
878.696	22447
878.824	22493
878.951	22542
879.079	22850
879.206	22778
879.333	22740
879.461	22451
879.588	22596
879.715	22717
879.842	22812
879.97	22474
880.097	22284
880.224	22265
880.351	22318
880.478	22333
880.605	22223
880.732	22348
880.859	22554
880.986	22337
881.112	22428
881.239	22158
881.366	22067
881.493	22025
881.619	21846
881.746	22128
881.872	21918
881.999	21762
882.125	21831
882.252	21895
882.378	21918
882.505	21918
882.631	21736
882.757	21774
882.883	21713
883.01	21614
883.136	21549
883.262	21408
883.388	21519
883.514	21622
883.64	21610
883.766	21526
883.892	21298
884.018	21378
884.143	21549
884.269	21622
884.395	21454
884.52	21154
884.646	21233
884.772	21116
884.897	21199
885.023	21173
885.148	21336
885.274	21374
885.399	21431
885.524	21131
885.65	21176
885.775	21199
885.9	21214
886.025	21233
886.15	21313
886.275	21245
886.4	21195
886.525	21222
886.65	21302
886.775	21173
886.9	21420
887.025	21450
887.149	21203
887.274	21104
887.399	21005
887.523	21108
887.648	20956
887.773	20872
887.897	21093
888.021	20971
888.146	20861
888.27	20971
888.395	21013
888.519	21017
888.643	21024
888.767	20986
888.891	20883
889.015	20735
889.139	20861
889.263	20705
889.387	20834
889.511	21085
889.635	20994
889.759	20819
889.883	20750
890.006	20861
890.13	20754
890.254	20674
890.377	20823
890.501	20617
890.624	20571
890.748	20602
890.871	20469
890.995	20351
891.118	20374
891.241	20408
891.364	20328
891.488	20621
891.611	20290
891.734	20438
891.857	20514
891.98	20309
892.103	20320
892.226	20286
892.349	20343
892.471	20180
892.594	20282
892.717	20248
892.839	20176
892.962	20320
893.085	20339
893.207	20309
893.33	20237
893.452	20233
893.575	20374
893.697	20298
893.819	20389
893.941	20476
894.064	20473
894.186	20195
894.308	20206
894.43	20389
894.552	20377
894.674	20275
894.796	20199
894.918	20221
895.04	20324
895.161	20309
895.283	20320
895.405	20263
895.526	20267
895.648	20138
895.769	20221
895.891	20157
896.012	20393
896.134	20389
896.255	20267
896.376	20221
896.498	20275
896.619	20404
896.74	20267
896.861	20176
896.982	20507
897.103	20693
897.224	20541
897.345	20480
897.466	20427
897.587	20404
897.708	20625
897.828	20495
897.949	20454
898.07	20275
898.19	20507
898.311	20602
898.431	20408
898.552	20427
898.672	20556
898.792	20560
898.913	20446
899.033	20347
899.153	20347
899.273	20176
899.393	20202
899.513	20122
899.633	20244
899.753	20191
899.873	20107
899.993	20259
900.113	20153
900.232	20153
900.352	20149
900.472	19993
900.591	19997
900.711	19936
900.83	20073
900.95	20069
901.069	20020
901.189	19932
901.308	19586
901.427	19540
901.546	19624
901.665	19586
901.784	19529
901.904	19304
902.023	19263
902.141	19065
902.26	19168
902.379	19137
902.498	18981
902.617	18985
902.735	18996
902.854	19065
902.973	19042
903.091	18661
903.21	18844
903.328	18757
903.446	18467
903.565	18547
903.683	18513
903.801	18570
903.919	18582
904.038	18601
904.156	18369
904.274	18369
904.392	18273
904.51	18319
904.627	18357
904.745	18357
904.863	18304
904.981	18057
905.098	18019
905.216	18076
905.334	18022
905.451	17996
905.569	17961
905.686	18079
905.803	18034
905.921	17745
906.038	17958
906.155	17931
906.272	17661
906.389	17729
906.506	17638
906.623	17512
906.74	17516
906.857	17429
906.974	17433
907.091	17604
907.208	17608
907.324	17474
907.441	17379
907.557	17269
907.674	17280
907.79	17185
907.907	17204
908.023	17296
908.139	17220
908.256	17124
908.372	17178
908.488	17014
908.604	17105
908.72	16820
908.836	17014
908.952	16961
909.068	16961
909.184	17064
909.3	16801
909.415	16980
909.531	17025
909.647	16733
909.762	16694
909.878	16668
909.993	16691
910.108	16634
910.224	16599
910.339	16599
910.454	16508
910.57	16493
910.685	16382
910.8	16637
910.915	16554
911.03	16428
911.145	16352
911.259	16287
911.374	16196
911.489	16226
911.604	16116
911.718	15994
911.833	16032
911.947	15941
912.062	15781
912.176	15994
912.291	15994
912.405	15918
912.519	16097
912.633	16211
912.748	16044
912.862	15930
912.976	15819
913.09	15622
913.204	15793
913.318	15838
913.431	15835
913.545	15888
913.659	15880
913.772	15732
913.886	15667
914	15553
914.113	15713
914.226	15652
914.34	15675
914.453	15424
914.566	15648
914.68	15443
914.793	15412
914.906	15279
915.019	15256
915.132	15161
915.245	15207
915.358	15237
915.47	15283
915.583	15252
915.696	15268
915.809	15340
915.921	15325
916.034	15188
916.146	15097
916.259	15017
916.371	15127
916.483	15180
916.595	15085
916.708	15039
916.82	15039
916.932	14975
917.044	14921
917.156	14956
917.268	14861
917.38	14910
917.491	14876
917.603	14819
917.715	14921
917.826	14933
917.938	14765
918.049	14746
918.161	14895
918.272	14864
918.384	14902
918.495	14739
918.606	14640
918.717	14568
918.828	14682
918.939	14648
919.05	14545
919.161	14659
919.272	14560
919.383	14488
919.494	14636
919.604	14796
919.715	14617
919.826	14484
919.936	14613
920.047	14610
920.157	14537
920.267	14720
920.378	14598
920.488	14644
920.598	14735
920.708	14804
920.818	14697
920.928	14819
921.038	14880
921.148	14826
921.258	14495
921.368	14404
921.477	14240
921.587	14320
921.697	14183
921.806	14389
921.916	14221
922.025	13940
922.134	13917
922.244	13902
922.353	14020
922.462	13849
922.571	13636
922.68	13628
922.789	13521
922.898	13696
923.007	13563
923.116	13700
923.224	13624
923.333	13655
923.442	13449
923.55	13449
923.659	13460
923.767	13514
923.876	13335
923.984	13472
924.092	13289
924.201	13324
924.309	13407
924.417	13289
924.525	13312
924.633	13289
924.741	14065
924.849	13126
924.956	13236
925.064	13031
925.172	12859
925.279	13084
925.387	13061
925.494	13012
925.602	13164
925.709	13019
925.816	12905
925.924	12962
926.031	13065
926.138	12939
926.245	12977
926.352	12779
926.459	13008
926.566	13084
926.673	12817
926.779	12688
926.886	12715
926.993	12593
927.099	12597
927.206	12544
927.312	12536
927.419	12620
927.525	12631
927.631	12642
927.737	12544
927.843	12429
927.95	12289
928.056	12353
928.162	12410
928.267	12467
928.373	13027
928.479	12410
928.585	12277
928.69	12300
928.796	12391
928.901	12323
929.007	12087
929.112	12201
929.218	12235
929.323	12076
929.428	12190
929.533	12258
929.638	12019
929.743	12068
929.848	12072
929.953	12064
930.058	11882
930.163	11790
930.267	11802
930.372	11965
930.477	11802
930.581	12041
930.685	11832
930.79	11649
930.894	11695
930.998	11608
931.103	11775
931.207	11459
931.311	11398
931.415	11250
931.519	11067
931.623	10999
