Data from test_V78500241_2806.txt Node
Date: Fri Mar 25 15:29:23 CST 2022
User: usil
Spectrometer: V785-0024
Trigger mode: 0
Integration Time (sec): 4.000000E-1
Scans to average: 1
Nonlinearity correction enabled: false
Boxcar width: 0
Storing dark spectrum: false
XAxis mode: Wavelengths
Number of Pixels in Spectrum: 1024
>>>>>Begin Spectral Data<<<<<
801.071	27176
801.214	26971
801.356	26921
801.499	26765
801.641	26697
801.783	26644
801.926	26693
802.068	26560
802.211	26648
802.353	26590
802.496	26415
802.638	26233
802.78	26320
802.923	26187
803.065	26153
803.208	26248
803.35	26343
803.492	26434
803.635	26473
803.777	26309
803.919	26362
804.061	26724
804.204	26355
804.346	26332
804.488	26275
804.63	26404
804.773	26450
804.915	26590
805.057	26606
805.199	26431
805.341	26590
805.483	26720
805.626	26469
805.768	26476
805.91	26518
806.052	26495
806.194	26389
806.336	26621
806.478	26571
806.62	26579
806.762	26682
806.904	26792
807.046	27020
807.188	27013
807.33	27047
807.472	26944
807.614	26914
807.756	26849
807.898	26804
808.04	26648
808.182	26754
808.324	26876
808.465	26883
808.607	27047
808.749	27192
808.891	27363
809.033	27317
809.174	27260
809.316	27058
809.458	27161
809.6	27112
809.741	27237
809.883	27351
810.025	27530
810.166	27477
810.308	27443
810.45	27321
810.591	27302
810.733	27264
810.875	27180
811.016	27165
811.158	27055
811.299	27275
811.441	27344
811.582	27245
811.724	27226
811.865	27131
812.007	27077
812.148	27070
812.29	27256
812.431	27283
812.573	27481
812.714	27553
812.855	27686
812.997	27698
813.138	27812
813.279	27759
813.421	27504
813.562	27580
813.703	27454
813.845	27359
813.986	27077
814.127	26948
814.268	26842
814.41	26857
814.551	26861
814.692	26902
814.833	26621
814.974	26823
815.115	26826
815.256	26632
815.397	26678
815.539	26575
815.68	26545
815.821	26412
815.962	26552
816.103	26556
816.244	26469
816.385	26324
816.526	26240
816.666	26229
816.807	26016
816.948	26096
817.089	26161
817.23	26244
817.371	26012
817.512	26012
817.653	25944
817.793	25970
817.934	26115
818.075	26149
818.216	26145
818.356	26012
818.497	25970
818.638	25837
818.778	25837
818.919	25837
819.06	25932
819.2	25868
819.341	26161
819.481	26088
819.622	26210
819.762	26412
819.903	26393
820.043	26145
820.184	26073
820.324	26111
820.465	26191
820.605	25993
820.746	26024
820.886	26016
821.026	26115
821.167	26062
821.307	26134
821.447	26001
821.588	25928
821.728	25795
821.868	25590
822.008	25685
822.149	25533
822.289	25529
822.429	25377
822.569	25179
822.709	25145
822.849	25148
822.99	25053
823.13	24996
823.27	25027
823.41	24875
823.55	24665
823.69	24749
823.83	24897
823.97	24745
824.11	24669
824.25	24627
824.389	24620
824.529	24669
824.669	24589
824.809	24817
824.949	24806
825.089	24787
825.228	24738
825.368	24547
825.508	24525
825.648	24471
825.787	24677
825.927	24601
826.067	24517
826.206	24517
826.346	24475
826.485	24555
826.625	24612
826.765	24738
826.904	24753
827.044	24247
827.183	24395
827.323	24445
827.462	24232
827.601	24285
827.741	24247
827.88	24213
828.02	24152
828.159	24239
828.298	24201
828.437	24266
828.577	24186
828.716	24247
828.855	24159
828.994	24022
829.134	23889
829.273	23984
829.412	23996
829.551	23843
829.69	23882
829.829	23897
829.968	23935
830.107	23969
830.246	24041
830.385	23798
830.524	23745
830.663	23805
830.802	23703
830.941	23604
831.08	23566
831.219	23585
831.357	23539
831.496	23840
831.635	23421
831.774	23463
831.913	23516
832.051	23406
832.19	23345
832.329	23288
832.467	23254
832.606	23147
832.744	23174
832.883	23208
833.022	23250
833.16	23227
833.299	23265
833.437	23322
833.576	23227
833.714	23174
833.852	23261
833.991	23387
834.129	23364
834.267	23497
834.406	23429
834.544	23421
834.682	23178
834.821	23368
834.959	23410
835.097	23223
835.235	23429
835.373	23383
835.511	23303
835.65	23147
835.788	23140
835.926	22991
836.064	22915
836.202	22946
836.34	23140
836.478	23162
836.615	23064
836.753	23067
836.891	23166
837.029	23231
837.167	23086
837.305	23010
837.443	23075
837.58	23052
837.718	23090
837.856	23022
837.993	23086
838.131	22869
838.269	22839
838.406	22942
838.544	22835
838.681	22679
838.819	22694
838.956	22443
839.094	22493
839.231	22512
839.369	22691
839.506	22919
839.643	22683
839.781	22580
839.918	22512
840.055	22546
840.193	22493
840.33	22474
840.467	22451
840.604	22424
840.742	22668
840.879	22253
841.016	22375
841.153	22325
841.29	22500
841.427	22344
841.564	22508
841.701	22462
841.838	22261
841.975	22181
842.112	22371
842.249	22196
842.385	22162
842.522	22341
842.659	22348
842.796	22158
842.933	22234
843.069	22131
843.206	22013
843.343	22261
843.479	22158
843.616	22078
843.752	21937
843.889	21960
844.025	22070
844.162	21937
844.298	22086
844.435	21972
844.571	21850
844.708	21865
844.844	22048
844.98	22010
845.117	22029
845.253	21892
845.389	21793
845.525	21861
845.661	21831
845.798	21694
845.934	21656
846.07	21622
846.206	21690
846.342	21694
846.478	21603
846.614	21526
846.75	21233
846.886	21454
847.022	21477
847.158	21454
847.294	21405
847.429	21279
847.565	21344
847.701	21576
847.837	21138
847.972	21116
848.108	21214
848.244	21188
848.379	21043
848.515	21062
848.65	21009
848.786	21009
848.921	21036
849.057	21055
849.192	21055
849.328	20994
849.463	20979
849.598	20819
849.734	20857
849.869	20883
850.004	20792
850.14	20701
850.275	20773
850.41	20686
850.545	20746
850.68	20739
850.815	20811
850.95	20693
851.085	20910
851.22	20891
851.355	20724
851.49	20773
851.625	20796
851.76	20682
851.895	20636
852.03	20739
852.165	20948
852.299	20807
852.434	20883
852.569	20781
852.703	20693
852.838	20883
852.973	20937
853.107	20952
853.242	20663
853.376	20609
853.511	20465
853.645	20484
853.78	20655
853.914	20621
854.048	20454
854.183	20514
854.317	20724
854.451	20735
854.585	20686
854.72	20503
854.854	20648
854.988	20537
855.122	20727
855.256	20434
855.39	20526
855.524	20636
855.658	20606
855.792	20564
855.926	20678
856.06	20663
856.194	20705
856.327	20670
856.461	20575
856.595	20537
856.729	20522
856.862	20724
856.996	20556
857.13	20594
857.263	20686
857.397	20640
857.53	20522
857.664	20568
857.797	20689
857.931	20678
858.064	20651
858.197	20590
858.331	20514
858.464	20556
858.597	20476
858.731	20511
858.864	20625
858.997	20537
859.13	20499
859.263	20629
859.396	20541
859.529	20602
859.662	20507
859.795	20377
859.928	20663
860.061	20651
860.194	20785
860.327	20476
860.46	20575
860.592	20689
860.725	20644
860.858	20781
860.99	20583
861.123	20503
861.256	20480
861.388	20522
861.521	21104
861.653	20469
861.786	20427
861.918	20434
862.05	20583
862.183	20488
862.315	20526
862.447	20670
862.58	20366
862.712	20286
862.844	20275
862.976	20438
863.108	20415
863.24	20842
863.372	20214
863.504	20324
863.636	20275
863.768	20347
863.9	20442
864.032	20294
864.164	20218
864.296	20332
864.428	20434
864.559	20332
864.691	20381
864.823	20290
864.954	20298
865.086	20161
865.217	20176
865.349	20195
865.48	20183
865.612	20286
865.743	20305
865.875	20237
866.006	20187
866.137	20142
866.269	20252
866.4	20149
866.531	20195
866.662	20069
866.793	20187
866.924	20206
867.055	20221
867.186	20195
867.317	20134
867.448	20142
867.579	20142
867.71	20111
867.841	20069
867.972	20168
868.103	20161
868.233	20134
868.364	20134
868.495	20358
868.625	20366
868.756	20476
868.886	20328
869.017	20434
869.147	20408
869.278	20454
869.408	20469
869.539	20389
869.669	20545
869.799	20484
869.929	20454
870.06	20434
870.19	20746
870.32	20629
870.45	20792
870.58	20830
870.71	20868
870.84	20906
870.97	20830
871.1	20785
871.23	20902
871.36	21001
871.489	20849
871.619	20979
871.749	20986
871.879	21058
872.008	21146
872.138	21150
872.267	21005
872.397	20956
872.526	20826
872.656	20811
872.785	20788
872.915	21024
873.044	21116
873.173	21020
873.303	21146
873.432	21100
873.561	20956
873.69	21043
873.819	21043
873.948	21009
874.077	21066
874.206	20998
874.335	21051
874.464	21135
874.593	21226
874.722	21222
874.851	21363
874.979	21195
875.108	21268
875.237	21241
875.365	21051
875.494	21264
875.623	21412
875.751	21176
875.88	21226
876.008	21401
876.136	21431
876.265	21610
876.393	21857
876.521	21732
876.65	21671
876.778	21629
876.906	21492
877.034	21644
877.162	21488
877.29	21523
877.418	21603
877.546	21561
877.674	21595
877.802	21576
877.93	21614
878.058	21500
878.185	21580
878.313	21595
878.441	21496
878.568	21466
878.696	21572
878.824	21591
878.951	21713
879.079	21812
879.206	21937
879.333	21736
879.461	21606
879.588	21660
879.715	21743
879.842	21903
879.97	21633
880.097	21431
880.224	21447
880.351	21496
880.478	21504
880.605	21348
880.732	21367
880.859	21614
880.986	21420
881.112	21386
881.239	21279
881.366	21119
881.493	21043
881.619	20944
881.746	21089
881.872	20929
881.999	20918
882.125	20990
882.252	21005
882.378	21020
882.505	21104
882.631	20792
882.757	20674
882.883	20800
883.01	20819
883.136	20659
883.262	20579
883.388	20522
883.514	20746
883.64	20708
883.766	20651
883.892	20377
884.018	20575
884.143	20724
884.269	20727
884.395	20404
884.52	20415
884.646	20400
884.772	20278
884.897	20332
885.023	20427
885.148	20450
885.274	20617
885.399	20446
885.524	20385
885.65	20351
885.775	20404
885.9	20370
886.025	20343
886.15	20347
886.275	20366
886.4	20240
886.525	20286
886.65	20328
886.775	20210
886.9	20552
887.025	20537
887.149	20339
887.274	20126
887.399	20275
887.523	20172
887.648	20084
887.773	20020
887.897	20229
888.021	20191
888.146	20046
888.27	20252
888.395	20183
888.519	20191
888.643	20073
888.767	20161
888.891	20111
889.015	19936
889.139	20024
889.263	19967
889.387	20035
889.511	20103
889.635	20046
889.759	19917
889.883	19887
890.006	19997
890.13	20001
890.254	19909
890.377	19951
890.501	19681
890.624	19681
890.748	19662
890.871	19727
890.995	19422
891.118	19567
891.241	19624
891.364	19594
891.488	19666
891.611	19601
891.734	19449
891.857	19567
891.98	19518
892.103	19632
892.226	19518
892.349	19411
892.471	19499
892.594	19434
892.717	19518
892.839	19468
892.962	19438
893.085	19377
893.207	19514
893.33	19403
893.452	19304
893.575	19483
893.697	19426
893.819	19586
893.941	19674
894.064	19533
894.186	19407
894.308	19460
894.43	19556
894.552	19738
894.674	19525
894.796	19510
894.918	19403
895.04	19434
895.161	19525
895.283	19438
895.405	19350
895.526	19472
895.648	19514
895.769	19369
895.891	19354
896.012	19658
896.134	19472
896.255	19476
896.376	19457
896.498	19407
896.619	19411
896.74	19525
896.861	19514
896.982	19746
897.103	19845
897.224	19670
897.345	19651
897.466	19666
897.587	19624
897.708	19871
897.828	19746
897.949	19582
898.07	19483
898.19	19567
898.311	19807
898.431	19575
898.552	19693
898.672	19753
898.792	19658
898.913	19704
899.033	19655
899.153	19506
899.273	19434
899.393	19343
899.513	19468
899.633	19483
899.753	19540
899.873	19373
899.993	19434
900.113	19407
900.232	19396
900.352	19362
900.472	19263
900.591	19240
900.711	19289
900.83	19282
900.95	19263
901.069	19278
901.189	19141
901.308	18810
901.427	18840
901.546	18897
901.665	18878
901.784	18977
901.904	18730
902.023	18639
902.141	18384
902.26	18369
902.379	18403
902.498	18372
902.617	18327
902.735	18369
902.854	18380
902.973	18277
903.091	17992
903.21	18087
903.328	17996
903.446	18019
903.565	17912
903.683	17809
903.801	17718
903.919	17813
904.038	17771
904.156	17680
904.274	17699
904.392	17573
904.51	17421
904.627	17680
904.745	17714
904.863	17665
904.981	17417
905.098	17212
905.216	17296
905.334	17296
905.451	17242
905.569	17212
905.686	17341
905.803	17296
905.921	17060
906.038	17151
906.155	17090
906.272	16942
906.389	16976
906.506	16889
906.623	16854
906.74	16793
906.857	16729
906.974	16748
907.091	16877
907.208	16946
907.324	16809
907.441	16706
907.557	16683
907.674	16679
907.79	16615
907.907	16504
908.023	16519
908.139	16508
908.256	16455
908.372	16443
908.488	16367
908.604	16284
908.72	16333
908.836	16333
908.952	16329
909.068	16299
909.184	16341
909.3	16295
909.415	16333
909.531	16192
909.647	16063
909.762	16055
909.878	15956
909.993	15975
910.108	15873
910.224	15899
910.339	15937
910.454	15880
910.57	15766
910.685	15705
910.8	16040
910.915	15876
911.03	15804
911.145	15622
911.259	15576
911.374	15576
911.489	15435
911.604	15557
911.718	15378
911.833	15291
911.947	15249
912.062	15317
912.176	15317
912.291	15302
912.405	15420
912.519	15473
912.633	15568
912.748	15507
912.862	15203
912.976	15157
913.09	15001
913.204	15093
913.318	15192
913.431	15332
913.545	15211
913.659	15222
913.772	15047
913.886	15047
914	14918
914.113	15005
914.226	15020
914.34	15108
914.453	14804
914.566	15028
914.68	14887
914.793	14807
914.906	14689
915.019	14602
915.132	14594
915.245	14545
915.358	14575
915.47	14587
915.583	14629
915.696	14575
915.809	14667
915.921	14667
916.034	14541
916.146	14503
916.259	14438
916.371	14560
916.483	14556
916.595	14423
916.708	14476
916.82	14377
916.932	14381
917.044	14423
917.156	14320
917.268	14191
917.38	14275
917.491	14244
917.603	14377
917.715	14256
917.826	14385
917.938	14183
918.049	14138
918.161	14176
918.272	14320
918.384	14324
918.495	14275
918.606	14119
918.717	14046
918.828	14081
918.939	14111
919.05	13902
919.161	14058
919.272	13841
919.383	13879
919.494	14062
919.604	14183
919.715	13963
919.826	13936
919.936	14001
920.047	13963
920.157	14005
920.267	14126
920.378	14043
920.488	13951
920.598	14138
920.708	14328
920.818	14161
920.928	14077
921.038	14256
921.148	14237
921.258	13967
921.368	13955
921.477	13750
921.587	13753
921.697	13616
921.806	13780
921.916	13662
922.025	13426
922.134	13377
922.244	13362
922.353	13453
922.462	13301
922.571	13206
922.68	13110
922.789	13008
922.898	13046
923.007	12954
923.116	13103
923.224	13118
923.333	13046
923.442	12814
923.55	12791
923.659	12954
923.767	12863
923.876	12825
923.984	12954
924.092	12791
924.201	12821
924.309	12875
924.417	12715
924.525	12719
924.633	12684
924.741	13586
924.849	12475
924.956	12684
925.064	12506
925.172	12399
925.279	12471
925.387	12490
925.494	12460
925.602	12608
925.709	12536
925.816	12429
925.924	12445
926.031	12509
926.138	12391
926.245	12490
926.352	12395
926.459	12525
926.566	12604
926.673	12452
926.779	12319
926.886	12216
926.993	12060
927.099	12072
927.206	11996
927.312	12102
927.419	12091
927.525	11984
927.631	12053
927.737	11980
927.843	11874
927.95	11923
928.056	11954
928.162	12060
928.267	11999
928.373	12494
928.479	11969
928.585	11775
928.69	11954
928.796	11885
928.901	11714
929.007	11615
929.112	11813
929.218	11760
929.323	11688
929.428	11623
929.533	11859
929.638	11695
929.743	11577
929.848	11672
929.953	11623
930.058	11444
930.163	11402
930.267	11383
930.372	11509
930.477	11269
930.581	11600
930.685	11353
930.79	11178
930.894	11265
930.998	11197
931.103	11349
931.207	11022
931.311	10927
931.415	10885
931.519	10618
931.623	10535
