Data from test_V78500241_252.txt Node
Date: Fri Mar 25 15:11:36 CST 2022
User: usil
Spectrometer: V785-0024
Trigger mode: 0
Integration Time (sec): 4.000000E-1
Scans to average: 1
Nonlinearity correction enabled: false
Boxcar width: 0
Storing dark spectrum: false
XAxis mode: Wavelengths
Number of Pixels in Spectrum: 1024
>>>>>Begin Spectral Data<<<<<
801.071	28196
801.214	28268
801.356	28044
801.499	27953
801.641	27774
801.783	27755
801.926	27850
802.068	27698
802.211	27759
802.353	27641
802.496	27599
802.638	27545
802.78	27450
802.923	27393
803.065	27367
803.208	27325
803.35	27431
803.492	27526
803.635	27633
803.777	27561
803.919	27766
804.061	27888
804.204	27679
804.346	27671
804.488	27504
804.63	27648
804.773	27530
804.915	27652
805.057	27732
805.199	27648
805.341	27698
805.483	27675
805.626	27641
805.768	27610
805.91	27724
806.052	27629
806.194	27705
806.336	27873
806.478	27770
806.62	27713
806.762	27861
806.904	28074
807.046	28314
807.188	28055
807.33	28246
807.472	28177
807.614	28006
807.756	27941
807.898	27914
808.04	27972
808.182	27922
808.324	27941
808.465	27964
808.607	28063
808.749	28379
808.891	28375
809.033	28508
809.174	28485
809.316	28291
809.458	28398
809.6	28299
809.741	28390
809.883	28424
810.025	28694
810.166	28432
810.308	28519
810.45	28618
810.591	28462
810.733	28299
810.875	28291
811.016	28188
811.158	28211
811.299	28318
811.441	28440
811.582	28470
811.724	28147
811.865	28348
812.007	28314
812.148	28116
812.29	28382
812.431	28455
812.573	28512
812.714	28691
812.855	28843
812.997	28949
813.138	29003
813.279	28991
813.421	28881
813.562	28809
813.703	28653
813.845	28455
813.986	28162
814.127	28021
814.268	27975
814.41	27987
814.551	27869
814.692	27945
814.833	27835
814.974	27732
815.115	27937
815.256	27819
815.397	27819
815.539	27766
815.68	27641
815.821	27736
815.962	27629
816.103	27534
816.244	27743
816.385	27359
816.526	27538
816.666	27287
816.807	27093
816.948	27138
817.089	27329
817.23	27199
817.371	27051
817.512	27123
817.653	27066
817.793	27211
817.934	27199
818.075	27108
818.216	27036
818.356	27066
818.497	26902
818.638	26773
818.778	26823
818.919	26796
819.06	26872
819.2	27047
819.341	26990
819.481	27062
819.622	27176
819.762	27450
819.903	27329
820.043	27123
820.184	27214
820.324	27222
820.465	27085
820.605	27291
820.746	27214
820.886	27070
821.026	27055
821.167	27150
821.307	27180
821.447	27013
821.588	26948
821.728	26838
821.868	26686
822.008	26442
822.149	26495
822.289	26408
822.429	26427
822.569	26233
822.709	26298
822.849	26027
822.99	26012
823.13	26077
823.27	26008
823.41	25822
823.55	25689
823.69	25822
823.83	25791
823.97	25727
824.11	25693
824.25	25670
824.389	25628
824.529	25757
824.669	25559
824.809	25791
824.949	25613
825.089	25685
825.228	25556
825.368	25525
825.508	25491
825.648	25392
825.787	25624
825.927	25616
826.067	25544
826.206	25453
826.346	25601
826.485	25639
826.625	25468
826.765	25723
826.904	25419
827.044	25278
827.183	25209
827.323	25187
827.462	25316
827.601	25244
827.741	25072
827.88	25217
828.02	25008
828.159	25202
828.298	25171
828.437	25145
828.577	25008
828.716	25251
828.855	25065
828.994	24829
829.134	24947
829.273	24970
829.412	24867
829.551	24711
829.69	24833
829.829	24897
829.968	24920
830.107	24848
830.246	24776
830.385	24795
830.524	24798
830.663	24551
830.802	24509
830.941	24486
831.08	24369
831.219	24551
831.357	24612
831.496	24642
831.635	24429
831.774	24319
831.913	24258
832.051	24235
832.19	24395
832.329	24258
832.467	24243
832.606	24144
832.744	24133
832.883	24117
833.022	24064
833.16	24167
833.299	24220
833.437	24102
833.576	24201
833.714	24114
833.852	24174
833.991	24171
834.129	24194
834.267	24114
834.406	24228
834.544	24224
834.682	24197
834.821	24098
834.959	24194
835.097	24140
835.235	24133
835.373	24251
835.511	24148
835.65	23912
835.788	23999
835.926	24034
836.064	23672
836.202	23775
836.34	23984
836.478	24072
836.615	23847
836.753	23988
836.891	24060
837.029	23988
837.167	23836
837.305	23855
837.443	23939
837.58	23771
837.718	23824
837.856	23893
837.993	23771
838.131	23832
838.269	23657
838.406	23783
838.544	23661
838.681	23604
838.819	23315
838.956	23239
839.094	23383
839.231	23303
839.369	23444
839.506	23684
839.643	23440
839.781	23326
839.918	23322
840.055	23223
840.193	23212
840.33	23090
840.467	23174
840.604	23235
840.742	23322
840.879	22991
841.016	23060
841.153	23166
841.29	23056
841.427	23178
841.564	23223
841.701	23132
841.838	23170
841.975	22991
842.112	23102
842.249	23029
842.385	22900
842.522	23090
842.659	22885
842.796	22843
842.933	22942
843.069	22759
843.206	22771
843.343	22930
843.479	22873
843.616	22972
843.752	22672
843.889	22649
844.025	22744
844.162	22702
844.298	22656
844.435	22653
844.571	22592
844.708	22713
844.844	22740
844.98	22831
845.117	22683
845.253	22550
845.389	22428
845.525	22580
845.661	22447
845.798	22489
845.934	22459
846.07	22303
846.206	22432
846.342	22390
846.478	22291
846.614	22162
846.75	22082
846.886	21941
847.022	22219
847.158	22070
847.294	22086
847.429	22090
847.565	22040
847.701	22268
847.837	21838
847.972	21686
848.108	21819
848.244	21880
848.379	21743
848.515	21720
848.65	21778
848.786	21701
848.921	21800
849.057	21762
849.192	21690
849.328	21781
849.463	21633
849.598	21572
849.734	21622
849.869	21561
850.004	21496
850.14	21519
850.275	21412
850.41	21431
850.545	21367
850.68	21412
850.815	21469
850.95	21454
851.085	21553
851.22	21564
851.355	21393
851.49	21439
851.625	21481
851.76	21416
851.895	21310
852.03	21241
852.165	21317
852.299	21378
852.434	21523
852.569	21488
852.703	21439
852.838	21504
852.973	21519
853.107	21538
853.242	21306
853.376	21169
853.511	21051
853.645	21169
853.78	21435
853.914	21176
854.048	21123
854.183	21272
854.317	21203
854.451	21443
854.585	21268
854.72	21199
854.854	21237
854.988	21077
855.122	21329
855.256	21017
855.39	21237
855.524	21359
855.658	21252
855.792	21180
855.926	21256
856.06	21249
856.194	21233
856.327	21252
856.461	21241
856.595	21188
856.729	21233
856.862	21355
856.996	21275
857.13	21199
857.263	21260
857.397	21317
857.53	21089
857.664	21176
857.797	21165
857.931	21252
858.064	21104
858.197	21203
858.331	21176
858.464	21203
858.597	21028
858.731	21203
858.864	21081
858.997	21116
859.13	21321
859.263	21230
859.396	21283
859.529	21237
859.662	21165
859.795	21116
859.928	21211
860.061	21279
860.194	21252
860.327	21165
860.46	21241
860.592	21355
860.725	21294
860.858	21310
860.99	21154
861.123	21116
861.256	21131
861.388	21272
861.521	21808
861.653	21036
861.786	20971
861.918	21119
862.05	21039
862.183	21157
862.315	21142
862.447	21131
862.58	21085
862.712	20868
862.844	20880
862.976	21108
863.108	21096
863.24	21359
863.372	20731
863.504	20975
863.636	20971
863.768	20857
863.9	20979
864.032	20682
864.164	20796
864.296	20853
864.428	20910
864.559	20929
864.691	20994
864.823	20883
864.954	20887
865.086	20918
865.217	20746
865.349	20705
865.48	20674
865.612	20727
865.743	20895
865.875	20750
866.006	20777
866.137	20830
866.269	20849
866.4	20743
866.531	20796
866.662	20621
866.793	20682
866.924	20804
867.055	20800
867.186	20804
867.317	20705
867.448	20587
867.579	20564
867.71	20659
867.841	20629
867.972	20735
868.103	20632
868.233	20735
868.364	20678
868.495	20845
868.625	20868
868.756	21055
868.886	20842
869.017	20899
869.147	21085
869.278	21020
869.408	20895
869.539	20990
869.669	21009
869.799	21017
869.929	21081
870.06	21077
870.19	21142
870.32	21192
870.45	21260
870.58	21287
870.71	21469
870.84	21473
870.97	21329
871.1	21336
871.23	21504
871.36	21450
871.489	21416
871.619	21454
871.749	21519
871.879	21561
872.008	21561
872.138	21538
872.267	21523
872.397	21538
872.526	21401
872.656	21378
872.785	21435
872.915	21553
873.044	21641
873.173	21648
873.303	21641
873.432	21690
873.561	21701
873.69	21568
873.819	21443
873.948	21759
874.077	21641
874.206	21507
874.335	21473
874.464	21644
874.593	21766
874.722	21728
874.851	21835
874.979	21800
875.108	21835
875.237	21804
875.365	21614
875.494	21812
875.623	21857
875.751	21835
875.88	21781
876.008	21918
876.136	22006
876.265	22268
876.393	22348
876.521	22303
876.65	22215
876.778	22013
876.906	22021
877.034	22139
877.162	22051
877.29	22044
877.418	22249
877.546	22169
877.674	22135
877.802	22093
877.93	22246
878.058	21953
878.185	21956
878.313	22086
878.441	22139
878.568	21983
878.696	22078
878.824	22112
878.951	22223
879.079	22322
879.206	22466
879.333	22367
879.461	22215
879.588	22173
879.715	22379
879.842	22287
879.97	22139
880.097	21975
880.224	21979
880.351	22010
880.478	21968
880.605	21895
880.732	21930
880.859	22112
880.986	21991
881.112	21964
881.239	21827
881.366	21827
881.493	21576
881.619	21671
881.746	21557
881.872	21481
881.999	21549
882.125	21481
882.252	21564
882.378	21477
882.505	21644
882.631	21348
882.757	21272
882.883	21424
883.01	21283
883.136	21161
883.262	21055
883.388	21135
883.514	21222
883.64	21310
883.766	21195
883.892	21089
884.018	21085
884.143	21138
884.269	21393
884.395	21013
884.52	20819
884.646	20906
884.772	20853
884.897	20796
885.023	20925
885.148	21028
885.274	21020
885.399	21039
885.524	20925
885.65	20838
885.775	20937
885.9	20838
886.025	21112
886.15	21036
886.275	20807
886.4	20823
886.525	20830
886.65	20682
886.775	20819
886.9	21017
887.025	21085
887.149	20788
887.274	20777
887.399	20606
887.523	20659
887.648	20667
887.773	20625
887.897	20739
888.021	20678
888.146	20579
888.27	20758
888.395	20762
888.519	20659
888.643	20609
888.767	20739
888.891	20571
889.015	20522
889.139	20606
889.263	20336
889.387	20564
889.511	20514
889.635	20541
889.759	20427
889.883	20469
890.006	20419
890.13	20499
890.254	20385
890.377	20442
890.501	20294
890.624	20111
890.748	20180
890.871	20084
890.995	19955
891.118	19986
891.241	20054
891.364	20062
891.488	20005
891.611	20020
891.734	19936
891.857	19982
891.98	20065
892.103	20111
892.226	20161
892.349	19944
892.471	19833
892.594	20012
892.717	20020
892.839	19944
892.962	19818
893.085	20016
893.207	19936
893.33	19849
893.452	19875
893.575	19871
893.697	19868
893.819	20081
893.941	20096
894.064	20145
894.186	19803
894.308	19814
894.43	20073
894.552	20119
894.674	20024
894.796	19833
894.918	19898
895.04	19833
895.161	19940
895.283	19909
895.405	19845
895.526	19928
895.648	19951
895.769	20046
895.891	20031
896.012	20016
896.134	19955
896.255	19967
896.376	19811
896.498	20016
896.619	20054
896.74	19947
896.861	20115
896.982	20278
897.103	20484
897.224	20317
897.345	20202
897.466	20088
897.587	20126
897.708	20180
897.828	20195
897.949	20043
898.07	20031
898.19	20195
898.311	20210
898.431	19986
898.552	20130
898.672	20199
898.792	20256
898.913	20069
899.033	20081
899.153	19898
899.273	19856
899.393	19845
899.513	19887
899.633	19890
899.753	19803
899.873	19818
899.993	19898
900.113	19841
900.232	19864
900.352	19712
900.472	19746
900.591	19578
900.711	19620
900.83	19639
900.95	19742
901.069	19765
901.189	19529
901.308	19373
901.427	19274
901.546	19335
901.665	19282
901.784	19164
901.904	19148
902.023	18962
902.141	18867
902.26	18707
902.379	18901
902.498	18745
902.617	18722
902.735	18726
902.854	18658
902.973	18650
903.091	18422
903.21	18319
903.328	18429
903.446	18311
903.565	18224
903.683	18133
903.801	18030
903.919	18243
904.038	18209
904.156	17980
904.274	18148
904.392	18007
904.51	17965
904.627	18095
904.745	17980
904.863	18041
904.981	17828
905.098	17779
905.216	17577
905.334	17703
905.451	17737
905.569	17684
905.686	17649
905.803	17684
905.921	17452
906.038	17551
906.155	17486
906.272	17322
906.389	17292
906.506	17204
906.623	17239
906.74	17113
906.857	17132
906.974	17105
907.091	17258
907.208	17242
907.324	17151
907.441	17071
907.557	16778
907.674	16957
907.79	16812
907.907	16767
908.023	16885
908.139	16839
908.256	16843
908.372	16725
908.488	16763
908.604	16630
908.72	16565
908.836	16622
908.952	16546
909.068	16569
909.184	16748
909.3	16641
909.415	16569
909.531	16516
909.647	16379
909.762	16421
909.878	16234
909.993	16253
910.108	16299
910.224	16207
910.339	16219
910.454	16124
910.57	16059
910.685	16086
910.8	16291
910.915	16329
911.03	16173
911.145	15857
911.259	15865
911.374	15956
911.489	15732
911.604	15728
911.718	15652
911.833	15595
911.947	15481
912.062	15511
912.176	15587
912.291	15641
912.405	15644
912.519	15819
912.633	15850
912.748	15652
912.862	15553
912.976	15450
913.09	15348
913.204	15393
913.318	15439
913.431	15580
913.545	15557
913.659	15561
913.772	15462
913.886	15249
914	15264
914.113	15389
914.226	15340
914.34	15317
914.453	15081
914.566	15184
914.68	15074
914.793	15108
914.906	14887
915.019	14883
915.132	14842
915.245	14823
915.358	14895
915.47	14933
915.583	14857
915.696	14826
915.809	14933
915.921	14956
916.034	14826
916.146	14743
916.259	14720
916.371	14731
916.483	14872
916.595	14731
916.708	14705
916.82	14788
916.932	14716
917.044	14697
917.156	14587
917.268	14526
917.38	14503
917.491	14492
917.603	14549
917.715	14659
917.826	14579
917.938	14507
918.049	14286
918.161	14492
918.272	14568
918.384	14640
918.495	14541
918.606	14347
918.717	14240
918.828	14229
918.939	14343
919.05	14172
919.161	14374
919.272	13917
919.383	14130
919.494	14278
919.604	14537
919.715	14244
919.826	14248
919.936	14195
920.047	14317
920.157	14275
920.267	14385
920.378	14309
920.488	14164
920.598	14362
920.708	14556
920.818	14389
920.928	14328
921.038	14469
921.148	14469
921.258	14172
921.368	14142
921.477	13936
921.587	14012
921.697	13887
921.806	13913
921.916	13761
922.025	13575
922.134	13601
922.244	13552
922.353	13605
922.462	13552
922.571	13445
922.68	13339
922.789	13270
922.898	13278
923.007	13247
923.116	13202
923.224	13217
923.333	13114
923.442	13118
923.55	13133
923.659	13023
923.767	13259
923.876	13065
923.984	13107
924.092	13042
924.201	13034
924.309	12958
924.417	12962
924.525	12909
924.633	12958
924.741	13658
924.849	12703
924.956	12894
925.064	12692
925.172	12620
925.279	12681
925.387	12757
925.494	12753
925.602	12871
925.709	12749
925.816	12540
925.924	12665
926.031	12696
926.138	12627
926.245	12662
926.352	12540
926.459	12604
926.566	12719
926.673	12547
926.779	12475
926.886	12464
926.993	12258
927.099	12235
927.206	12205
927.312	12232
927.419	12247
927.525	12235
927.631	12296
927.737	12209
927.843	12125
927.95	12060
928.056	12110
928.162	12114
928.267	12232
928.373	12620
928.479	12136
928.585	11920
928.69	12038
928.796	12030
928.901	11946
929.007	11828
929.112	11980
929.218	11878
929.323	11866
929.428	11878
929.533	11958
929.638	11726
929.743	11779
929.848	11809
929.953	11764
930.058	11676
930.163	11551
930.267	11638
930.372	11611
930.477	11471
930.581	11745
930.685	11539
930.79	11322
930.894	11448
930.998	11410
931.103	11406
931.207	11162
931.311	11128
931.415	11052
931.519	10763
931.623	10767
