Data from test_V78500241_2782.txt Node
Date: Fri Mar 25 15:29:13 CST 2022
User: usil
Spectrometer: V785-0024
Trigger mode: 0
Integration Time (sec): 4.000000E-1
Scans to average: 1
Nonlinearity correction enabled: false
Boxcar width: 0
Storing dark spectrum: false
XAxis mode: Wavelengths
Number of Pixels in Spectrum: 1024
>>>>>Begin Spectral Data<<<<<
801.071	27127
801.214	27173
801.356	26937
801.499	26868
801.641	26705
801.783	26750
801.926	26773
802.068	26724
802.211	26579
802.353	26655
802.496	26484
802.638	26351
802.78	26385
802.923	26393
803.065	26328
803.208	26168
803.35	26324
803.492	26434
803.635	26469
803.777	26461
803.919	26552
804.061	26914
804.204	26514
804.346	26434
804.488	26427
804.63	26480
804.773	26374
804.915	26503
805.057	26682
805.199	26499
805.341	26377
805.483	26678
805.626	26556
805.768	26461
805.91	26758
806.052	26712
806.194	26560
806.336	26815
806.478	26552
806.62	26530
806.762	26648
806.904	26872
807.046	27009
807.188	27146
807.33	27093
807.472	27089
807.614	26940
807.756	27047
807.898	26823
808.04	26746
808.182	26834
808.324	26834
808.465	26975
808.607	27127
808.749	27165
808.891	27230
809.033	27401
809.174	27386
809.316	27260
809.458	27245
809.6	27188
809.741	27272
809.883	27401
810.025	27374
810.166	27473
810.308	27431
810.45	27416
810.591	27488
810.733	27108
810.875	27260
811.016	27199
811.158	27127
811.299	27291
811.441	27420
811.582	27435
811.724	27203
811.865	27100
812.007	27096
812.148	27176
812.29	27245
812.431	27431
812.573	27542
812.714	27724
812.855	27644
812.997	27717
813.138	27945
813.279	27701
813.421	27694
813.562	27778
813.703	27431
813.845	27473
813.986	27116
814.127	27043
814.268	26899
814.41	26880
814.551	26777
814.692	26876
814.833	26815
814.974	26838
815.115	26845
815.256	26796
815.397	26720
815.539	26758
815.68	26625
815.821	26522
815.962	26689
816.103	26689
816.244	26537
816.385	26377
816.526	26343
816.666	26225
816.807	26221
816.948	26012
817.089	26176
817.23	25997
817.371	26107
817.512	26115
817.653	26020
817.793	26035
817.934	26111
818.075	26168
818.216	26180
818.356	26005
818.497	25894
818.638	25902
818.778	25799
818.919	25963
819.06	25799
819.2	25982
819.341	26100
819.481	26191
819.622	26267
819.762	26374
819.903	26267
820.043	26298
820.184	26240
820.324	26168
820.465	26202
820.605	26153
820.746	26130
820.886	26012
821.026	26046
821.167	26005
821.307	26210
821.447	25989
821.588	25993
821.728	25879
821.868	25791
822.008	25624
822.149	25704
822.289	25647
822.429	25255
822.569	25301
822.709	25343
822.849	25126
822.99	25069
823.13	25080
823.27	25091
823.41	24943
823.55	24791
823.69	24837
823.83	24863
823.97	24814
824.11	24757
824.25	24730
824.389	24764
824.529	24928
824.669	24677
824.809	24924
824.949	24760
825.089	24787
825.228	24802
825.368	24517
825.508	24498
825.648	24456
825.787	24677
825.927	24608
826.067	24612
826.206	24578
826.346	24726
826.485	24650
826.625	24540
826.765	24620
826.904	24585
827.044	24445
827.183	24418
827.323	24304
827.462	24403
827.601	24365
827.741	24285
827.88	24304
828.02	24163
828.159	24167
828.298	24292
828.437	24395
828.577	24216
828.716	24300
828.855	24155
828.994	24015
829.134	23893
829.273	23942
829.412	23904
829.551	23992
829.69	23969
829.829	23969
829.968	24045
830.107	24003
830.246	23939
830.385	23992
830.524	23882
830.663	23798
830.802	23714
830.941	23619
831.08	23543
831.219	23707
831.357	23653
831.496	23855
831.635	23592
831.774	23429
831.913	23425
832.051	23349
832.19	23379
832.329	23474
832.467	23356
832.606	23086
832.744	23170
832.883	23178
833.022	23273
833.16	23254
833.299	23231
833.437	23315
833.576	23330
833.714	23353
833.852	23364
833.991	23364
834.129	23341
834.267	23463
834.406	23341
834.544	23349
834.682	23376
834.821	23303
834.959	23440
835.097	23227
835.235	23318
835.373	23273
835.511	23383
835.65	23212
835.788	23181
835.926	23067
836.064	22927
836.202	23022
836.34	23086
836.478	23269
836.615	23117
836.753	23105
836.891	23292
837.029	23155
837.167	23075
837.305	23136
837.443	22987
837.58	23044
837.718	23212
837.856	23060
837.993	22991
838.131	23044
838.269	22710
838.406	22927
838.544	22858
838.681	22698
838.819	22584
838.956	22542
839.094	22493
839.231	22622
839.369	22535
839.506	22980
839.643	22759
839.781	22554
839.918	22405
840.055	22447
840.193	22375
840.33	22443
840.467	22443
840.604	22341
840.742	22660
840.879	22348
841.016	22177
841.153	22329
841.29	22497
841.427	22550
841.564	22497
841.701	22375
841.838	22440
841.975	22242
842.112	22409
842.249	22306
842.385	22276
842.522	22348
842.659	22299
842.796	22116
842.933	22029
843.069	22181
843.206	22139
843.343	22204
843.479	22158
843.616	22169
843.752	22036
843.889	21937
844.025	22116
844.162	21968
844.298	21994
844.435	21964
844.571	22006
844.708	22051
844.844	22196
844.98	22162
845.117	21975
845.253	21880
845.389	21698
845.525	21812
845.661	21804
845.798	21846
845.934	21610
846.07	21637
846.206	21686
846.342	21827
846.478	21583
846.614	21428
846.75	21523
846.886	21408
847.022	21523
847.158	21302
847.294	21466
847.429	21431
847.565	21397
847.701	21675
847.837	21104
847.972	21096
848.108	21165
848.244	21252
848.379	21112
848.515	20933
848.65	21051
848.786	21005
848.921	20929
849.057	21161
849.192	21123
849.328	21001
849.463	21051
849.598	20960
849.734	20849
849.869	20773
850.004	20781
850.14	20769
850.275	20804
850.41	20678
850.545	20724
850.68	20746
850.815	20853
850.95	20765
851.085	20979
851.22	20788
851.355	20800
851.49	20712
851.625	20754
851.76	20762
851.895	20693
852.03	20785
852.165	20762
852.299	20830
852.434	20845
852.569	20670
852.703	20819
852.838	20716
852.973	20849
853.107	20956
853.242	20708
853.376	20583
853.511	20507
853.645	20568
853.78	20632
853.914	20629
854.048	20541
854.183	20594
854.317	20636
854.451	20800
854.585	20689
854.72	20663
854.854	20678
854.988	20571
855.122	20461
855.256	20492
855.39	20613
855.524	20815
855.658	20644
855.792	20625
855.926	20541
856.06	20651
856.194	20686
856.327	20594
856.461	20575
856.595	20518
856.729	20659
856.862	20648
856.996	20583
857.13	20754
857.263	20705
857.397	20716
857.53	20571
857.664	20606
857.797	20465
857.931	20838
858.064	20663
858.197	20609
858.331	20454
858.464	20522
858.597	20507
858.731	20533
858.864	20556
858.997	20583
859.13	20545
859.263	20655
859.396	20754
859.529	20579
859.662	20484
859.795	20469
859.928	20511
860.061	20670
860.194	20750
860.327	20549
860.46	20640
860.592	20796
860.725	20792
860.858	20579
860.99	20579
861.123	20522
861.256	20648
861.388	20598
861.521	21317
861.653	20427
861.786	20454
861.918	20393
862.05	20545
862.183	20450
862.315	20533
862.447	20651
862.58	20370
862.712	20419
862.844	20290
862.976	20305
863.108	20473
863.24	20796
863.372	20328
863.504	20275
863.636	20362
863.768	20374
863.9	20275
864.032	20240
864.164	20332
864.296	20339
864.428	20317
864.559	20400
864.691	20290
864.823	20366
864.954	20336
865.086	20263
865.217	20183
865.349	20100
865.48	20180
865.612	20221
865.743	20298
865.875	20248
866.006	20073
866.137	20240
866.269	20263
866.4	20088
866.531	20153
866.662	20176
866.793	20161
866.924	20077
867.055	20199
867.186	20142
867.317	20187
867.448	19989
867.579	19967
867.71	20020
867.841	20107
867.972	20244
868.103	20256
868.233	20199
868.364	20107
868.495	20221
868.625	20336
868.756	20412
868.886	20347
869.017	20347
869.147	20301
869.278	20511
869.408	20324
869.539	20393
869.669	20438
869.799	20366
869.929	20571
870.06	20545
870.19	20720
870.32	20697
870.45	20689
870.58	20815
870.71	20838
870.84	20979
870.97	20762
871.1	20792
871.23	20963
871.36	21043
871.489	20857
871.619	20891
871.749	21039
871.879	20967
872.008	21184
872.138	21066
872.267	20941
872.397	20887
872.526	20872
872.656	20765
872.785	20788
872.915	20990
873.044	21089
873.173	21104
873.303	21104
873.432	21070
873.561	21146
873.69	21146
873.819	20979
873.948	21150
874.077	21043
874.206	20994
874.335	21024
874.464	20944
874.593	21249
874.722	21272
874.851	21363
874.979	21211
875.108	21302
875.237	21279
875.365	21222
875.494	21165
875.623	21329
875.751	21340
875.88	21386
876.008	21363
876.136	21576
876.265	21599
876.393	21827
876.521	21686
876.65	21679
876.778	21774
876.906	21679
877.034	21515
877.162	21686
877.29	21530
877.418	21542
877.546	21538
877.674	21633
877.802	21671
877.93	21591
878.058	21481
878.185	21507
878.313	21500
878.441	21481
878.568	21477
878.696	21496
878.824	21504
878.951	21800
879.079	21728
879.206	21842
879.333	21663
879.461	21762
879.588	21713
879.715	21747
879.842	21861
879.97	21572
880.097	21466
880.224	21401
880.351	21549
880.478	21572
880.605	21454
880.732	21450
880.859	21698
880.986	21523
881.112	21393
881.239	21294
881.366	21233
881.493	21161
881.619	21028
881.746	21188
881.872	21024
881.999	21058
882.125	21017
882.252	20975
882.378	21017
882.505	21047
882.631	20941
882.757	20720
882.883	20762
883.01	20697
883.136	20705
883.262	20564
883.388	20461
883.514	20720
883.64	20868
883.766	20682
883.892	20492
884.018	20575
884.143	20644
884.269	20769
884.395	20446
884.52	20320
884.646	20393
884.772	20317
884.897	20320
885.023	20336
885.148	20393
885.274	20594
885.399	20476
885.524	20374
885.65	20423
885.775	20431
885.9	20423
886.025	20514
886.15	20423
886.275	20389
886.4	20263
886.525	20301
886.65	20320
886.775	20233
886.9	20469
887.025	20564
887.149	20404
887.274	20191
887.399	20138
887.523	20172
887.648	20100
887.773	20130
887.897	20183
888.021	20229
888.146	20282
888.27	20195
888.395	20096
888.519	20206
888.643	20126
888.767	20168
888.891	20100
889.015	20069
889.139	20043
889.263	19947
889.387	20069
889.511	20100
889.635	20100
889.759	19921
889.883	19970
890.006	20046
890.13	19940
890.254	19776
890.377	19947
890.501	19780
890.624	19578
890.748	19666
890.871	19597
890.995	19544
891.118	19518
891.241	19491
891.364	19567
891.488	19742
891.611	19480
891.734	19571
891.857	19609
891.98	19734
892.103	19601
892.226	19506
892.349	19548
892.471	19339
892.594	19460
892.717	19556
892.839	19540
892.962	19476
893.085	19441
893.207	19476
893.33	19388
893.452	19381
893.575	19430
893.697	19381
893.819	19567
893.941	19689
894.064	19556
894.186	19407
894.308	19445
894.43	19529
894.552	19601
894.674	19544
894.796	19411
894.918	19506
895.04	19392
895.161	19529
895.283	19384
895.405	19483
895.526	19445
895.648	19438
895.769	19468
895.891	19559
896.012	19499
896.134	19578
896.255	19480
896.376	19320
896.498	19499
896.619	19472
896.74	19457
896.861	19506
896.982	19689
897.103	19856
897.224	19689
897.345	19731
897.466	19734
897.587	19655
897.708	19818
897.828	19693
897.949	19693
898.07	19601
898.19	19514
898.311	19742
898.431	19582
898.552	19681
898.672	19879
898.792	19890
898.913	19769
899.033	19624
899.153	19643
899.273	19468
899.393	19487
899.513	19499
899.633	19487
899.753	19681
899.873	19441
899.993	19693
900.113	19362
900.232	19491
900.352	19369
900.472	19213
900.591	19251
900.711	19225
900.83	19183
900.95	19324
901.069	19350
901.189	19137
901.308	19065
901.427	18947
901.546	18886
901.665	18852
901.784	18859
901.904	18757
902.023	18585
902.141	18414
902.26	18365
902.379	18422
902.498	18213
902.617	18380
902.735	18437
902.854	18289
902.973	18243
903.091	18136
903.21	17954
903.328	18026
903.446	17965
903.565	17885
903.683	17878
903.801	17786
903.919	17760
904.038	17767
904.156	17676
904.274	17695
904.392	17573
904.51	17630
904.627	17615
904.745	17733
904.863	17687
904.981	17512
905.098	17303
905.216	17170
905.334	17345
905.451	17284
905.569	17292
905.686	17356
905.803	17273
905.921	17064
906.038	17124
906.155	17075
906.272	17079
906.389	17117
906.506	16847
906.623	16847
906.74	16820
906.857	16706
906.974	16763
907.091	16938
907.208	16953
907.324	16908
907.441	16767
907.557	16630
907.674	16637
907.79	16470
907.907	16546
908.023	16596
908.139	16660
908.256	16542
908.372	16421
908.488	16508
908.604	16363
908.72	16219
908.836	16234
908.952	16405
909.068	16166
909.184	16394
909.3	16238
909.415	16325
909.531	16314
909.647	16082
909.762	16051
909.878	16013
909.993	15972
910.108	15911
910.224	15861
910.339	15953
910.454	15915
910.57	15895
910.685	15705
910.8	16055
910.915	15975
911.03	15930
911.145	15679
911.259	15561
911.374	15587
911.489	15526
911.604	15584
911.718	15321
911.833	15378
911.947	15302
912.062	15260
912.176	15393
912.291	15344
912.405	15412
912.519	15633
912.633	15599
912.748	15439
912.862	15260
912.976	15173
913.09	15116
913.204	15218
913.318	15184
913.431	15252
913.545	15310
913.659	15226
913.772	15039
913.886	14990
914	15013
914.113	15146
914.226	15070
914.34	15093
914.453	14807
914.566	15043
914.68	14975
914.793	14849
914.906	14686
915.019	14606
915.132	14552
915.245	14564
915.358	14636
915.47	14617
915.583	14583
915.696	14674
915.809	14796
915.921	14712
916.034	14522
916.146	14518
916.259	14495
916.371	14598
916.483	14526
916.595	14492
916.708	14423
916.82	14377
916.932	14404
917.044	14404
917.156	14278
917.268	14240
917.38	14256
917.491	14237
917.603	14366
917.715	14324
917.826	14408
917.938	14145
918.049	14191
918.161	14252
918.272	14404
918.384	14427
918.495	14256
918.606	14119
918.717	14123
918.828	14062
918.939	14119
919.05	13955
919.161	13944
919.272	13841
919.383	13883
919.494	14065
919.604	14164
919.715	14096
919.826	14035
919.936	13925
920.047	14100
920.157	14115
920.267	14214
920.378	14046
920.488	13970
920.598	14119
920.708	14343
920.818	14130
920.928	14065
921.038	14377
921.148	14332
921.258	14050
921.368	13898
921.477	13902
921.587	13727
921.697	13700
921.806	13860
921.916	13529
922.025	13460
922.134	13419
922.244	13400
922.353	13464
922.462	13282
922.571	13152
922.68	13015
922.789	13080
922.898	13000
923.007	13080
923.116	13152
923.224	13069
923.333	13046
923.442	12970
923.55	12886
923.659	12852
923.767	13015
923.876	12791
923.984	12951
924.092	12878
924.201	12852
924.309	12806
924.417	12726
924.525	12783
924.633	12772
924.741	13537
924.849	12445
924.956	12741
925.064	12574
925.172	12490
925.279	12525
925.387	12517
925.494	12544
925.602	12570
925.709	12681
925.816	12467
925.924	12410
926.031	12559
926.138	12414
926.245	12506
926.352	12334
926.459	12456
926.566	12536
926.673	12486
926.779	12197
926.886	12281
926.993	12068
927.099	12110
927.206	12079
927.312	12034
927.419	12186
927.525	12095
927.631	12045
927.737	11984
927.843	11996
927.95	11832
928.056	11939
928.162	11988
928.267	11889
928.373	12631
928.479	12030
928.585	11786
928.69	11847
928.796	11996
928.901	11874
929.007	11623
929.112	11832
929.218	11805
929.323	11707
929.428	11630
929.533	11756
929.638	11604
929.743	11615
929.848	11634
929.953	11627
930.058	11608
930.163	11322
930.267	11372
930.372	11509
930.477	11223
930.581	11501
930.685	11402
930.79	11311
930.894	11261
930.998	11269
931.103	11269
931.207	10949
931.311	10885
931.415	10881
931.519	10672
931.623	10596
