Data from test_V78500241_701.txt Node
Date: Fri Mar 25 15:14:44 CST 2022
User: usil
Spectrometer: V785-0024
Trigger mode: 0
Integration Time (sec): 4.000000E-1
Scans to average: 1
Nonlinearity correction enabled: false
Boxcar width: 0
Storing dark spectrum: false
XAxis mode: Wavelengths
Number of Pixels in Spectrum: 1024
>>>>>Begin Spectral Data<<<<<
801.071	27998
801.214	27857
801.356	27660
801.499	27705
801.641	27747
801.783	27648
801.926	27629
802.068	27599
802.211	27500
802.353	27348
802.496	27279
802.638	27302
802.78	27249
802.923	27146
803.065	27055
803.208	27313
803.35	27249
803.492	27291
803.635	27374
803.777	27188
803.919	27469
804.061	27652
804.204	27496
804.346	27355
804.488	27367
804.63	27294
804.773	27370
804.915	27477
805.057	27648
805.199	27454
805.341	27519
805.483	27450
805.626	27641
805.768	27507
805.91	27530
806.052	27576
806.194	27553
806.336	27739
806.478	27606
806.62	27587
806.762	27667
806.904	27736
807.046	27979
807.188	27968
807.33	27926
807.472	28150
807.614	27937
807.756	27991
807.898	27945
808.04	27804
808.182	27736
808.324	27720
808.465	27797
808.607	28147
808.749	28257
808.891	28234
809.033	28363
809.174	28226
809.316	28261
809.458	28333
809.6	28234
809.741	28310
809.883	28169
810.025	28588
810.166	28596
810.308	28474
810.45	28512
810.591	28455
810.733	28348
810.875	28284
811.016	28219
811.158	28257
811.299	28135
811.441	28394
811.582	28413
811.724	28192
811.865	28390
812.007	28246
812.148	28333
812.29	28215
812.431	28428
812.573	28622
812.714	28550
812.855	28733
812.997	28877
813.138	29071
813.279	29014
813.421	28923
813.562	28622
813.703	28717
813.845	28424
813.986	28238
814.127	27994
814.268	27903
814.41	27960
814.551	28025
814.692	28154
814.833	27934
814.974	27895
815.115	27888
815.256	27903
815.397	27831
815.539	27911
815.68	27816
815.821	27774
815.962	27751
816.103	27762
816.244	27618
816.385	27504
816.526	27660
816.666	27393
816.807	27355
816.948	27272
817.089	27553
817.23	27321
817.371	27317
817.512	27287
817.653	27112
817.793	27192
817.934	27344
818.075	27260
818.216	27233
818.356	27370
818.497	27100
818.638	26933
818.778	27047
818.919	27047
819.06	27116
819.2	27203
819.341	27336
819.481	27252
819.622	27355
819.762	27488
819.903	27538
820.043	27469
820.184	27378
820.324	27325
820.465	27435
820.605	27256
820.746	27405
820.886	27211
821.026	27374
821.167	27355
821.307	27405
821.447	27348
821.588	27192
821.728	26975
821.868	26804
822.008	26750
822.149	26842
822.289	26705
822.429	26400
822.569	26412
822.709	26404
822.849	26233
822.99	26214
823.13	26149
823.27	26065
823.41	26065
823.55	25902
823.69	26005
823.83	26081
823.97	26058
824.11	25944
824.25	25830
824.389	25849
824.529	26001
824.669	25879
824.809	26035
824.949	26043
825.089	25959
825.228	26005
825.368	25769
825.508	25571
825.648	25845
825.787	25742
825.927	25898
826.067	25750
826.206	25685
826.346	25746
826.485	25932
826.625	25635
826.765	25731
826.904	25811
827.044	25556
827.183	25445
827.323	25438
827.462	25518
827.601	25453
827.741	25563
827.88	25658
828.02	25335
828.159	25403
828.298	25457
828.437	25537
828.577	25430
828.716	25586
828.855	25369
828.994	25289
829.134	25335
829.273	25350
829.412	25228
829.551	25122
829.69	24996
829.829	25240
829.968	25236
830.107	25137
830.246	25293
830.385	25156
830.524	25137
830.663	25034
830.802	24943
830.941	24776
831.08	24688
831.219	24943
831.357	24890
831.496	24886
831.635	24802
831.774	24825
831.913	24631
832.051	24574
832.19	24593
832.329	24563
832.467	24604
832.606	24525
832.744	24509
832.883	24452
833.022	24536
833.16	24414
833.299	24528
833.437	24578
833.576	24563
833.714	24563
833.852	24540
833.991	24585
834.129	24612
834.267	24517
834.406	24525
834.544	24597
834.682	24452
834.821	24509
834.959	24757
835.097	24620
835.235	24464
835.373	24589
835.511	24574
835.65	24426
835.788	24338
835.926	24190
836.064	24251
836.202	24163
836.34	24285
836.478	24433
836.615	24315
836.753	24330
836.891	24437
837.029	24270
837.167	24194
837.305	24182
837.443	24414
837.58	24228
837.718	24319
837.856	24209
837.993	24178
838.131	24167
838.269	24076
838.406	24095
838.544	24110
838.681	23817
838.819	23821
838.956	23714
839.094	23577
839.231	23737
839.369	23798
839.506	24003
839.643	23874
839.781	23619
839.918	23665
840.055	23589
840.193	23657
840.33	23493
840.467	23649
840.604	23562
840.742	23863
840.879	23455
841.016	23433
841.153	23516
841.29	23638
841.427	23429
841.564	23577
841.701	23615
841.838	23497
841.975	23524
842.112	23417
842.249	23311
842.385	23368
842.522	23543
842.659	23402
842.796	23277
842.933	23345
843.069	23280
843.206	23261
843.343	23490
843.479	23239
843.616	23208
843.752	23143
843.889	23242
844.025	23242
844.162	22987
844.298	23212
844.435	23086
844.571	23018
844.708	23124
844.844	23212
844.98	23326
845.117	23147
845.253	23029
845.389	23067
845.525	23014
845.661	22987
845.798	22805
845.934	22987
846.07	22763
846.206	22786
846.342	22847
846.478	22881
846.614	22592
846.75	22538
846.886	22497
847.022	22557
847.158	22634
847.294	22546
847.429	22694
847.565	22519
847.701	22679
847.837	22325
847.972	22310
848.108	22402
848.244	22356
848.379	22219
848.515	22162
848.65	22067
848.786	22169
848.921	22166
849.057	22204
849.192	22249
849.328	22249
849.463	22238
849.598	22169
849.734	22006
849.869	22067
850.004	21945
850.14	21956
850.275	22112
850.41	21800
850.545	21918
850.68	21941
850.815	22021
850.95	21876
851.085	22158
851.22	21994
851.355	21781
851.49	21876
851.625	21789
851.76	21888
851.895	21827
852.03	21778
852.165	21922
852.299	21998
852.434	21953
852.569	21899
852.703	21835
852.838	21949
852.973	22135
853.107	21975
853.242	21827
853.376	21774
853.511	21633
853.645	21709
853.78	22036
853.914	21804
854.048	21675
854.183	21728
854.317	21774
854.451	21930
854.585	21641
854.72	21778
854.854	21804
854.988	21576
855.122	21656
855.256	21473
855.39	21641
855.524	21698
855.658	21751
855.792	21766
855.926	21778
856.06	21838
856.194	21823
856.327	21766
856.461	21656
856.595	21675
856.729	21739
856.862	21892
856.996	21774
857.13	21660
857.263	21876
857.397	21728
857.53	21755
857.664	21705
857.797	21648
857.931	21873
858.064	21808
858.197	21785
858.331	21667
858.464	21675
858.597	21667
858.731	21728
858.864	21648
858.997	21690
859.13	21724
859.263	21713
859.396	21766
859.529	21793
859.662	21686
859.795	21732
859.928	21675
860.061	21911
860.194	21861
860.327	21789
860.46	21739
860.592	21781
860.725	21876
860.858	21797
860.99	21625
861.123	21690
861.256	21747
861.388	21713
861.521	22626
861.653	21648
861.786	21420
861.918	21591
862.05	21526
862.183	21538
862.315	21713
862.447	21873
862.58	21629
862.712	21553
862.844	21428
862.976	21542
863.108	21454
863.24	21774
863.372	21317
863.504	21397
863.636	21458
863.768	21401
863.9	21374
864.032	21344
864.164	21291
864.296	21420
864.428	21538
864.559	21507
864.691	21553
864.823	21374
864.954	21321
865.086	21405
865.217	21389
865.349	21233
865.48	21325
865.612	21260
865.743	21386
865.875	21382
866.006	21340
866.137	21317
866.269	21332
866.4	21340
866.531	21363
866.662	21165
866.793	21302
866.924	21260
867.055	21397
867.186	21306
867.317	21176
867.448	21135
867.579	21195
867.71	21188
867.841	21195
867.972	21272
868.103	21272
868.233	21226
868.364	21211
868.495	21252
868.625	21408
868.756	21549
868.886	21450
869.017	21408
869.147	21629
869.278	21648
869.408	21603
869.539	21538
869.669	21694
869.799	21557
869.929	21553
870.06	21561
870.19	21766
870.32	21827
870.45	21629
870.58	21857
870.71	21968
870.84	22017
870.97	21846
871.1	21926
871.23	22044
871.36	22105
871.489	22036
871.619	21979
871.749	22040
871.879	22070
872.008	22093
872.138	22051
872.267	22158
872.397	21949
872.526	21884
872.656	21968
872.785	21934
872.915	22059
873.044	22154
873.173	22040
873.303	22207
873.432	22112
873.561	22090
873.69	22063
873.819	22070
873.948	22059
874.077	22090
874.206	22002
874.335	22070
874.464	22196
874.593	22341
874.722	22230
874.851	22382
874.979	22344
875.108	22348
875.237	22360
875.365	22200
875.494	22284
875.623	22443
875.751	22272
875.88	22386
876.008	22459
876.136	22382
876.265	22782
876.393	22706
876.521	22729
876.65	22740
876.778	22622
876.906	22675
877.034	22440
877.162	22546
877.29	22603
877.418	22752
877.546	22626
877.674	22763
877.802	22637
877.93	22500
878.058	22615
878.185	22557
878.313	22577
878.441	22565
878.568	22459
878.696	22512
878.824	22618
878.951	22668
879.079	22755
879.206	22949
879.333	22778
879.461	22710
879.588	22805
879.715	22862
879.842	23018
879.97	22763
880.097	22557
880.224	22569
880.351	22531
880.478	22645
880.605	22462
880.732	22405
880.859	22516
880.986	22363
881.112	22413
881.239	22306
881.366	22181
881.493	22112
881.619	22051
881.746	22067
881.872	22055
881.999	22029
882.125	21949
882.252	22211
882.378	22120
882.505	22158
882.631	21892
882.757	21778
882.883	21778
883.01	21724
883.136	21641
883.262	21500
883.388	21542
883.514	21686
883.64	21698
883.766	21846
883.892	21488
884.018	21549
884.143	21724
884.269	21838
884.395	21488
884.52	21439
884.646	21401
884.772	21363
884.897	21264
885.023	21370
885.148	21583
885.274	21439
885.399	21416
885.524	21329
885.65	21473
885.775	21355
885.9	21351
886.025	21523
886.15	21454
886.275	21416
886.4	21298
886.525	21359
886.65	21252
886.775	21329
886.9	21420
887.025	21641
887.149	21348
887.274	21173
887.399	21112
887.523	21085
887.648	21176
887.773	21009
887.897	21165
888.021	21180
888.146	21154
888.27	21214
888.395	21195
888.519	21142
888.643	21279
888.767	21192
888.891	21142
889.015	20975
889.139	20914
889.263	20925
889.387	21070
889.511	21165
889.635	21112
889.759	21028
889.883	20944
890.006	21001
890.13	21013
890.254	20876
890.377	20921
890.501	20686
890.624	20705
890.748	20682
890.871	20476
890.995	20507
891.118	20465
891.241	20533
891.364	20492
891.488	20594
891.611	20511
891.734	20533
891.857	20609
891.98	20400
892.103	20609
892.226	20488
892.349	20431
892.471	20237
892.594	20434
892.717	20393
892.839	20503
892.962	20263
893.085	20434
893.207	20393
893.33	20202
893.452	20343
893.575	20431
893.697	20408
893.819	20522
893.941	20689
894.064	20488
894.186	20336
894.308	20290
894.43	20480
894.552	20511
894.674	20454
894.796	20404
894.918	20336
895.04	20381
895.161	20473
895.283	20476
895.405	20229
895.526	20393
895.648	20404
895.769	20499
895.891	20358
896.012	20503
896.134	20366
896.255	20294
896.376	20404
896.498	20393
896.619	20457
896.74	20393
896.861	20393
896.982	20693
897.103	20781
897.224	20746
897.345	20720
897.466	20587
897.587	20743
897.708	20750
897.828	20609
897.949	20598
898.07	20514
898.19	20454
898.311	20613
898.431	20400
898.552	20644
898.672	20598
898.792	20743
898.913	20541
899.033	20545
899.153	20423
899.273	20278
899.393	20351
899.513	20267
899.633	20358
899.753	20385
899.873	20377
899.993	20237
900.113	20332
900.232	20358
900.352	20271
900.472	20199
900.591	20031
900.711	20218
900.83	19993
900.95	20164
901.069	20142
901.189	20039
901.308	19852
901.427	19750
901.546	19689
901.665	19696
901.784	19712
901.904	19712
902.023	19616
902.141	19301
902.26	19274
902.379	19377
902.498	19175
902.617	19148
902.735	19137
902.854	19156
902.973	19076
903.091	18859
903.21	18791
903.328	18920
903.446	18734
903.565	18604
903.683	18741
903.801	18578
903.919	18631
904.038	18677
904.156	18509
904.274	18407
904.392	18445
904.51	18407
904.627	18460
904.745	18506
904.863	18452
904.981	18174
905.098	18064
905.216	18171
905.334	18232
905.451	18087
905.569	18144
905.686	18152
905.803	18136
905.921	17958
906.038	18015
906.155	17977
906.272	17870
906.389	17714
906.506	17718
906.623	17649
906.74	17611
906.857	17619
906.974	17471
907.091	17684
907.208	17851
907.324	17680
907.441	17554
907.557	17429
907.674	17303
907.79	17280
907.907	17452
908.023	17402
908.139	17368
908.256	17379
908.372	17193
908.488	17242
908.604	17064
908.72	17189
908.836	17083
908.952	17094
909.068	17014
909.184	17162
909.3	17083
909.415	17121
909.531	16980
909.647	16801
909.762	16740
909.878	16706
909.993	16839
910.108	16653
910.224	16702
910.339	16687
910.454	16702
910.57	16535
910.685	16535
910.8	16816
910.915	16603
911.03	16531
911.145	16466
911.259	16405
911.374	16481
911.489	16314
911.604	16295
911.718	16211
911.833	16086
911.947	16032
912.062	15812
912.176	16078
912.291	16025
912.405	16055
912.519	16192
912.633	16215
912.748	16181
912.862	16002
912.976	15915
913.09	15842
913.204	15793
913.318	15926
913.431	16002
913.545	16040
913.659	16032
913.772	15816
913.886	15812
914	15739
914.113	15835
914.226	15854
914.34	15869
914.453	15576
914.566	15717
914.68	15663
914.793	15599
914.906	15336
915.019	15355
915.132	15233
915.245	15382
915.358	15378
915.47	15412
915.583	15321
915.696	15344
915.809	15412
915.921	15462
916.034	15283
916.146	15233
916.259	15199
916.371	15214
916.483	15249
916.595	15154
916.708	15154
916.82	15112
916.932	15039
917.044	15085
917.156	15036
917.268	14948
917.38	15001
917.491	14960
917.603	14929
917.715	15055
917.826	15055
917.938	14933
918.049	14743
918.161	14910
918.272	15047
918.384	15051
918.495	14895
918.606	14800
918.717	14636
918.828	14716
918.939	14712
919.05	14613
919.161	14705
919.272	14499
919.383	14480
919.494	14693
919.604	14982
919.715	14765
919.826	14594
919.936	14602
920.047	14754
920.157	14720
920.267	14887
920.378	14727
920.488	14678
920.598	14716
920.708	15001
920.818	14724
920.928	14800
921.038	14918
921.148	14971
921.258	14587
921.368	14613
921.477	14377
921.587	14434
921.697	14309
921.806	14492
921.916	14298
922.025	14062
922.134	14134
922.244	14065
922.353	14134
922.462	14043
922.571	13814
922.68	13731
922.789	13681
922.898	13791
923.007	13685
923.116	13712
923.224	13715
923.333	13518
923.442	13590
923.55	13540
923.659	13525
923.767	13655
923.876	13491
923.984	13567
924.092	13327
924.201	13559
924.309	13468
924.417	13468
924.525	13293
924.633	13392
924.741	14153
924.849	13141
924.956	13278
925.064	13091
925.172	13076
925.279	13065
925.387	13069
925.494	13095
925.602	13255
925.709	13164
925.816	13107
925.924	12951
926.031	13187
926.138	13095
926.245	12989
926.352	12970
926.459	13118
926.566	13126
926.673	12882
926.779	12939
926.886	12837
926.993	12722
927.099	12700
927.206	12612
927.312	12559
927.419	12616
927.525	12627
927.631	12719
927.737	12559
927.843	12570
927.95	12353
928.056	12460
928.162	12464
928.267	12479
928.373	13065
928.479	12642
928.585	12407
928.69	12445
928.796	12448
928.901	12292
929.007	12201
929.112	12361
929.218	12235
929.323	12216
929.428	12205
929.533	12319
929.638	12228
929.743	12178
929.848	12205
929.953	12216
930.058	12030
930.163	11878
930.267	11950
930.372	12007
930.477	11813
930.581	12060
930.685	11958
930.79	11752
930.894	11783
930.998	11809
931.103	11874
931.207	11524
931.311	11448
931.415	11261
931.519	11178
931.623	11201
