Data from test_V78500241_477.txt Node
Date: Fri Mar 25 15:13:10 CST 2022
User: usil
Spectrometer: V785-0024
Trigger mode: 0
Integration Time (sec): 4.000000E-1
Scans to average: 1
Nonlinearity correction enabled: false
Boxcar width: 0
Storing dark spectrum: false
XAxis mode: Wavelengths
Number of Pixels in Spectrum: 1024
>>>>>Begin Spectral Data<<<<<
801.071	27313
801.214	27237
801.356	27043
801.499	27096
801.641	26960
801.783	26933
801.926	26979
802.068	26845
802.211	26872
802.353	26838
802.496	26720
802.638	26686
802.78	26476
802.923	26613
803.065	26389
803.208	26423
803.35	26552
803.492	26613
803.635	26720
803.777	26670
803.919	26902
804.061	26975
804.204	26857
804.346	26636
804.488	26667
804.63	26750
804.773	26670
804.915	26651
805.057	26838
805.199	26678
805.341	26918
805.483	26895
805.626	26815
805.768	26746
805.91	26788
806.052	26830
806.194	26781
806.336	27039
806.478	26940
806.62	26857
806.762	27013
806.904	27009
807.046	27348
807.188	27310
807.33	27310
807.472	27378
807.614	27199
807.756	27203
807.898	27157
808.04	27093
808.182	26952
808.324	27161
808.465	27127
808.607	27275
808.749	27416
808.891	27313
809.033	27682
809.174	27492
809.316	27492
809.458	27485
809.6	27454
809.741	27507
809.883	27622
810.025	27781
810.166	27724
810.308	27797
810.45	27644
810.591	27800
810.733	27625
810.875	27538
811.016	27325
811.158	27302
811.299	27519
811.441	27523
811.582	27534
811.724	27454
811.865	27443
812.007	27427
812.148	27443
812.29	27389
812.431	27667
812.573	27819
812.714	28002
812.855	27895
812.997	27987
813.138	28192
813.279	28086
813.421	28036
813.562	27975
813.703	27778
813.845	27736
813.986	27523
814.127	27359
814.268	27135
814.41	27077
814.551	27119
814.692	27199
814.833	27028
814.974	27028
815.115	27100
815.256	27020
815.397	27009
815.539	27005
815.68	26864
815.821	26876
815.962	26921
816.103	26838
816.244	26712
816.385	26648
816.526	26632
816.666	26511
816.807	26336
816.948	26617
817.089	26583
817.23	26549
817.371	26412
817.512	26404
817.653	26396
817.793	26366
817.934	26465
818.075	26492
818.216	26393
818.356	26457
818.497	26332
818.638	26202
818.778	26138
818.919	26240
819.06	26328
819.2	26210
819.341	26362
819.481	26377
819.622	26613
819.762	26750
819.903	26564
820.043	26606
820.184	26442
820.324	26545
820.465	26602
820.605	26606
820.746	26526
820.886	26385
821.026	26522
821.167	26415
821.307	26587
821.447	26412
821.588	26377
821.728	26275
821.868	26100
822.008	25849
822.149	26008
822.289	25811
822.429	25616
822.569	25552
822.709	25533
822.849	25419
822.99	25483
823.13	25373
823.27	25343
823.41	25171
823.55	25137
823.69	25221
823.83	25301
823.97	25080
824.11	24958
824.25	24989
824.389	25004
824.529	25175
824.669	24951
824.809	25069
824.949	25190
825.089	25027
825.228	24966
825.368	24875
825.508	24848
825.648	24905
825.787	25076
825.927	24833
826.067	24852
826.206	24791
826.346	24894
826.485	24791
826.625	24715
826.765	24913
826.904	24989
827.044	24646
827.183	24700
827.323	24555
827.462	24604
827.601	24597
827.741	24513
827.88	24528
828.02	24532
828.159	24608
828.298	24544
828.437	24582
828.577	24623
828.716	24608
828.855	24555
828.994	24540
829.134	24266
829.273	24388
829.412	24281
829.551	24220
829.69	24342
829.829	24334
829.968	24437
830.107	24372
830.246	24399
830.385	24213
830.524	24106
830.663	24003
830.802	24106
830.941	23889
831.08	23809
831.219	23988
831.357	23984
831.496	24155
831.635	23912
831.774	23752
831.913	23752
832.051	23691
832.19	23779
832.329	23733
832.467	23570
832.606	23627
832.744	23528
832.883	23665
833.022	23653
833.16	23585
833.299	23596
833.437	23630
833.576	23695
833.714	23630
833.852	23798
833.991	23710
834.129	23737
834.267	23729
834.406	23733
834.544	23729
834.682	23657
834.821	23657
834.959	23847
835.097	23627
835.235	23649
835.373	23657
835.511	23531
835.65	23611
835.788	23482
835.926	23406
836.064	23345
836.202	23410
836.34	23558
836.478	23509
836.615	23448
836.753	23509
836.891	23687
837.029	23604
837.167	23444
837.305	23383
837.443	23433
837.58	23296
837.718	23364
837.856	23429
837.993	23345
838.131	23395
838.269	23258
838.406	23421
838.544	23223
838.681	23018
838.819	22957
838.956	22885
839.094	22873
839.231	22999
839.369	23029
839.506	23189
839.643	23067
839.781	22843
839.918	22786
840.055	22927
840.193	22725
840.33	22797
840.467	22664
840.604	22698
840.742	23010
840.879	22698
841.016	22694
841.153	22729
841.29	22900
841.427	22763
841.564	22858
841.701	22801
841.838	22767
841.975	22782
842.112	22668
842.249	22481
842.385	22443
842.522	22755
842.659	22603
842.796	22504
842.933	22478
843.069	22443
843.206	22615
843.343	22580
843.479	22531
843.616	22634
843.752	22428
843.889	22280
844.025	22386
844.162	22249
844.298	22405
844.435	22257
844.571	22265
844.708	22325
844.844	22474
844.98	22341
845.117	22360
845.253	22230
845.389	22112
845.525	22287
845.661	22287
845.798	22093
845.934	22207
846.07	22040
846.206	22109
846.342	22109
846.478	22116
846.614	21743
846.75	21774
846.886	21751
847.022	21850
847.158	21808
847.294	21682
847.429	21842
847.565	21641
847.701	21934
847.837	21587
847.972	21549
848.108	21599
848.244	21519
848.379	21408
848.515	21272
848.65	21310
848.786	21500
848.921	21344
849.057	21523
849.192	21412
849.328	21367
849.463	21325
849.598	21294
849.734	21275
849.869	21135
850.004	21184
850.14	21173
850.275	21256
850.41	20956
850.545	21070
850.68	21089
850.815	21165
850.95	21066
851.085	21283
851.22	21184
851.355	21112
851.49	21039
851.625	21081
851.76	21237
851.895	20960
852.03	20975
852.165	21100
852.299	21161
852.434	21214
852.569	21104
852.703	21142
852.838	21195
852.973	21226
853.107	21313
853.242	20986
853.376	21028
853.511	20834
853.645	20971
853.78	21066
853.914	20971
854.048	21039
854.183	20963
854.317	20876
854.451	21081
854.585	20796
854.72	21005
854.854	21081
854.988	20914
855.122	20842
855.256	20857
855.39	20849
855.524	21013
855.658	21096
855.792	20944
855.926	21051
856.06	20914
856.194	21024
856.327	21009
856.461	20887
856.595	20868
856.729	20937
856.862	21184
856.996	20967
857.13	21017
857.263	21112
857.397	21036
857.53	20963
857.664	20960
857.797	20944
857.931	21074
858.064	20986
858.197	20883
858.331	20998
858.464	20929
858.597	20861
858.731	20937
858.864	20823
858.997	20929
859.13	20921
859.263	20979
859.396	20967
859.529	20921
859.662	20845
859.795	21005
859.928	20925
860.061	21131
860.194	21138
860.327	20872
860.46	21093
860.592	20952
860.725	21032
860.858	21081
860.99	21108
861.123	20864
861.256	20796
861.388	21009
861.521	21641
861.653	20883
861.786	20773
861.918	20830
862.05	20826
862.183	20967
862.315	20971
862.447	20891
862.58	20823
862.712	20727
862.844	20663
862.976	20872
863.108	20902
863.24	21218
863.372	20632
863.504	20571
863.636	20667
863.768	20712
863.9	20583
864.032	20621
864.164	20663
864.296	20651
864.428	20838
864.559	20743
864.691	20754
864.823	20724
864.954	20670
865.086	20625
865.217	20568
865.349	20469
865.48	20579
865.612	20598
865.743	20689
865.875	20648
866.006	20541
866.137	20670
866.269	20552
866.4	20575
866.531	20556
866.662	20541
866.793	20476
866.924	20533
867.055	20511
867.186	20541
867.317	20412
867.448	20434
867.579	20644
867.71	20400
867.841	20476
867.972	20511
868.103	20450
868.233	20560
868.364	20530
868.495	20613
868.625	20705
868.756	20796
868.886	20575
869.017	20788
869.147	20762
869.278	20838
869.408	20720
869.539	20788
869.669	20838
869.799	20830
869.929	20960
870.06	20830
870.19	21066
870.32	20956
870.45	21100
870.58	21112
870.71	21127
870.84	21138
870.97	21089
871.1	21070
871.23	21348
871.36	21348
871.489	21222
871.619	21370
871.749	21340
871.879	21310
872.008	21450
872.138	21348
872.267	21359
872.397	21264
872.526	21287
872.656	21173
872.785	21180
872.915	21378
873.044	21492
873.173	21370
873.303	21340
873.432	21351
873.561	21580
873.69	21283
873.819	21374
873.948	21454
874.077	21382
874.206	21306
874.335	21382
874.464	21435
874.593	21507
874.722	21549
874.851	21675
874.979	21667
875.108	21576
875.237	21507
875.365	21492
875.494	21603
875.623	21587
875.751	21663
875.88	21660
876.008	21713
876.136	21739
876.265	21975
876.393	22086
876.521	22036
876.65	22036
876.778	22158
876.906	21949
877.034	21884
877.162	21949
877.29	21850
877.418	22017
877.546	22021
877.674	21865
877.802	21991
877.93	21816
878.058	21994
878.185	21880
878.313	21956
878.441	21991
878.568	21823
878.696	22025
878.824	21987
878.951	22044
879.079	22101
879.206	22242
879.333	22086
879.461	22013
879.588	22055
879.715	22105
879.842	22211
879.97	22059
880.097	21701
880.224	21854
880.351	21789
880.478	21861
880.605	21888
880.732	21793
880.859	21934
880.986	21850
881.112	21766
881.239	21637
881.366	21572
881.493	21450
881.619	21378
881.746	21382
881.872	21488
881.999	21279
882.125	21291
882.252	21355
882.378	21378
882.505	21507
882.631	21279
882.757	21001
882.883	21230
883.01	21062
883.136	21100
883.262	20899
883.388	20861
883.514	20994
883.64	21108
883.766	20990
883.892	20796
884.018	20823
884.143	21028
884.269	21036
884.395	20830
884.52	20724
884.646	20708
884.772	20674
884.897	20697
885.023	20758
885.148	20720
885.274	20895
885.399	20819
885.524	20648
885.65	20682
885.775	20606
885.9	20670
886.025	20788
886.15	20682
886.275	20651
886.4	20655
886.525	20785
886.65	20564
886.775	20590
886.9	20834
887.025	20891
887.149	20716
887.274	20385
887.399	20389
887.523	20419
887.648	20522
887.773	20457
887.897	20549
888.021	20511
888.146	20423
888.27	20655
888.395	20602
888.519	20423
888.643	20560
888.767	20518
888.891	20362
889.015	20271
889.139	20446
889.263	20229
889.387	20480
889.511	20476
889.635	20473
889.759	20161
889.883	20339
890.006	20351
890.13	20328
890.254	20180
890.377	20305
890.501	20084
890.624	20077
890.748	20077
890.871	19864
890.995	19856
891.118	19807
891.241	19902
891.364	19803
891.488	19852
891.611	19883
891.734	19932
891.857	19925
891.98	19845
892.103	19925
892.226	19928
892.349	19814
892.471	19696
892.594	19830
892.717	19818
892.839	19776
892.962	19681
893.085	19727
893.207	19769
893.33	19689
893.452	19605
893.575	19906
893.697	19643
893.819	19944
893.941	20020
894.064	19830
894.186	19696
894.308	19776
894.43	19784
894.552	19932
894.674	19860
894.796	19647
894.918	19715
895.04	19795
895.161	19795
895.283	19772
895.405	19658
895.526	19753
895.648	19700
895.769	19704
895.891	19883
896.012	19757
896.134	19845
896.255	19769
896.376	19712
896.498	19814
896.619	19860
896.74	19734
896.861	19833
896.982	20050
897.103	20275
897.224	20035
897.345	19894
897.466	19921
897.587	20035
897.708	20103
897.828	20005
897.949	19944
898.07	19833
898.19	19803
898.311	19997
898.431	19951
898.552	19967
898.672	19974
898.792	19986
898.913	19986
899.033	19769
899.153	19826
899.273	19567
899.393	19700
899.513	19864
899.633	19731
899.753	19799
899.873	19750
899.993	19795
900.113	19632
900.232	19670
900.352	19662
900.472	19548
900.591	19521
900.711	19540
900.83	19438
900.95	19658
901.069	19582
901.189	19453
901.308	19171
901.427	19137
901.546	19061
901.665	19171
901.784	19072
901.904	18909
902.023	18993
902.141	18669
902.26	18570
902.379	18833
902.498	18688
902.617	18707
902.735	18684
902.854	18749
902.973	18566
903.091	18315
903.21	18334
903.328	18296
903.446	18140
903.565	18216
903.683	18197
903.801	17954
903.919	18110
904.038	18064
904.156	17885
904.274	17874
904.392	17859
904.51	17946
904.627	17923
904.745	17935
904.863	17847
904.981	17718
905.098	17608
905.216	17547
905.334	17623
905.451	17615
905.569	17459
905.686	17615
905.803	17516
905.921	17356
906.038	17493
906.155	17322
906.272	17220
906.389	17318
906.506	17006
906.623	17109
906.74	17155
906.857	17048
906.974	17056
907.091	17147
907.208	17151
907.324	17193
907.441	16858
907.557	16915
907.674	16736
907.79	16687
907.907	16725
908.023	16820
908.139	16854
908.256	16778
908.372	16755
908.488	16577
908.604	16504
908.72	16519
908.836	16588
908.952	16462
909.068	16622
909.184	16618
909.3	16474
909.415	16554
909.531	16596
909.647	16363
909.762	16318
909.878	16120
909.993	16211
910.108	16249
910.224	16204
910.339	16230
910.454	16112
910.57	16150
910.685	15991
910.8	16310
910.915	16249
911.03	16059
911.145	15937
911.259	15850
911.374	15804
911.489	15778
911.604	15701
911.718	15610
911.833	15641
911.947	15477
912.062	15420
912.176	15549
912.291	15576
912.405	15542
912.519	15838
912.633	15698
912.748	15603
912.862	15599
912.976	15378
913.09	15401
913.204	15351
913.318	15382
913.431	15458
913.545	15488
913.659	15454
913.772	15363
913.886	15218
914	15119
914.113	15389
914.226	15268
914.34	15245
914.453	15062
914.566	15226
914.68	15104
914.793	15192
914.906	14876
915.019	14899
915.132	14754
915.245	14876
915.358	14895
915.47	14853
915.583	14842
915.696	14864
915.809	14960
915.921	14902
916.034	14724
916.146	14826
916.259	14819
916.371	14804
916.483	14758
916.595	14663
916.708	14712
916.82	14701
916.932	14636
917.044	14583
917.156	14579
917.268	14503
917.38	14602
917.491	14526
917.603	14537
917.715	14579
917.826	14530
917.938	14457
918.049	14393
918.161	14450
918.272	14610
918.384	14568
918.495	14396
918.606	14309
918.717	14225
918.828	14233
918.939	14309
919.05	14123
919.161	14278
919.272	14073
919.383	14065
919.494	14233
919.604	14473
919.715	14218
919.826	14123
919.936	14157
920.047	14298
920.157	14195
920.267	14450
920.378	14183
920.488	14164
920.598	14362
920.708	14571
920.818	14355
920.928	14355
921.038	14454
921.148	14442
921.258	14248
921.368	14065
921.477	13997
921.587	13841
921.697	13860
921.806	13967
921.916	13898
922.025	13651
922.134	13685
922.244	13590
922.353	13567
922.462	13552
922.571	13400
922.68	13312
922.789	13247
922.898	13149
923.007	13213
923.116	13266
923.224	13247
923.333	13240
923.442	13110
923.55	13099
923.659	13114
923.767	13114
923.876	13061
923.984	13057
924.092	12962
924.201	13038
924.309	13110
924.417	13031
924.525	12943
924.633	12886
924.741	13917
924.849	12738
924.956	12825
925.064	12734
925.172	12688
925.279	12608
925.387	12776
925.494	12715
925.602	12722
925.709	12741
925.816	12601
925.924	12559
926.031	12688
926.138	12623
926.245	12688
926.352	12521
926.459	12642
926.566	12734
926.673	12612
926.779	12323
926.886	12498
926.993	12361
927.099	12353
927.206	12209
927.312	12258
927.419	12441
927.525	12292
927.631	12216
927.737	12110
927.843	12178
927.95	12053
928.056	12106
928.162	12167
928.267	12117
928.373	12612
928.479	12186
928.585	11942
928.69	12022
928.796	12079
928.901	11954
929.007	11786
929.112	11980
929.218	11946
929.323	11843
929.428	11745
929.533	11954
929.638	11779
929.743	11821
929.848	11786
929.953	11794
930.058	11661
930.163	11615
930.267	11482
930.372	11741
930.477	11554
930.581	11722
930.685	11589
930.79	11421
930.894	11410
930.998	11425
931.103	11512
931.207	11204
931.311	11090
931.415	11014
931.519	10843
931.623	10675
