Data from test_V78500241_68.txt Node
Date: Fri Mar 25 15:10:20 CST 2022
User: usil
Spectrometer: V785-0024
Trigger mode: 0
Integration Time (sec): 4.000000E-1
Scans to average: 1
Nonlinearity correction enabled: false
Boxcar width: 0
Storing dark spectrum: false
XAxis mode: Wavelengths
Number of Pixels in Spectrum: 1024
>>>>>Begin Spectral Data<<<<<
801.071	28786
801.214	28649
801.356	28550
801.499	28508
801.641	28230
801.783	28219
801.926	28341
802.068	28147
802.211	28226
802.353	28162
802.496	27983
802.638	27857
802.78	27953
802.923	27835
803.065	27770
803.208	27797
803.35	27956
803.492	28017
803.635	28010
803.777	27892
803.919	28101
804.061	28398
804.204	28032
804.346	27937
804.488	27800
804.63	27960
804.773	27846
804.915	27914
805.057	28055
805.199	27838
805.341	28025
805.483	28040
805.626	28059
805.768	28040
805.91	28150
806.052	28036
806.194	27922
806.336	28200
806.478	28025
806.62	27972
806.762	28116
806.904	28265
807.046	28348
807.188	28306
807.33	28481
807.472	28622
807.614	28287
807.756	28443
807.898	28230
808.04	28135
808.182	28169
808.324	28242
808.465	28291
808.607	28390
808.749	28523
808.891	28603
809.033	28740
809.174	28634
809.316	28607
809.458	28698
809.6	28649
809.741	28656
809.883	28641
810.025	28778
810.166	28771
810.308	28774
810.45	28797
810.591	28721
810.733	28478
810.875	28390
811.016	28348
811.158	28512
811.299	28497
811.441	28573
811.582	28611
811.724	28348
811.865	28428
812.007	28569
812.148	28519
812.29	28550
812.431	28634
812.573	28755
812.714	28949
812.855	28881
812.997	29128
813.138	29208
813.279	29033
813.421	28854
813.562	28782
813.703	28733
813.845	28584
813.986	28337
814.127	28303
814.268	28112
814.41	28295
814.551	28143
814.692	27975
814.833	27998
814.974	28013
815.115	28074
815.256	27842
815.397	27949
815.539	27880
815.68	27876
815.821	27698
815.962	27934
816.103	27686
816.244	27644
816.385	27667
816.526	27496
816.666	27492
816.807	27268
816.948	27252
817.089	27568
817.23	27268
817.371	27188
817.512	27256
817.653	27123
817.793	27089
817.934	27184
818.075	27173
818.216	27287
818.356	27104
818.497	26937
818.638	26910
818.778	26975
818.919	26842
819.06	26994
819.2	26979
819.341	27176
819.481	27104
819.622	27226
819.762	27435
819.903	27348
820.043	27291
820.184	27329
820.324	27233
820.465	27184
820.605	27237
820.746	27009
820.886	27032
821.026	27192
821.167	27123
821.307	27180
821.447	27135
821.588	27051
821.728	26785
821.868	26853
822.008	26579
822.149	26442
822.289	26617
822.429	26298
822.569	26157
822.709	26138
822.849	26134
822.99	26001
823.13	25978
823.27	26122
823.41	25776
823.55	25712
823.69	25879
823.83	25826
823.97	25799
824.11	25552
824.25	25479
824.389	25559
824.529	25681
824.669	25613
824.809	25776
824.949	25662
825.089	25833
825.228	25453
825.368	25350
825.508	25464
825.648	25339
825.787	25460
825.927	25331
826.067	25369
826.206	25381
826.346	25525
826.485	25575
826.625	25407
826.765	25434
826.904	25468
827.044	25152
827.183	25179
827.323	25023
827.462	25038
827.601	24996
827.741	25065
827.88	25099
828.02	24890
828.159	25004
828.298	25076
828.437	24970
828.577	24844
828.716	25198
828.855	24989
828.994	24814
829.134	24734
829.273	24867
829.412	24658
829.551	24623
829.69	24574
829.829	24795
829.968	24738
830.107	24681
830.246	24707
830.385	24753
830.524	24707
830.663	24418
830.802	24467
830.941	24327
831.08	24213
831.219	24365
831.357	24376
831.496	24372
831.635	24258
831.774	24220
831.913	24110
832.051	23908
832.19	24011
832.329	24018
832.467	24011
832.606	23908
832.744	23779
832.883	23904
833.022	23805
833.16	23878
833.299	23935
833.437	23980
833.576	23942
833.714	23889
833.852	23931
833.991	23893
834.129	23969
834.267	24057
834.406	23809
834.544	23897
834.682	23783
834.821	23897
834.959	23942
835.097	23897
835.235	23889
835.373	23805
835.511	23824
835.65	23779
835.788	23707
835.926	23539
836.064	23433
836.202	23459
836.34	23714
836.478	23855
836.615	23783
836.753	23665
836.891	23805
837.029	23824
837.167	23482
837.305	23524
837.443	23680
837.58	23463
837.718	23634
837.856	23505
837.993	23448
838.131	23554
838.269	23280
838.406	23391
838.544	23455
838.681	23170
838.819	23185
838.956	22965
839.094	22953
839.231	22938
839.369	23083
839.506	23261
839.643	23140
839.781	22919
839.918	22953
840.055	22892
840.193	22869
840.33	22828
840.467	22786
840.604	22877
840.742	23079
840.879	22634
841.016	22812
841.153	22713
841.29	22889
841.427	22900
841.564	22892
841.701	22911
841.838	22839
841.975	22713
842.112	22759
842.249	22508
842.385	22565
842.522	22679
842.659	22459
842.796	22436
842.933	22538
843.069	22409
843.206	22421
843.343	22557
843.479	22577
843.616	22516
843.752	22398
843.889	22310
844.025	22421
844.162	22181
844.298	22379
844.435	22196
844.571	22223
844.708	22356
844.844	22280
844.98	22417
845.117	22200
845.253	22268
845.389	22150
845.525	22093
845.661	22112
845.798	21998
845.934	22063
846.07	22048
846.206	22029
846.342	22086
846.478	21956
846.614	21781
846.75	21656
846.886	21656
847.022	21816
847.158	21652
847.294	21690
847.429	21759
847.565	21709
847.701	21949
847.837	21363
847.972	21359
848.108	21538
848.244	21504
848.379	21367
848.515	21214
848.65	21249
848.786	21199
848.921	21272
849.057	21363
849.192	21393
849.328	21359
849.463	21275
849.598	21272
849.734	21066
849.869	21024
850.004	20982
850.14	21009
850.275	20975
850.41	20883
850.545	20944
850.68	21032
850.815	20929
850.95	20929
851.085	21192
851.22	21055
851.355	21131
851.49	20929
851.625	20933
851.76	20910
851.895	20842
852.03	20880
852.165	20918
852.299	20963
852.434	21017
852.569	21096
852.703	20967
852.838	21142
852.973	20998
853.107	21032
853.242	20982
853.376	20758
853.511	20545
853.645	20758
853.78	20971
853.914	20849
854.048	20883
854.183	20727
854.317	20849
854.451	20830
854.585	20636
854.72	20750
854.854	20838
854.988	20689
855.122	20785
855.256	20617
855.39	20720
855.524	20883
855.658	20887
855.792	20754
855.926	20864
856.06	20720
856.194	20941
856.327	20830
856.461	20716
856.595	20670
856.729	20724
856.862	20777
856.996	20655
857.13	20811
857.263	20788
857.397	20845
857.53	20697
857.664	20762
857.797	20902
857.931	20887
858.064	20712
858.197	20804
858.331	20705
858.464	20625
858.597	20571
858.731	20651
858.864	20651
858.997	20568
859.13	20674
859.263	20769
859.396	20811
859.529	20716
859.662	20621
859.795	20590
859.928	20670
860.061	20834
860.194	20697
860.327	20659
860.46	20568
860.592	20697
860.725	20883
860.858	20819
860.99	20674
861.123	20613
861.256	20613
861.388	20625
861.521	21180
861.653	20621
861.786	20492
861.918	20606
862.05	20541
862.183	20598
862.315	20720
862.447	20724
862.58	20667
862.712	20587
862.844	20377
862.976	20518
863.108	20415
863.24	20811
863.372	20389
863.504	20507
863.636	20313
863.768	20393
863.9	20347
864.032	20225
864.164	20389
864.296	20275
864.428	20423
864.559	20381
864.691	20457
864.823	20370
864.954	20358
865.086	20347
865.217	20305
865.349	20161
865.48	20313
865.612	20377
865.743	20275
865.875	20252
866.006	20298
866.137	20358
866.269	20180
866.4	20278
866.531	20161
866.662	20282
866.793	20172
866.924	20145
867.055	20218
867.186	20294
867.317	20153
867.448	20084
867.579	20107
867.71	20210
867.841	20027
867.972	20298
868.103	20301
868.233	20332
868.364	20187
868.495	20172
868.625	20495
868.756	20564
868.886	20309
869.017	20339
869.147	20632
869.278	20492
869.408	20431
869.539	20427
869.669	20526
869.799	20480
869.929	20617
870.06	20415
870.19	20716
870.32	20762
870.45	20765
870.58	20773
870.71	20967
870.84	20918
870.97	20773
871.1	20788
871.23	20990
871.36	21096
871.489	20853
871.619	21058
871.749	20979
871.879	21062
872.008	21169
872.138	20902
872.267	21116
872.397	20929
872.526	20781
872.656	20769
872.785	20739
872.915	21017
873.044	21066
873.173	21001
873.303	21199
873.432	21096
873.561	21077
873.69	21127
873.819	21077
873.948	21123
874.077	21017
874.206	20998
874.335	21051
874.464	21180
874.593	21272
874.722	21344
874.851	21329
874.979	21348
875.108	21332
875.237	21291
875.365	21176
875.494	21169
875.623	21283
875.751	21241
875.88	21256
876.008	21363
876.136	21458
876.265	21701
876.393	21732
876.521	21751
876.65	21804
876.778	21701
876.906	21641
877.034	21568
877.162	21637
877.29	21656
877.418	21625
877.546	21701
877.674	21690
877.802	21675
877.93	21534
878.058	21572
878.185	21523
878.313	21671
878.441	21663
878.568	21462
878.696	21599
878.824	21618
878.951	21644
879.079	21770
879.206	21911
879.333	21774
879.461	21762
879.588	21724
879.715	21762
879.842	21835
879.97	21728
880.097	21348
880.224	21473
880.351	21443
880.478	21458
880.605	21447
880.732	21447
880.859	21686
880.986	21340
881.112	21435
881.239	21386
881.366	21203
881.493	21146
881.619	21074
881.746	21074
881.872	21108
881.999	21039
882.125	20887
882.252	21112
882.378	21077
882.505	21188
882.631	21001
882.757	20762
882.883	20830
883.01	20689
883.136	20773
883.262	20655
883.388	20571
883.514	20746
883.64	20876
883.766	20792
883.892	20549
884.018	20583
884.143	20724
884.269	20804
884.395	20552
884.52	20537
884.646	20419
884.772	20438
884.897	20301
885.023	20400
885.148	20476
885.274	20602
885.399	20526
885.524	20415
885.65	20427
885.775	20396
885.9	20320
886.025	20537
886.15	20423
886.275	20343
886.4	20320
886.525	20347
886.65	20256
886.775	20343
886.9	20434
887.025	20537
887.149	20366
887.274	20183
887.399	20229
887.523	20130
887.648	20069
887.773	20012
887.897	20221
888.021	20210
888.146	20111
888.27	20259
888.395	20206
888.519	20142
888.643	20233
888.767	20294
888.891	20054
889.015	19875
889.139	19928
889.263	19970
889.387	19951
889.511	20142
889.635	20134
889.759	19917
889.883	19814
890.006	19932
890.13	20005
890.254	19928
890.377	19833
890.501	19666
890.624	19655
890.748	19712
890.871	19712
890.995	19415
891.118	19514
891.241	19514
891.364	19487
891.488	19666
891.611	19578
891.734	19582
891.857	19552
891.98	19582
892.103	19651
892.226	19609
892.349	19533
892.471	19354
892.594	19384
892.717	19480
892.839	19468
892.962	19502
893.085	19567
893.207	19407
893.33	19407
893.452	19312
893.575	19491
893.697	19415
893.819	19651
893.941	19567
894.064	19586
894.186	19381
894.308	19346
894.43	19556
894.552	19567
894.674	19483
894.796	19327
894.918	19453
895.04	19388
895.161	19487
895.283	19495
895.405	19373
895.526	19377
895.648	19335
895.769	19601
895.891	19392
896.012	19635
896.134	19556
896.255	19411
896.376	19502
896.498	19548
896.619	19449
896.74	19537
896.861	19601
896.982	19803
897.103	20062
897.224	19795
897.345	19769
897.466	19586
897.587	19712
897.708	19788
897.828	19712
897.949	19559
898.07	19548
898.19	19559
898.311	19753
898.431	19578
898.552	19624
898.672	19791
898.792	19890
898.913	19715
899.033	19476
899.153	19453
899.273	19270
899.393	19365
899.513	19350
899.633	19468
899.753	19422
899.873	19327
899.993	19483
900.113	19278
900.232	19381
900.352	19221
900.472	19187
900.591	19202
900.711	19179
900.83	19088
900.95	19209
901.069	19316
901.189	19061
901.308	18901
901.427	18848
901.546	18897
901.665	18795
901.784	18741
901.904	18722
902.023	18616
902.141	18391
902.26	18342
902.379	18429
902.498	18247
902.617	18311
902.735	18285
902.854	18194
902.973	18114
903.091	18091
903.21	17977
903.328	17973
903.446	17878
903.565	17752
903.683	17798
903.801	17634
903.919	17817
904.038	17745
904.156	17505
904.274	17623
904.392	17520
904.51	17642
904.627	17554
904.745	17630
904.863	17649
904.981	17356
905.098	17269
905.216	17239
905.334	17174
905.451	17204
905.569	17109
905.686	17250
905.803	17208
905.921	16991
906.038	17121
906.155	17067
906.272	16881
906.389	16930
906.506	16835
906.623	16759
906.74	16702
906.857	16634
906.974	16683
907.091	16812
907.208	16949
907.324	16782
907.441	16592
907.557	16436
907.674	16432
907.79	16367
907.907	16306
908.023	16527
908.139	16390
908.256	16303
908.372	16295
908.488	16253
908.604	16135
908.72	16040
908.836	16185
908.952	15998
909.068	16063
909.184	16257
909.3	16074
909.415	16090
909.531	16093
909.647	15907
909.762	15819
909.878	15736
909.993	15930
910.108	15644
910.224	15660
910.339	15876
910.454	15728
910.57	15663
910.685	15591
910.8	15736
910.915	15713
911.03	15648
911.145	15519
911.259	15469
911.374	15435
911.489	15332
911.604	15279
911.718	15150
911.833	15127
911.947	15036
912.062	14868
912.176	15066
912.291	15176
912.405	15032
912.519	15302
912.633	15302
912.748	15165
912.862	15100
912.976	14929
913.09	14819
913.204	14853
913.318	14967
913.431	15116
913.545	15089
913.659	14998
913.772	15001
913.886	14804
914	14781
914.113	14868
914.226	15009
914.34	14880
914.453	14667
914.566	14842
914.68	14678
914.793	14636
914.906	14511
915.019	14446
915.132	14347
915.245	14423
915.358	14492
915.47	14484
915.583	14461
915.696	14442
915.809	14575
915.921	14568
916.034	14385
916.146	14358
916.259	14244
916.371	14404
916.483	14442
916.595	14286
916.708	14294
916.82	14259
916.932	14126
917.044	14218
917.156	14202
917.268	14077
917.38	14062
917.491	14233
917.603	14043
917.715	14195
917.826	14180
917.938	14081
918.049	13967
918.161	14077
918.272	14149
918.384	14149
918.495	13978
918.606	13913
918.717	13727
918.828	13864
918.939	13868
919.05	13791
919.161	13803
919.272	13689
919.383	13723
919.494	13822
919.604	14065
919.715	13856
919.826	13677
919.936	13837
920.047	13852
920.157	13727
920.267	14103
920.378	13818
920.488	13753
920.598	14008
920.708	14130
920.818	14024
920.928	13970
921.038	13982
921.148	13989
921.258	13761
921.368	13616
921.477	13586
921.587	13495
921.697	13407
921.806	13540
921.916	13396
922.025	13255
922.134	13183
922.244	13080
922.353	13152
922.462	13053
922.571	13038
922.68	12844
922.789	12696
922.898	12787
923.007	12707
923.116	12810
923.224	12779
923.333	12837
923.442	12715
923.55	12578
923.659	12722
923.767	12821
923.876	12612
923.984	12669
924.092	12547
924.201	12574
924.309	12566
924.417	12601
924.525	12506
924.633	12437
924.741	13270
924.849	12338
924.956	12494
925.064	12270
925.172	12224
925.279	12308
925.387	12346
925.494	12220
925.602	12479
925.709	12391
925.816	12114
925.924	12285
926.031	12300
926.138	12201
926.245	12270
926.352	12167
926.459	12296
926.566	12319
926.673	12190
926.779	12064
926.886	12041
926.993	11965
927.099	11843
927.206	11817
927.312	11760
927.419	11927
927.525	11851
927.631	11950
927.737	11729
927.843	11714
927.95	11676
928.056	11775
928.162	11741
928.267	11771
928.373	12334
928.479	11771
928.585	11547
928.69	11729
928.796	11710
928.901	11573
929.007	11402
929.112	11581
929.218	11589
929.323	11463
929.428	11452
929.533	11501
929.638	11414
929.743	11440
929.848	11398
929.953	11334
930.058	11315
930.163	11166
930.267	11185
930.372	11239
930.477	11037
930.581	11315
930.685	11090
930.79	10942
930.894	11151
930.998	10984
931.103	11064
931.207	10740
931.311	10645
931.415	10615
931.519	10447
931.623	10386
