Data from test_V78500241_3583.txt Node
Date: Fri Mar 25 15:34:48 CST 2022
User: usil
Spectrometer: V785-0024
Trigger mode: 0
Integration Time (sec): 4.000000E-1
Scans to average: 1
Nonlinearity correction enabled: false
Boxcar width: 0
Storing dark spectrum: false
XAxis mode: Wavelengths
Number of Pixels in Spectrum: 1024
>>>>>Begin Spectral Data<<<<<
801.071	27268
801.214	27313
801.356	27146
801.499	26956
801.641	26864
801.783	26815
801.926	26842
802.068	26906
802.211	26731
802.353	26735
802.496	26446
802.638	26518
802.78	26518
802.923	26351
803.065	26355
803.208	26438
803.35	26549
803.492	26549
803.635	26598
803.777	26590
803.919	26708
804.061	26872
804.204	26743
804.346	26727
804.488	26545
804.63	26632
804.773	26629
804.915	26606
805.057	26830
805.199	26499
805.341	26823
805.483	26750
805.626	26765
805.768	26686
805.91	26834
806.052	26815
806.194	26727
806.336	26777
806.478	26716
806.62	26739
806.762	26883
806.904	27020
807.046	27245
807.188	27077
807.33	27245
807.472	27340
807.614	27081
807.756	27081
807.898	27093
808.04	26883
808.182	27020
808.324	27032
808.465	26998
808.607	27256
808.749	27348
808.891	27447
809.033	27473
809.174	27302
809.316	27272
809.458	27401
809.6	27252
809.741	27469
809.883	27496
810.025	27564
810.166	27492
810.308	27701
810.45	27663
810.591	27572
810.733	27572
810.875	27405
811.016	27241
811.158	27291
811.299	27492
811.441	27538
811.582	27454
811.724	27370
811.865	27275
812.007	27462
812.148	27325
812.29	27485
812.431	27431
812.573	27690
812.714	27675
812.855	27911
812.997	28017
813.138	28246
813.279	28017
813.421	27865
813.562	27766
813.703	27641
813.845	27542
813.986	27348
814.127	27169
814.268	27047
814.41	27020
814.551	26971
814.692	27070
814.833	26883
814.974	26982
815.115	27055
815.256	27020
815.397	26929
815.539	26861
815.68	26804
815.821	26724
815.962	26845
816.103	26849
816.244	26712
816.385	26663
816.526	26469
816.666	26518
816.807	26225
816.948	26374
817.089	26393
817.23	26298
817.371	26313
817.512	26355
817.653	26332
817.793	26225
817.934	26290
818.075	26290
818.216	26336
818.356	26237
818.497	26138
818.638	26008
818.778	25963
818.919	26115
819.06	26134
819.2	26237
819.341	26336
819.481	26180
819.622	26480
819.762	26579
819.903	26484
820.043	26473
820.184	26343
820.324	26393
820.465	26465
820.605	26275
820.746	26400
820.886	26229
821.026	26332
821.167	26240
821.307	26427
821.447	26305
821.588	26092
821.728	26191
821.868	26069
822.008	25811
822.149	25757
822.289	25727
822.429	25502
822.569	25525
822.709	25422
822.849	25190
822.99	25285
823.13	25266
823.27	25076
823.41	25145
823.55	24970
823.69	25228
823.83	25023
823.97	25012
824.11	24958
824.25	24856
824.389	24935
824.529	25012
824.669	24863
824.809	25019
824.949	25008
825.089	25145
825.228	24928
825.368	24814
825.508	24696
825.648	24726
825.787	24833
825.927	24787
826.067	24711
826.206	24798
826.346	24802
826.485	24745
826.625	24798
826.765	24856
826.904	24730
827.044	24582
827.183	24601
827.323	24521
827.462	24627
827.601	24376
827.741	24635
827.88	24635
828.02	24414
828.159	24563
828.298	24475
828.437	24639
828.577	24456
828.716	24627
828.855	24422
828.994	24144
829.134	24289
829.273	24277
829.412	24174
829.551	24224
829.69	24216
829.829	24304
829.968	24330
830.107	24308
830.246	24266
830.385	24163
830.524	24171
830.663	23980
830.802	23984
830.941	23790
831.08	23767
831.219	23904
831.357	23916
831.496	24121
831.635	23783
831.774	23775
831.913	23718
832.051	23668
832.19	23604
832.329	23611
832.467	23463
832.606	23577
832.744	23398
832.883	23463
833.022	23486
833.16	23566
833.299	23562
833.437	23665
833.576	23570
833.714	23577
833.852	23600
833.991	23649
834.129	23638
834.267	23665
834.406	23729
834.544	23585
834.682	23680
834.821	23570
834.959	23718
835.097	23512
835.235	23619
835.373	23543
835.511	23551
835.65	23395
835.788	23455
835.926	23288
836.064	23220
836.202	23318
836.34	23379
836.478	23558
836.615	23448
836.753	23440
836.891	23547
837.029	23372
837.167	23391
837.305	23311
837.443	23292
837.58	23155
837.718	23444
837.856	23258
837.993	23223
838.131	23284
838.269	23113
838.406	23155
838.544	23200
838.681	22934
838.819	22927
838.956	22854
839.094	22771
839.231	22858
839.369	22942
839.506	23140
839.643	23121
839.781	22790
839.918	22672
840.055	22831
840.193	22744
840.33	22683
840.467	22668
840.604	22706
840.742	22953
840.879	22622
841.016	22615
841.153	22508
841.29	22839
841.427	22675
841.564	22740
841.701	22577
841.838	22668
841.975	22577
842.112	22649
842.249	22523
842.385	22470
842.522	22664
842.659	22424
842.796	22424
842.933	22424
843.069	22436
843.206	22413
843.343	22573
843.479	22405
843.616	22466
843.752	22139
843.889	22367
844.025	22325
844.162	22181
844.298	22291
844.435	22287
844.571	22196
844.708	22238
844.844	22409
844.98	22322
845.117	22299
845.253	22135
845.389	22105
845.525	22200
845.661	21991
845.798	21934
845.934	22040
846.07	21888
846.206	21937
846.342	22139
846.478	21884
846.614	21804
846.75	21686
846.886	21781
847.022	21789
847.158	21800
847.294	21770
847.429	21755
847.565	21679
847.701	21895
847.837	21481
847.972	21431
848.108	21583
848.244	21595
848.379	21287
848.515	21252
848.65	21230
848.786	21226
848.921	21260
849.057	21466
849.192	21367
849.328	21252
849.463	21287
849.598	21184
849.734	21218
849.869	21142
850.004	21009
850.14	21070
850.275	20990
850.41	21001
850.545	21070
850.68	21116
850.815	21005
850.95	21108
851.085	21249
851.22	21233
851.355	21028
851.49	20979
851.625	21039
851.76	20975
851.895	20941
852.03	20952
852.165	21089
852.299	21112
852.434	21062
852.569	21093
852.703	21093
852.838	21100
852.973	21146
853.107	21100
853.242	20918
853.376	20902
853.511	20853
853.645	20769
853.78	21043
853.914	20921
854.048	20826
854.183	20769
854.317	20963
854.451	21112
854.585	20963
854.72	20914
854.854	20929
854.988	20743
855.122	20804
855.256	20769
855.39	20861
855.524	21020
855.658	21028
855.792	20944
855.926	21028
856.06	20895
856.194	21001
856.327	20853
856.461	20804
856.595	20876
856.729	20895
856.862	21112
856.996	20849
857.13	20944
857.263	20910
857.397	20994
857.53	20925
857.664	20819
857.797	20838
857.931	20986
858.064	20918
858.197	21005
858.331	20914
858.464	20857
858.597	20667
858.731	20857
858.864	20891
858.997	20864
859.13	20796
859.263	20910
859.396	20899
859.529	20823
859.662	20838
859.795	20910
859.928	20914
860.061	21089
860.194	21066
860.327	20876
860.46	20845
860.592	21066
860.725	21058
860.858	20925
860.99	20906
861.123	20716
861.256	20773
861.388	20864
861.521	21614
861.653	20807
861.786	20674
861.918	20758
862.05	20670
862.183	20712
862.315	20777
862.447	20937
862.58	20807
862.712	20583
862.844	20651
862.976	20705
863.108	20697
863.24	20948
863.372	20613
863.504	20587
863.636	20644
863.768	20594
863.9	20625
864.032	20541
864.164	20689
864.296	20590
864.428	20762
864.559	20644
864.691	20655
864.823	20724
864.954	20606
865.086	20644
865.217	20389
865.349	20583
865.48	20469
865.612	20476
865.743	20689
865.875	20568
866.006	20507
866.137	20587
866.269	20583
866.4	20438
866.531	20431
866.662	20446
866.793	20328
866.924	20484
867.055	20484
867.186	20541
867.317	20446
867.448	20317
867.579	20450
867.71	20423
867.841	20332
867.972	20351
868.103	20492
868.233	20484
868.364	20514
868.495	20568
868.625	20735
868.756	20746
868.886	20674
869.017	20701
869.147	20796
869.278	20731
869.408	20754
869.539	20613
869.669	20796
869.799	20735
869.929	20880
870.06	20826
870.19	21047
870.32	21043
870.45	21112
870.58	20883
870.71	21127
870.84	21116
870.97	21024
871.1	21051
871.23	21256
871.36	21386
871.489	21237
871.619	21302
871.749	21329
871.879	21340
872.008	21469
872.138	21336
872.267	21386
872.397	21173
872.526	21051
872.656	21165
872.785	21017
872.915	21230
873.044	21458
873.173	21279
873.303	21294
873.432	21439
873.561	21496
873.69	21340
873.819	21332
873.948	21363
874.077	21367
874.206	21230
874.335	21264
874.464	21325
874.593	21660
874.722	21485
874.851	21625
874.979	21561
875.108	21580
875.237	21576
875.365	21431
875.494	21561
875.623	21587
875.751	21511
875.88	21629
876.008	21743
876.136	21709
876.265	22010
876.393	22093
876.521	21979
876.65	22010
876.778	21892
876.906	21922
877.034	21846
877.162	21816
877.29	21941
877.418	21991
877.546	21865
877.674	21953
877.802	21823
877.93	22025
878.058	21831
878.185	21793
878.313	21915
878.441	21941
878.568	21720
878.696	21781
878.824	21994
878.951	21975
879.079	22143
879.206	22265
879.333	22059
879.461	21960
879.588	22082
879.715	22078
879.842	22067
879.97	21903
880.097	21724
880.224	21701
880.351	21759
880.478	21785
880.605	21743
880.732	21663
880.859	21888
880.986	21739
881.112	21675
881.239	21671
881.366	21561
881.493	21447
881.619	21230
881.746	21340
881.872	21382
881.999	21408
882.125	21230
882.252	21252
882.378	21207
882.505	21534
882.631	21066
882.757	21001
882.883	21127
883.01	21043
883.136	20914
883.262	20925
883.388	20838
883.514	21032
883.64	21138
883.766	20880
883.892	20823
884.018	20800
884.143	20929
884.269	20967
884.395	20815
884.52	20594
884.646	20655
884.772	20693
884.897	20701
885.023	20712
885.148	20670
885.274	20895
885.399	20815
885.524	20571
885.65	20636
885.775	20674
885.9	20625
886.025	20769
886.15	20720
886.275	20533
886.4	20469
886.525	20507
886.65	20526
886.775	20533
886.9	20701
887.025	20887
887.149	20670
887.274	20396
887.399	20271
887.523	20355
887.648	20400
887.773	20317
887.897	20473
888.021	20385
888.146	20404
888.27	20499
888.395	20476
888.519	20450
888.643	20594
888.767	20507
888.891	20423
889.015	20164
889.139	20282
889.263	20309
889.387	20282
889.511	20347
889.635	20377
889.759	20210
889.883	20233
890.006	20305
890.13	20294
890.254	20054
890.377	20214
890.501	20016
890.624	19959
890.748	19906
890.871	19936
890.995	19814
891.118	19833
891.241	19909
891.364	19788
891.488	19887
891.611	19765
891.734	19788
891.857	19947
891.98	19837
892.103	19788
892.226	19887
892.349	19620
892.471	19510
892.594	19727
892.717	19852
892.839	19731
892.962	19639
893.085	19753
893.207	19822
893.33	19681
893.452	19685
893.575	19803
893.697	19685
893.819	19883
893.941	19864
894.064	19784
894.186	19609
894.308	19597
894.43	19833
894.552	19887
894.674	19776
894.796	19628
894.918	19693
895.04	19693
895.161	19734
895.283	19753
895.405	19563
895.526	19704
895.648	19700
895.769	19757
895.891	19712
896.012	19875
896.134	19708
896.255	19833
896.376	19742
896.498	19696
896.619	19696
896.74	19772
896.861	19803
896.982	20016
897.103	20145
897.224	20035
897.345	19944
897.466	19883
897.587	19970
897.708	20081
897.828	19963
897.949	19860
898.07	19822
898.19	19887
898.311	20161
898.431	19780
898.552	19913
898.672	20096
898.792	20024
898.913	19963
899.033	19811
899.153	19757
899.273	19609
899.393	19689
899.513	19769
899.633	19651
899.753	19662
899.873	19620
899.993	19750
900.113	19605
900.232	19677
900.352	19586
900.472	19613
900.591	19491
900.711	19491
900.83	19373
900.95	19559
901.069	19529
901.189	19285
901.308	19114
901.427	19050
901.546	19088
901.665	19107
901.784	19034
901.904	18989
902.023	18749
902.141	18616
902.26	18631
902.379	18749
902.498	18566
902.617	18597
902.735	18639
902.854	18570
902.973	18528
903.091	18251
903.21	18273
903.328	18182
903.446	18140
903.565	18057
903.683	18155
903.801	18007
903.919	17988
904.038	18022
904.156	17840
904.274	17946
904.392	17767
904.51	17855
904.627	17843
904.745	17870
904.863	17840
904.981	17695
905.098	17558
905.216	17532
905.334	17532
905.451	17566
905.569	17520
905.686	17539
905.803	17547
905.921	17337
906.038	17509
906.155	17307
906.272	17231
906.389	17220
906.506	17018
906.623	17086
906.74	16965
906.857	16930
906.974	16942
907.091	17159
907.208	17105
907.324	17140
907.441	17048
907.557	16729
907.674	16729
907.79	16740
907.907	16698
908.023	16771
908.139	16790
908.256	16656
908.372	16683
908.488	16706
908.604	16626
908.72	16470
908.836	16481
908.952	16550
909.068	16558
909.184	16550
909.3	16493
909.415	16474
909.531	16409
909.647	16204
909.762	16200
909.878	16185
909.993	16162
910.108	16188
910.224	16067
910.339	16158
910.454	16059
910.57	15994
910.685	15949
910.8	16249
910.915	16204
911.03	15949
911.145	15846
911.259	15835
911.374	15835
911.489	15739
911.604	15739
911.718	15492
911.833	15519
911.947	15462
912.062	15420
912.176	15534
912.291	15599
912.405	15622
912.519	15804
912.633	15736
912.748	15580
912.862	15584
912.976	15344
913.09	15211
913.204	15431
913.318	15454
913.431	15538
913.545	15485
913.659	15435
913.772	15317
913.886	15138
914	15154
914.113	15340
914.226	15287
914.34	15268
914.453	15047
914.566	15184
914.68	15097
914.793	14990
914.906	14819
915.019	14929
915.132	14697
915.245	14773
915.358	14788
915.47	14758
915.583	14716
915.696	14830
915.809	14929
915.921	14838
916.034	14693
916.146	14777
916.259	14701
916.371	14853
916.483	14686
916.595	14636
916.708	14663
916.82	14621
916.932	14598
917.044	14644
917.156	14526
917.268	14476
917.38	14541
917.491	14457
917.603	14431
917.715	14400
917.826	14499
917.938	14438
918.049	14336
918.161	14568
918.272	14541
918.384	14552
918.495	14438
918.606	14252
918.717	14195
918.828	14229
918.939	14218
919.05	14077
919.161	14244
919.272	13967
919.383	14020
919.494	14286
919.604	14473
919.715	14157
919.826	14107
919.936	14134
920.047	14240
920.157	14199
920.267	14339
920.378	14275
920.488	14157
920.598	14419
920.708	14469
920.818	14301
920.928	14320
921.038	14465
921.148	14492
921.258	14084
921.368	14107
921.477	13925
921.587	13944
921.697	13753
921.806	13978
921.916	13871
922.025	13620
922.134	13544
922.244	13529
922.353	13601
922.462	13457
922.571	13483
922.68	13232
922.789	13145
922.898	13202
923.007	13183
923.116	13225
923.224	13247
923.333	13156
923.442	13099
923.55	12981
923.659	13107
923.767	13221
923.876	13050
923.984	13069
924.092	12909
924.201	12966
924.309	13008
924.417	12966
924.525	12909
924.633	12901
924.741	13807
924.849	12681
924.956	12905
925.064	12715
925.172	12692
925.279	12597
925.387	12688
925.494	12677
925.602	12806
925.709	12757
925.816	12566
925.924	12585
926.031	12730
926.138	12681
926.245	12612
926.352	12528
926.459	12616
926.566	12688
926.673	12612
926.779	12395
926.886	12426
926.993	12361
927.099	12277
927.206	12292
927.312	12197
927.419	12319
927.525	12262
927.631	12266
927.737	12049
927.843	12011
927.95	12019
928.056	12095
928.162	12091
928.267	12148
928.373	12692
928.479	12125
928.585	11786
928.69	12022
928.796	12079
928.901	12026
929.007	11764
929.112	11920
929.218	11882
929.323	11847
929.428	11851
929.533	11950
929.638	11745
929.743	11775
929.848	11790
929.953	11684
930.058	11745
930.163	11467
930.267	11486
930.372	11649
930.477	11440
930.581	11657
930.685	11535
930.79	11440
930.894	11372
930.998	11421
931.103	11471
931.207	11143
931.311	11041
931.415	11006
931.519	10763
931.623	10797
