Data from test_V78500241_2492.txt Node
Date: Fri Mar 25 15:27:12 CST 2022
User: usil
Spectrometer: V785-0024
Trigger mode: 0
Integration Time (sec): 4.000000E-1
Scans to average: 1
Nonlinearity correction enabled: false
Boxcar width: 0
Storing dark spectrum: false
XAxis mode: Wavelengths
Number of Pixels in Spectrum: 1024
>>>>>Begin Spectral Data<<<<<
801.071	27195
801.214	27184
801.356	26925
801.499	26887
801.641	26712
801.783	26998
801.926	26792
802.068	26712
802.211	26587
802.353	26625
802.496	26511
802.638	26233
802.78	26290
802.923	26298
803.065	26168
803.208	26309
803.35	26271
803.492	26404
803.635	26404
803.777	26374
803.919	26651
804.061	26773
804.204	26446
804.346	26412
804.488	26332
804.63	26408
804.773	26457
804.915	26560
805.057	26682
805.199	26431
805.341	26469
805.483	26571
805.626	26720
805.768	26400
805.91	26648
806.052	26609
806.194	26320
806.336	26731
806.478	26587
806.62	26617
806.762	26575
806.904	26849
807.046	27009
807.188	27062
807.33	27013
807.472	27066
807.614	26891
807.756	26944
807.898	26830
808.04	26800
808.182	26899
808.324	26849
808.465	26906
808.607	27093
808.749	27074
808.891	27279
809.033	27344
809.174	27291
809.316	27077
809.458	27169
809.6	27104
809.741	27211
809.883	27397
810.025	27507
810.166	27336
810.308	27492
810.45	27325
810.591	27245
810.733	27176
810.875	27131
811.016	27051
811.158	27157
811.299	27344
811.441	27454
811.582	27393
811.724	27291
811.865	27138
812.007	27112
812.148	27154
812.29	27032
812.431	27287
812.573	27515
812.714	27427
812.855	27720
812.997	27751
813.138	27781
813.279	27724
813.421	27675
813.562	27679
813.703	27500
813.845	27405
813.986	26948
814.127	26891
814.268	26899
814.41	26864
814.551	26857
814.692	26849
814.833	26845
814.974	26785
815.115	26880
815.256	26689
815.397	26617
815.539	26727
815.68	26606
815.821	26450
815.962	26743
816.103	26636
816.244	26465
816.385	26396
816.526	26355
816.666	26107
816.807	26088
816.948	26130
817.089	26202
817.23	26157
817.371	25986
817.512	26115
817.653	26088
817.793	25818
817.934	26122
818.075	26244
818.216	26096
818.356	26122
818.497	25845
818.638	25715
818.778	25894
818.919	25841
819.06	25913
819.2	25974
819.341	26088
819.481	26054
819.622	26286
819.762	26370
819.903	26317
820.043	26229
820.184	26233
820.324	26248
820.465	26183
820.605	26161
820.746	26111
820.886	26138
821.026	26195
821.167	26122
821.307	26256
821.447	26016
821.588	25944
821.728	25757
821.868	25772
822.008	25559
822.149	25647
822.289	25544
822.429	25209
822.569	25259
822.709	25316
822.849	25164
822.99	25099
823.13	25046
823.27	24996
823.41	25023
823.55	24840
823.69	24897
823.83	24856
823.97	24985
824.11	24700
824.25	24578
824.389	24791
824.529	24867
824.669	24768
824.809	24738
824.949	24829
825.089	24738
825.228	24692
825.368	24525
825.508	24513
825.648	24475
825.787	24612
825.927	24513
826.067	24601
826.206	24616
826.346	24582
826.485	24749
826.625	24483
826.765	24570
826.904	24635
827.044	24277
827.183	24308
827.323	24224
827.462	24403
827.601	24323
827.741	24277
827.88	24372
828.02	24034
828.159	24289
828.298	24266
828.437	24285
828.577	24239
828.716	24361
828.855	24273
828.994	24018
829.134	23988
829.273	23996
829.412	23923
829.551	23923
829.69	23984
829.829	24022
829.968	24072
830.107	24102
830.246	24057
830.385	23942
830.524	23840
830.663	23980
830.802	23646
830.941	23653
831.08	23657
831.219	23741
831.357	23562
831.496	23923
831.635	23741
831.774	23592
831.913	23482
832.051	23368
832.19	23356
832.329	23376
832.467	23364
832.606	23254
832.744	23170
832.883	23273
833.022	23284
833.16	23296
833.299	23391
833.437	23349
833.576	23330
833.714	23383
833.852	23581
833.991	23455
834.129	23615
834.267	23512
834.406	23292
834.544	23482
834.682	23311
834.821	23292
834.959	23414
835.097	23315
835.235	23364
835.373	23269
835.511	23364
835.65	23231
835.788	23292
835.926	23128
836.064	23044
836.202	23003
836.34	23166
836.478	23440
836.615	23094
836.753	23227
836.891	23337
837.029	23220
837.167	23185
837.305	23010
837.443	23094
837.58	23121
837.718	23029
837.856	23022
837.993	23018
838.131	22968
838.269	22953
838.406	23010
838.544	22972
838.681	22911
838.819	22656
838.956	22527
839.094	22531
839.231	22637
839.369	22698
839.506	22908
839.643	22885
839.781	22611
839.918	22485
840.055	22561
840.193	22481
840.33	22333
840.467	22557
840.604	22554
840.742	22793
840.879	22451
841.016	22523
841.153	22299
841.29	22481
841.427	22421
841.564	22409
841.701	22348
841.838	22325
841.975	22519
842.112	22360
842.249	22325
842.385	22322
842.522	22561
842.659	22337
842.796	22181
842.933	22185
843.069	22086
843.206	22280
843.343	22226
843.479	22185
843.616	22257
843.752	22021
843.889	22044
844.025	22181
844.162	22063
844.298	21994
844.435	21994
844.571	22010
844.708	22078
844.844	22105
844.98	22116
845.117	21964
845.253	21994
845.389	21854
845.525	21915
845.661	21690
845.798	21793
845.934	21705
846.07	21671
846.206	21812
846.342	21842
846.478	21827
846.614	21622
846.75	21526
846.886	21469
847.022	21511
847.158	21561
847.294	21382
847.429	21504
847.565	21488
847.701	21732
847.837	21184
847.972	21287
848.108	21287
848.244	21249
848.379	21123
848.515	20948
848.65	21093
848.786	21154
848.921	21020
849.057	21142
849.192	21131
849.328	20952
849.463	21077
849.598	20990
849.734	21036
849.869	20914
850.004	20838
850.14	20842
850.275	20853
850.41	20838
850.545	20849
850.68	20830
850.815	20857
850.95	20872
851.085	20998
851.22	20944
851.355	20826
851.49	20807
851.625	20872
851.76	20838
851.895	20773
852.03	20670
852.165	20868
852.299	20902
852.434	20933
852.569	20815
852.703	20864
852.838	20914
852.973	20861
853.107	20933
853.242	20716
853.376	20640
853.511	20568
853.645	20575
853.78	20811
853.914	20632
854.048	20629
854.183	20686
854.317	20640
854.451	20804
854.585	20758
854.72	20651
854.854	20708
854.988	20549
855.122	20617
855.256	20579
855.39	20648
855.524	20724
855.658	20781
855.792	20750
855.926	20636
856.06	20834
856.194	20724
856.327	20724
856.461	20564
856.595	20549
856.729	20758
856.862	20727
856.996	20781
857.13	20800
857.263	20735
857.397	20720
857.53	20674
857.664	20754
857.797	20705
857.931	20625
858.064	20785
858.197	20758
858.331	20765
858.464	20476
858.597	20480
858.731	20507
858.864	20682
858.997	20720
859.13	20674
859.263	20727
859.396	20708
859.529	20689
859.662	20594
859.795	20655
859.928	20769
860.061	20731
860.194	20781
860.327	20777
860.46	20613
860.592	20834
860.725	20899
860.858	20838
860.99	20568
861.123	20625
861.256	20625
861.388	20651
861.521	21268
861.653	20632
861.786	20415
861.918	20655
862.05	20609
862.183	20613
862.315	20594
862.447	20796
862.58	20469
862.712	20301
862.844	20351
862.976	20457
863.108	20381
863.24	20883
863.372	20233
863.504	20313
863.636	20294
863.768	20488
863.9	20298
864.032	20351
864.164	20332
864.296	20408
864.428	20552
864.559	20446
864.691	20419
864.823	20393
864.954	20438
865.086	20317
865.217	20355
865.349	20206
865.48	20320
865.612	20332
865.743	20492
865.875	20290
866.006	20286
866.137	20248
866.269	20294
866.4	20252
866.531	20271
866.662	20252
866.793	20233
866.924	20183
867.055	20313
867.186	20256
867.317	20218
867.448	20065
867.579	20161
867.71	20168
867.841	20180
867.972	20218
868.103	20210
868.233	20275
868.364	20161
868.495	20408
868.625	20480
868.756	20518
868.886	20423
869.017	20461
869.147	20533
869.278	20708
869.408	20545
869.539	20484
869.669	20602
869.799	20541
869.929	20571
870.06	20495
870.19	20845
870.32	20754
870.45	20807
870.58	20891
870.71	20891
870.84	20982
870.97	20842
871.1	20937
871.23	21108
871.36	21081
871.489	20971
871.619	20933
871.749	20952
871.879	21142
872.008	21188
872.138	21119
872.267	21100
872.397	20750
872.526	21005
872.656	20853
872.785	20804
872.915	21298
873.044	21222
873.173	21066
873.303	21077
873.432	21112
873.561	21336
873.69	21112
873.819	21135
873.948	21195
874.077	21135
874.206	20952
874.335	21074
874.464	21291
874.593	21348
874.722	21287
874.851	21439
874.979	21408
875.108	21355
875.237	21367
875.365	21264
875.494	21268
875.623	21344
875.751	21317
875.88	21325
876.008	21473
876.136	21519
876.265	21595
876.393	21755
876.521	21827
876.65	21816
876.778	21785
876.906	21625
877.034	21622
877.162	21633
877.29	21709
877.418	21667
877.546	21774
877.674	21698
877.802	21660
877.93	21774
878.058	21660
878.185	21599
878.313	21660
878.441	21652
878.568	21370
878.696	21557
878.824	21625
878.951	21899
879.079	21907
879.206	21964
879.333	21880
879.461	21747
879.588	21812
879.715	21770
879.842	21949
879.97	21781
880.097	21454
880.224	21496
880.351	21538
880.478	21610
880.605	21587
880.732	21488
880.859	21686
880.986	21382
881.112	21496
881.239	21321
881.366	21302
881.493	21176
881.619	21096
881.746	21058
881.872	21093
881.999	21028
882.125	20990
882.252	21116
882.378	21070
882.505	21241
882.631	20937
882.757	20937
882.883	20967
883.01	20826
883.136	20785
883.262	20727
883.388	20674
883.514	20857
883.64	20727
883.766	20769
883.892	20564
884.018	20697
884.143	20705
884.269	20807
884.395	20526
884.52	20434
884.646	20545
884.772	20419
884.897	20286
885.023	20507
885.148	20564
885.274	20590
885.399	20590
885.524	20461
885.65	20499
885.775	20564
885.9	20476
886.025	20450
886.15	20564
886.275	20457
886.4	20374
886.525	20434
886.65	20370
886.775	20332
886.9	20617
887.025	20686
887.149	20415
887.274	20282
887.399	20317
887.523	20240
887.648	20119
887.773	19940
887.897	20408
888.021	20248
888.146	20130
888.27	20313
888.395	20229
888.519	20233
888.643	20233
888.767	20282
888.891	20115
889.015	19887
889.139	19997
889.263	20020
889.387	20134
889.511	20233
889.635	20130
889.759	20054
889.883	20103
890.006	20062
890.13	20039
890.254	19909
890.377	20077
890.501	19822
890.624	19704
890.748	19807
890.871	19693
890.995	19578
891.118	19483
891.241	19540
891.364	19635
891.488	19803
891.611	19609
891.734	19540
891.857	19575
891.98	19635
892.103	19575
892.226	19556
892.349	19483
892.471	19400
892.594	19609
892.717	19601
892.839	19426
892.962	19510
893.085	19571
893.207	19480
893.33	19358
893.452	19445
893.575	19613
893.697	19514
893.819	19689
893.941	19757
894.064	19742
894.186	19537
894.308	19400
894.43	19548
894.552	19769
894.674	19715
894.796	19457
894.918	19502
895.04	19460
895.161	19639
895.283	19563
895.405	19483
895.526	19491
895.648	19559
895.769	19605
895.891	19624
896.012	19590
896.134	19556
896.255	19575
896.376	19445
896.498	19529
896.619	19521
896.74	19525
896.861	19563
896.982	19932
897.103	20012
897.224	19803
897.345	19814
897.466	19712
897.587	19750
897.708	19845
897.828	19849
897.949	19780
898.07	19639
898.19	19822
898.311	19913
898.431	19677
898.552	19906
898.672	19875
898.792	19738
898.913	19795
899.033	19681
899.153	19590
899.273	19582
899.393	19533
899.513	19594
899.633	19544
899.753	19616
899.873	19510
899.993	19457
900.113	19521
900.232	19601
900.352	19350
900.472	19453
900.591	19312
900.711	19419
900.83	19282
900.95	19301
901.069	19411
901.189	19168
901.308	18935
901.427	18973
901.546	19015
901.665	19042
901.784	18954
901.904	18875
902.023	18753
902.141	18589
902.26	18502
902.379	18593
902.498	18403
902.617	18380
902.735	18479
902.854	18391
902.973	18448
903.091	18163
903.21	18155
903.328	18091
903.446	18049
903.565	17843
903.683	17961
903.801	17843
903.919	17783
904.038	17939
904.156	17767
904.274	17741
904.392	17661
904.51	17710
904.627	17672
904.745	17665
904.863	17718
904.981	17539
905.098	17478
905.216	17326
905.334	17444
905.451	17429
905.569	17372
905.686	17406
905.803	17376
905.921	17170
906.038	17292
906.155	17265
906.272	17102
906.389	17197
906.506	16930
906.623	16908
906.74	16877
906.857	16824
906.974	16896
907.091	16885
907.208	17052
907.324	16976
907.441	16850
907.557	16599
907.674	16637
907.79	16660
907.907	16565
908.023	16637
908.139	16797
908.256	16679
908.372	16535
908.488	16546
908.604	16462
908.72	16325
908.836	16436
908.952	16306
909.068	16436
909.184	16497
909.3	16390
909.415	16382
909.531	16363
909.647	16093
909.762	16154
909.878	15994
909.993	16101
910.108	16074
910.224	15972
910.339	15968
910.454	15972
910.57	15968
910.685	15895
910.8	16051
910.915	15998
911.03	15941
911.145	15751
911.259	15663
911.374	15789
911.489	15603
911.604	15622
911.718	15428
911.833	15542
911.947	15431
912.062	15310
912.176	15564
912.291	15644
912.405	15587
912.519	15633
912.633	15633
912.748	15500
912.862	15450
912.976	15439
913.09	15157
913.204	15252
913.318	15184
913.431	15355
913.545	15374
913.659	15340
913.772	15332
913.886	15062
914	15028
914.113	15142
914.226	15218
914.34	15081
914.453	14899
914.566	15161
914.68	15074
914.793	14857
914.906	14644
915.019	14727
915.132	14640
915.245	14712
915.358	14781
915.47	14625
915.583	14629
915.696	14731
915.809	14895
915.921	14861
916.034	14579
916.146	14621
916.259	14560
916.371	14663
916.483	14682
916.595	14511
916.708	14556
916.82	14590
916.932	14393
917.044	14511
917.156	14476
917.268	14442
917.38	14461
917.491	14317
917.603	14400
917.715	14461
917.826	14457
917.938	14214
918.049	14183
918.161	14317
918.272	14393
918.384	14457
918.495	14298
918.606	14088
918.717	14050
918.828	14199
918.939	14103
919.05	14081
919.161	14187
919.272	13902
919.383	13925
919.494	14126
919.604	14332
919.715	14168
919.826	14100
919.936	14077
920.047	14161
920.157	14043
920.267	14275
920.378	14088
920.488	14092
920.598	14225
920.708	14396
920.818	14172
920.928	14248
921.038	14381
921.148	14374
921.258	14149
921.368	14005
921.477	13822
921.587	13814
921.697	13670
921.806	13947
921.916	13712
922.025	13502
922.134	13499
922.244	13499
922.353	13571
922.462	13457
922.571	13346
922.68	13327
922.789	13145
922.898	13179
923.007	13145
923.116	13168
923.224	13156
923.333	13107
923.442	13008
923.55	12962
923.659	13034
923.767	12962
923.876	12897
923.984	13057
924.092	12916
924.201	12890
924.309	12916
924.417	12821
924.525	12783
924.633	12833
924.741	13723
924.849	12593
924.956	12848
925.064	12616
925.172	12620
925.279	12593
925.387	12635
925.494	12612
925.602	12650
925.709	12623
925.816	12566
925.924	12517
926.031	12559
926.138	12517
926.245	12620
926.352	12429
926.459	12532
926.566	12555
926.673	12471
926.779	12292
926.886	12361
926.993	12175
927.099	12133
927.206	12125
927.312	11999
927.419	12163
927.525	12152
927.631	12167
927.737	11969
927.843	12015
927.95	11847
928.056	12019
928.162	11977
928.267	12026
928.373	12582
928.479	11988
928.585	11863
928.69	11942
928.796	12011
928.901	11847
929.007	11695
929.112	11901
929.218	11821
929.323	11729
929.428	11707
929.533	11847
929.638	11680
929.743	11630
929.848	11737
929.953	11699
930.058	11581
930.163	11471
930.267	11440
930.372	11551
930.477	11364
930.581	11604
930.685	11471
930.79	11265
930.894	11311
930.998	11299
931.103	11421
931.207	11113
931.311	10991
931.415	10889
931.519	10744
931.623	10698
