Data from test_V78500241_1601.txt Node
Date: Fri Mar 25 15:21:00 CST 2022
User: usil
Spectrometer: V785-0024
Trigger mode: 0
Integration Time (sec): 4.000000E-1
Scans to average: 1
Nonlinearity correction enabled: false
Boxcar width: 0
Storing dark spectrum: false
XAxis mode: Wavelengths
Number of Pixels in Spectrum: 1024
>>>>>Begin Spectral Data<<<<<
801.071	27899
801.214	27850
801.356	27663
801.499	27587
801.641	27530
801.783	27519
801.926	27583
802.068	27424
802.211	27462
802.353	27306
802.496	27268
802.638	27283
802.78	27036
802.923	27119
803.065	27043
803.208	27047
803.35	27214
803.492	27359
803.635	27427
803.777	27298
803.919	27363
804.061	27739
804.204	27363
804.346	27454
804.488	27329
804.63	27218
804.773	27272
804.915	27370
805.057	27545
805.199	27256
805.341	27462
805.483	27713
805.626	27450
805.768	27496
805.91	27412
806.052	27549
806.194	27447
806.336	27717
806.478	27504
806.62	27473
806.762	27564
806.904	27652
807.046	27903
807.188	27907
807.33	28017
807.472	27998
807.614	27899
807.756	27914
807.898	27865
808.04	27736
808.182	27835
808.324	27884
808.465	27873
808.607	28032
808.749	28044
808.891	28105
809.033	28246
809.174	28192
809.316	28109
809.458	28059
809.6	28158
809.741	28135
809.883	28329
810.025	28466
810.166	28360
810.308	28401
810.45	28276
810.591	28169
810.733	28055
810.875	28063
811.016	27895
811.158	28021
811.299	28249
811.441	28162
811.582	28306
811.724	28166
811.865	28135
812.007	28105
812.148	28074
812.29	28086
812.431	28272
812.573	28485
812.714	28455
812.855	28592
812.997	28790
813.138	28828
813.279	28748
813.421	28683
813.562	28557
813.703	28493
813.845	28367
813.986	27968
814.127	27869
814.268	27880
814.41	27903
814.551	27766
814.692	27972
814.833	27903
814.974	27838
815.115	27865
815.256	27606
815.397	27728
815.539	27751
815.68	27485
815.821	27652
815.962	27557
816.103	27587
816.244	27568
816.385	27355
816.526	27408
816.666	27291
816.807	27058
816.948	27226
817.089	27176
817.23	27184
817.371	27157
817.512	27036
817.653	27066
817.793	27058
817.934	27089
818.075	27123
818.216	27116
818.356	26967
818.497	26967
818.638	26864
818.778	26872
818.919	26746
819.06	26990
819.2	27096
819.341	27192
819.481	27203
819.622	27386
819.762	27504
819.903	27443
820.043	27230
820.184	27112
820.324	27268
820.465	27302
820.605	27138
820.746	27332
820.886	27036
821.026	27214
821.167	27176
821.307	27058
821.447	27199
821.588	26963
821.728	26902
821.868	26705
822.008	26655
822.149	26518
822.289	26560
822.429	26317
822.569	26240
822.709	26237
822.849	26062
822.99	26267
823.13	26020
823.27	25982
823.41	25902
823.55	25662
823.69	25955
823.83	25868
823.97	25864
824.11	25689
824.25	25597
824.389	25788
824.529	25750
824.669	25712
824.809	25753
824.949	25826
825.089	25750
825.228	25700
825.368	25578
825.508	25575
825.648	25655
825.787	25624
825.927	25544
826.067	25613
826.206	25491
826.346	25620
826.485	25655
826.625	25571
826.765	25708
826.904	25590
827.044	25324
827.183	25301
827.323	25377
827.462	25255
827.601	25335
827.741	25407
827.88	25255
828.02	25110
828.159	25202
828.298	25346
828.437	25377
828.577	25225
828.716	25457
828.855	25228
828.994	25034
829.134	24920
829.273	25099
829.412	24932
829.551	25160
829.69	24894
829.829	24970
829.968	25034
830.107	25095
830.246	24916
830.385	24943
830.524	24783
830.663	24886
830.802	24661
830.941	24741
831.08	24627
831.219	24669
831.357	24650
831.496	24719
831.635	24601
831.774	24490
831.913	24445
832.051	24399
832.19	24407
832.329	24365
832.467	24323
832.606	24311
832.744	24410
832.883	24091
833.022	24319
833.16	24174
833.299	24323
833.437	24311
833.576	24361
833.714	24384
833.852	24399
833.991	24441
834.129	24429
834.267	24445
834.406	24266
834.544	24315
834.682	24372
834.821	24300
834.959	24528
835.097	24388
835.235	24521
835.373	24235
835.511	24300
835.65	24251
835.788	24171
835.926	24034
836.064	24030
836.202	24034
836.34	24201
836.478	24243
836.615	24232
836.753	24270
836.891	24330
837.029	24205
837.167	24057
837.305	24079
837.443	24129
837.58	23984
837.718	24049
837.856	23935
837.993	23961
838.131	23965
838.269	23847
838.406	23802
838.544	23809
838.681	23710
838.819	23707
838.956	23577
839.094	23543
839.231	23539
839.369	23592
839.506	23927
839.643	23726
839.781	23406
839.918	23436
840.055	23417
840.193	23459
840.33	23303
840.467	23482
840.604	23505
840.742	23619
840.879	23330
841.016	23303
841.153	23345
841.29	23531
841.427	23356
841.564	23421
841.701	23353
841.838	23356
841.975	23216
842.112	23318
842.249	23090
842.385	23132
842.522	23200
842.659	23132
842.796	23254
842.933	23098
843.069	23128
843.206	23083
843.343	23216
843.479	23109
843.616	23128
843.752	23006
843.889	23006
844.025	23075
844.162	22793
844.298	22987
844.435	22919
844.571	22771
844.708	22995
844.844	23204
844.98	23121
845.117	23048
845.253	22858
845.389	22801
845.525	22713
845.661	22812
845.798	22710
845.934	22744
846.07	22805
846.206	22641
846.342	22721
846.478	22691
846.614	22424
846.75	22333
846.886	22329
847.022	22428
847.158	22436
847.294	22413
847.429	22542
847.565	22242
847.701	22634
847.837	22044
847.972	21975
848.108	22109
848.244	22135
848.379	21968
848.515	22013
848.65	21865
848.786	21968
848.921	22070
849.057	22093
849.192	22010
849.328	21987
849.463	21983
849.598	21937
849.734	21835
849.869	21816
850.004	21709
850.14	21789
850.275	21717
850.41	21652
850.545	21679
850.68	21679
850.815	21842
850.95	21873
851.085	21838
851.22	21850
851.355	21652
851.49	21751
851.625	21743
851.76	21656
851.895	21637
852.03	21629
852.165	21694
852.299	21762
852.434	21739
852.569	21694
852.703	21667
852.838	21960
852.973	21907
853.107	21850
853.242	21766
853.376	21469
853.511	21481
853.645	21561
853.78	21656
853.914	21644
854.048	21500
854.183	21538
854.317	21641
854.451	21873
854.585	21694
854.72	21660
854.854	21641
854.988	21496
855.122	21534
855.256	21374
855.39	21496
855.524	21603
855.658	21549
855.792	21549
855.926	21614
856.06	21504
856.194	21618
856.327	21496
856.461	21511
856.595	21587
856.729	21534
856.862	21698
856.996	21538
857.13	21690
857.263	21686
857.397	21576
857.53	21595
857.664	21534
857.797	21656
857.931	21717
858.064	21507
858.197	21587
858.331	21561
858.464	21420
858.597	21370
858.731	21572
858.864	21561
858.997	21500
859.13	21542
859.263	21587
859.396	21523
859.529	21488
859.662	21458
859.795	21477
859.928	21587
860.061	21747
860.194	21762
860.327	21545
860.46	21618
860.592	21675
860.725	21709
860.858	21671
860.99	21656
861.123	21447
861.256	21431
861.388	21530
861.521	22200
861.653	21401
861.786	21310
861.918	21275
862.05	21405
862.183	21336
862.315	21523
862.447	21507
862.58	21431
862.712	21272
862.844	21245
862.976	21351
863.108	21351
863.24	21603
863.372	21180
863.504	21378
863.636	21287
863.768	21317
863.9	21226
864.032	21127
864.164	21131
864.296	21332
864.428	21370
864.559	21329
864.691	21329
864.823	21294
864.954	21264
865.086	21275
865.217	21100
865.349	21020
865.48	21157
865.612	21074
865.743	21249
865.875	21211
866.006	21066
866.137	21173
866.269	21203
866.4	21157
866.531	21081
866.662	21089
866.793	21051
866.924	21131
867.055	21135
867.186	21161
867.317	20960
867.448	21005
867.579	21005
867.71	20948
867.841	21100
867.972	21085
868.103	21176
868.233	21135
868.364	21024
868.495	21131
868.625	21260
868.756	21344
868.886	21340
869.017	21188
869.147	21431
869.278	21386
869.408	21321
869.539	21370
869.669	21313
869.799	21416
869.929	21393
870.06	21542
870.19	21709
870.32	21481
870.45	21625
870.58	21595
870.71	21766
870.84	21907
870.97	21652
871.1	21564
871.23	21842
871.36	21949
871.489	21804
871.619	21911
871.749	21953
871.879	21972
872.008	22025
872.138	21850
872.267	21945
872.397	21808
872.526	21816
872.656	21583
872.785	21778
872.915	22055
873.044	21979
873.173	22040
873.303	21953
873.432	21998
873.561	21994
873.69	21930
873.819	21888
873.948	22067
874.077	21869
874.206	21918
874.335	21953
874.464	22044
874.593	22166
874.722	22093
874.851	22162
874.979	22207
875.108	22154
875.237	22116
875.365	21953
875.494	22154
875.623	22162
875.751	22154
875.88	22097
876.008	22284
876.136	22333
876.265	22382
876.393	22615
876.521	22645
876.65	22573
876.778	22557
876.906	22573
877.034	22462
877.162	22440
877.29	22497
877.418	22516
877.546	22500
877.674	22500
877.802	22485
877.93	22523
878.058	22527
878.185	22409
878.313	22398
878.441	22474
878.568	22413
878.696	22356
878.824	22478
878.951	22557
879.079	22599
879.206	22721
879.333	22637
879.461	22508
879.588	22630
879.715	22531
879.842	22793
879.97	22554
880.097	22226
880.224	22234
880.351	22299
880.478	22371
880.605	22223
880.732	22352
880.859	22569
880.986	22440
881.112	22295
881.239	22192
881.366	22021
881.493	22090
881.619	21888
881.746	22044
881.872	21873
881.999	21857
882.125	21808
882.252	21972
882.378	21915
882.505	21915
882.631	21766
882.757	21633
882.883	21690
883.01	21530
883.136	21580
883.262	21393
883.388	21367
883.514	21603
883.64	21564
883.766	21454
883.892	21443
884.018	21367
884.143	21408
884.269	21606
884.395	21310
884.52	21184
884.646	21310
884.772	21176
884.897	21192
885.023	21283
885.148	21450
885.274	21233
885.399	21408
885.524	21180
885.65	21249
885.775	21226
885.9	21218
886.025	21245
886.15	21260
886.275	21192
886.4	21192
886.525	21237
886.65	21093
886.775	21096
886.9	21325
887.025	21450
887.149	21184
887.274	20982
887.399	20990
887.523	20960
887.648	20994
887.773	20857
887.897	21100
888.021	21112
888.146	20925
888.27	21058
888.395	21081
888.519	21123
888.643	20986
888.767	21249
888.891	20902
889.015	20731
889.139	20857
889.263	20727
889.387	20944
889.511	21032
889.635	20785
889.759	20895
889.883	20762
890.006	20769
890.13	20842
890.254	20765
890.377	20682
890.501	20552
890.624	20480
890.748	20522
890.871	20320
890.995	20351
891.118	20309
891.241	20393
891.364	20507
891.488	20571
891.611	20313
891.734	20328
891.857	20450
891.98	20434
892.103	20431
892.226	20278
892.349	20267
892.471	20100
892.594	20206
892.717	20336
892.839	20256
892.962	20328
893.085	20393
893.207	20176
893.33	20092
893.452	20271
893.575	20229
893.697	20355
893.819	20495
893.941	20362
894.064	20404
894.186	20157
894.308	20134
894.43	20214
894.552	20461
894.674	20381
894.796	20221
894.918	20183
895.04	20267
895.161	20305
895.283	20324
895.405	20111
895.526	20271
895.648	20313
895.769	20309
895.891	20240
896.012	20298
896.134	20271
896.255	20111
896.376	20244
896.498	20294
896.619	20351
896.74	20221
896.861	20362
896.982	20629
897.103	20693
897.224	20545
897.345	20412
897.466	20461
897.587	20450
897.708	20613
897.828	20488
897.949	20454
898.07	20328
898.19	20320
898.311	20480
898.431	20393
898.552	20461
898.672	20480
898.792	20609
898.913	20454
899.033	20240
899.153	20282
899.273	20248
899.393	20240
899.513	20282
899.633	20336
899.753	20267
899.873	20244
899.993	20024
900.113	20240
900.232	20065
900.352	20073
900.472	20001
900.591	19917
900.711	20077
900.83	19963
900.95	20153
901.069	20054
901.189	19875
901.308	19582
901.427	19537
901.546	19700
901.665	19613
901.784	19563
901.904	19400
902.023	19339
902.141	19171
902.26	19050
902.379	19088
902.498	19023
902.617	19000
902.735	19080
902.854	19023
902.973	18943
903.091	18669
903.21	18753
903.328	18745
903.446	18719
903.565	18601
903.683	18559
903.801	18311
903.919	18528
904.038	18540
904.156	18410
904.274	18353
904.392	18338
904.51	18292
904.627	18338
904.745	18407
904.863	18311
904.981	18182
905.098	18060
905.216	17840
905.334	18015
905.451	17961
905.569	17973
905.686	18022
905.803	18053
905.921	17859
906.038	17855
906.155	17783
906.272	17684
906.389	17737
906.506	17501
906.623	17554
906.74	17471
906.857	17356
906.974	17307
907.091	17623
907.208	17707
907.324	17520
907.441	17501
907.557	17223
907.674	17258
907.79	17185
907.907	17239
908.023	17383
908.139	17322
908.256	17200
908.372	16987
908.488	17132
908.604	17029
908.72	16934
908.836	16968
908.952	16858
909.068	17037
909.184	17109
909.3	16965
909.415	16968
909.531	16908
909.647	16694
909.762	16672
909.878	16626
909.993	16771
910.108	16599
910.224	16637
910.339	16561
910.454	16516
910.57	16573
910.685	16322
910.8	16649
910.915	16538
911.03	16440
911.145	16284
911.259	16348
911.374	16291
911.489	16109
911.604	16265
911.718	15968
911.833	16051
911.947	15835
912.062	15766
912.176	15975
912.291	15918
912.405	15960
912.519	16158
912.633	16067
912.748	16002
912.862	15918
912.976	15895
913.09	15705
913.204	15705
913.318	15827
913.431	15956
913.545	15892
913.659	15819
913.772	15781
913.886	15671
914	15728
914.113	15686
914.226	15781
914.34	15603
914.453	15431
914.566	15618
914.68	15542
914.793	15485
914.906	15332
915.019	15321
915.132	15176
915.245	15146
915.358	15192
915.47	15226
915.583	15192
915.696	15237
915.809	15291
915.921	15287
916.034	15104
916.146	15051
916.259	15100
916.371	15268
916.483	15100
916.595	14986
916.708	15036
916.82	15142
916.932	15070
917.044	15013
917.156	15005
917.268	14868
917.38	14906
917.491	14819
917.603	14925
917.715	14906
917.826	15077
917.938	14792
918.049	14754
918.161	14731
918.272	14944
918.384	15013
918.495	14883
918.606	14674
918.717	14503
918.828	14617
918.939	14712
919.05	14560
919.161	14655
919.272	14347
919.383	14393
919.494	14651
919.604	14811
919.715	14594
919.826	14541
919.936	14598
920.047	14648
920.157	14644
920.267	14720
920.378	14648
920.488	14518
920.598	14701
920.708	14868
920.818	14682
920.928	14659
921.038	14849
921.148	14883
921.258	14549
921.368	14396
921.477	14389
921.587	14286
921.697	14252
921.806	14301
921.916	14263
922.025	14012
922.134	14016
922.244	13982
922.353	13902
922.462	13841
922.571	13731
922.68	13616
922.789	13662
922.898	13647
923.007	13597
923.116	13681
923.224	13636
923.333	13502
923.442	13449
923.55	13400
923.659	13464
923.767	13514
923.876	13445
923.984	13518
924.092	13282
924.201	13457
924.309	13415
924.417	13354
924.525	13251
924.633	13244
924.741	14031
924.849	13061
924.956	13175
925.064	13015
925.172	13023
925.279	13008
925.387	13069
925.494	13034
925.602	13141
925.709	13141
925.816	12886
925.924	12928
926.031	13027
926.138	12954
926.245	13023
926.352	12791
926.459	13031
926.566	12989
926.673	12909
926.779	12711
926.886	12726
926.993	12604
927.099	12551
927.206	12540
927.312	12585
927.419	12631
927.525	12593
927.631	12612
927.737	12460
927.843	12433
927.95	12270
928.056	12456
928.162	12376
928.267	12441
928.373	13023
928.479	12525
928.585	12228
928.69	12365
928.796	12479
928.901	12254
929.007	12186
929.112	12228
929.218	12228
929.323	12140
929.428	12060
929.533	12232
929.638	12057
929.743	12106
929.848	12114
929.953	12117
930.058	11939
930.163	11794
930.267	11866
930.372	11939
930.477	11794
930.581	11908
930.685	11859
930.79	11684
930.894	11672
930.998	11691
931.103	11756
931.207	11505
931.311	11448
931.415	11383
931.519	11075
931.623	11121
