Data from test_V78500241_2382.txt Node
Date: Fri Mar 25 15:26:26 CST 2022
User: usil
Spectrometer: V785-0024
Trigger mode: 0
Integration Time (sec): 4.000000E-1
Scans to average: 1
Nonlinearity correction enabled: false
Boxcar width: 0
Storing dark spectrum: false
XAxis mode: Wavelengths
Number of Pixels in Spectrum: 1024
>>>>>Begin Spectral Data<<<<<
801.071	27344
801.214	27427
801.356	27157
801.499	26952
801.641	26971
801.783	26906
801.926	27096
802.068	26861
802.211	26826
802.353	26842
802.496	26625
802.638	26545
802.78	26530
802.923	26537
803.065	26389
803.208	26480
803.35	26484
803.492	26819
803.635	26845
803.777	26609
803.919	26632
804.061	26963
804.204	26800
804.346	26583
804.488	26579
804.63	26830
804.773	26632
804.915	26629
805.057	26830
805.199	26697
805.341	26781
805.483	26853
805.626	26689
805.768	26769
805.91	26830
806.052	26940
806.194	26682
806.336	27062
806.478	26861
806.62	26842
806.762	26982
806.904	27066
807.046	27336
807.188	27195
807.33	27188
807.472	27252
807.614	27062
807.756	27165
807.898	27108
808.04	27150
808.182	27070
808.324	27024
808.465	27165
808.607	27363
808.749	27397
808.891	27466
809.033	27625
809.174	27348
809.316	27359
809.458	27427
809.6	27492
809.741	27542
809.883	27435
810.025	27778
810.166	27739
810.308	27823
810.45	27648
810.591	27564
810.733	27572
810.875	27408
811.016	27249
811.158	27275
811.299	27348
811.441	27469
811.582	27675
811.724	27340
811.865	27313
812.007	27272
812.148	27405
812.29	27542
812.431	27606
812.573	27755
812.714	27964
812.855	27842
812.997	28131
813.138	28124
813.279	28051
813.421	27899
813.562	27888
813.703	27610
813.845	27644
813.986	27355
814.127	27264
814.268	27085
814.41	27089
814.551	26937
814.692	27123
814.833	27024
814.974	27036
815.115	27104
815.256	26838
815.397	27020
815.539	26952
815.68	26807
815.821	26826
815.962	26861
816.103	26918
816.244	26750
816.385	26568
816.526	26670
816.666	26457
816.807	26286
816.948	26404
817.089	26427
817.23	26187
817.371	26431
817.512	26412
817.653	26324
817.793	26370
817.934	26408
818.075	26362
818.216	26202
818.356	26237
818.497	26176
818.638	25989
818.778	26058
818.919	26122
819.06	26164
819.2	26317
819.341	26408
819.481	26278
819.622	26526
819.762	26644
819.903	26480
820.043	26507
820.184	26412
820.324	26408
820.465	26415
820.605	26465
820.746	26530
820.886	26248
821.026	26339
821.167	26393
821.307	26537
821.447	26366
821.588	26347
821.728	26195
821.868	25974
822.008	25879
822.149	25818
822.289	25780
822.429	25537
822.569	25499
822.709	25609
822.849	25301
822.99	25430
823.13	25297
823.27	25240
823.41	25110
823.55	25072
823.69	25152
823.83	25080
823.97	25095
824.11	24871
824.25	24875
824.389	24943
824.529	25031
824.669	24973
824.809	25038
824.949	25050
825.089	25038
825.228	25046
825.368	24825
825.508	24722
825.648	24787
825.787	24871
825.927	24863
826.067	24768
826.206	24798
826.346	24901
826.485	24928
826.625	24673
826.765	24886
826.904	24954
827.044	24597
827.183	24703
827.323	24445
827.462	24528
827.601	24589
827.741	24525
827.88	24612
828.02	24353
828.159	24483
828.298	24437
828.437	24547
828.577	24437
828.716	24730
828.855	24616
828.994	24201
829.134	24228
829.273	24186
829.412	24171
829.551	24224
829.69	24220
829.829	24148
829.968	24369
830.107	24380
830.246	24407
830.385	24159
830.524	24038
830.663	24034
830.802	23961
830.941	23817
831.08	23805
831.219	23946
831.357	23927
831.496	24018
831.635	23855
831.774	23710
831.913	23741
832.051	23596
832.19	23573
832.329	23619
832.467	23604
832.606	23444
832.744	23490
832.883	23551
833.022	23383
833.16	23551
833.299	23535
833.437	23474
833.576	23539
833.714	23577
833.852	23611
833.991	23497
834.129	23630
834.267	23726
834.406	23592
834.544	23703
834.682	23585
834.821	23512
834.959	23767
835.097	23638
835.235	23741
835.373	23554
835.511	23642
835.65	23410
835.788	23452
835.926	23227
836.064	23258
836.202	23166
836.34	23425
836.478	23452
836.615	23273
836.753	23334
836.891	23505
837.029	23520
837.167	23383
837.305	23292
837.443	23337
837.58	23204
837.718	23383
837.856	23288
837.993	23193
838.131	23170
838.269	23239
838.406	23159
838.544	23242
838.681	22885
838.819	22881
838.956	22736
839.094	22599
839.231	22790
839.369	22961
839.506	23162
839.643	22949
839.781	22748
839.918	22717
840.055	22771
840.193	22797
840.33	22592
840.467	22611
840.604	22679
840.742	22824
840.879	22447
841.016	22577
841.153	22538
841.29	22820
841.427	22596
841.564	22664
841.701	22660
841.838	22649
841.975	22569
842.112	22504
842.249	22580
842.385	22356
842.522	22683
842.659	22519
842.796	22451
842.933	22363
843.069	22432
843.206	22424
843.343	22470
843.479	22344
843.616	22291
843.752	22143
843.889	22257
844.025	22360
844.162	22188
844.298	22257
844.435	22204
844.571	22082
844.708	22211
844.844	22382
844.98	22424
845.117	22204
845.253	22150
845.389	22147
845.525	22177
845.661	21918
845.798	22063
845.934	21983
846.07	21915
846.206	21953
846.342	22044
846.478	21956
846.614	21690
846.75	21694
846.886	21736
847.022	21667
847.158	21717
847.294	21724
847.429	21717
847.565	21663
847.701	21873
847.837	21367
847.972	21473
848.108	21450
848.244	21542
848.379	21310
848.515	21275
848.65	21214
848.786	21317
848.921	21218
849.057	21374
849.192	21344
849.328	21260
849.463	21226
849.598	21142
849.734	21188
849.869	21093
850.004	21009
850.14	21085
850.275	21051
850.41	21017
850.545	20937
850.68	21032
850.815	20979
850.95	21039
851.085	21176
851.22	21119
851.355	20944
851.49	21039
851.625	20902
851.76	21047
851.895	20933
852.03	20906
852.165	20990
852.299	21036
852.434	21112
852.569	20952
852.703	20967
852.838	21066
852.973	21089
853.107	21028
853.242	20929
853.376	20990
853.511	20754
853.645	20663
853.78	21036
853.914	20781
854.048	20724
854.183	20804
854.317	20830
854.451	21081
854.585	20823
854.72	20823
854.854	20914
854.988	20781
855.122	20849
855.256	20739
855.39	20887
855.524	20800
855.658	20849
855.792	20948
855.926	20864
856.06	20769
856.194	20705
856.327	20834
856.461	20769
856.595	20716
856.729	20796
856.862	20990
856.996	20899
857.13	20952
857.263	20963
857.397	20902
857.53	20667
857.664	20883
857.797	20921
857.931	20929
858.064	20868
858.197	20937
858.331	20857
858.464	20758
858.597	20678
858.731	20838
858.864	20819
858.997	20807
859.13	20819
859.263	20853
859.396	20948
859.529	20823
859.662	20796
859.795	20731
859.928	20807
860.061	21043
860.194	20960
860.327	20925
860.46	21013
860.592	20925
860.725	20944
860.858	20956
860.99	20975
861.123	20693
861.256	20697
861.388	20781
861.521	21412
861.653	20804
861.786	20663
861.918	20598
862.05	20594
862.183	20693
862.315	20826
862.447	20849
862.58	20777
862.712	20625
862.844	20400
862.976	20777
863.108	20606
863.24	21024
863.372	20518
863.504	20522
863.636	20492
863.768	20632
863.9	20552
864.032	20545
864.164	20446
864.296	20613
864.428	20663
864.559	20629
864.691	20648
864.823	20503
864.954	20590
865.086	20522
865.217	20385
865.349	20400
865.48	20511
865.612	20374
865.743	20552
865.875	20454
866.006	20385
866.137	20522
866.269	20415
866.4	20404
866.531	20374
866.662	20438
866.793	20415
866.924	20419
867.055	20423
867.186	20328
867.317	20454
867.448	20404
867.579	20362
867.71	20415
867.841	20290
867.972	20419
868.103	20339
868.233	20415
868.364	20541
868.495	20541
868.625	20701
868.756	20640
868.886	20689
869.017	20659
869.147	20746
869.278	20655
869.408	20746
869.539	20648
869.669	20758
869.799	20781
869.929	20781
870.06	20678
870.19	21013
870.32	20807
870.45	20963
870.58	21051
870.71	21268
870.84	21108
870.97	21058
871.1	21013
871.23	21195
871.36	21150
871.489	21093
871.619	21256
871.749	21272
871.879	21302
872.008	21386
872.138	21260
872.267	21192
872.397	21180
872.526	21001
872.656	21108
872.785	21104
872.915	21370
873.044	21252
873.173	21416
873.303	21336
873.432	21260
873.561	21348
873.69	21199
873.819	21268
873.948	21351
874.077	21173
874.206	21135
874.335	21249
874.464	21386
874.593	21523
874.722	21481
874.851	21564
874.979	21481
875.108	21523
875.237	21443
875.365	21428
875.494	21473
875.623	21564
875.751	21496
875.88	21545
876.008	21618
876.136	21709
876.265	21865
876.393	22051
876.521	21983
876.65	22010
876.778	21956
876.906	21884
877.034	21831
877.162	21842
877.29	21838
877.418	21819
877.546	21827
877.674	21835
877.802	21907
877.93	21819
878.058	21861
878.185	21804
878.313	21816
878.441	21793
878.568	21793
878.696	21717
878.824	21922
878.951	21991
879.079	21899
879.206	22177
879.333	21911
879.461	21899
879.588	21956
879.715	21975
879.842	22013
879.97	21983
880.097	21705
880.224	21629
880.351	21785
880.478	21648
880.605	21652
880.732	21675
880.859	21850
880.986	21652
881.112	21694
881.239	21583
881.366	21431
881.493	21355
881.619	21287
881.746	21302
881.872	21207
881.999	21249
882.125	21157
882.252	21275
882.378	21176
882.505	21279
882.631	21226
882.757	21017
882.883	21058
883.01	20986
883.136	20823
883.262	20785
883.388	20861
883.514	21013
883.64	20925
883.766	20895
883.892	20682
884.018	20663
884.143	20864
884.269	20967
884.395	20663
884.52	20609
884.646	20663
884.772	20499
884.897	20522
885.023	20689
885.148	20727
885.274	20785
885.399	20746
885.524	20640
885.65	20724
885.775	20670
885.9	20644
886.025	20667
886.15	20735
886.275	20590
886.4	20598
886.525	20621
886.65	20640
886.775	20518
886.9	20655
887.025	20785
887.149	20541
887.274	20408
887.399	20423
887.523	20370
887.648	20282
887.773	20305
887.897	20488
888.021	20457
888.146	20233
888.27	20556
888.395	20434
888.519	20476
888.643	20355
888.767	20370
888.891	20164
889.015	20199
889.139	20176
889.263	20210
889.387	20324
889.511	20415
889.635	20362
889.759	20233
889.883	20107
890.006	20195
890.13	20202
890.254	20058
890.377	20187
890.501	19852
890.624	19944
890.748	19944
890.871	19894
890.995	19799
891.118	19742
891.241	19807
891.364	19818
891.488	19951
891.611	19677
891.734	19776
891.857	19795
891.98	19708
892.103	19769
892.226	19795
892.349	19734
892.471	19491
892.594	19727
892.717	19719
892.839	19677
892.962	19620
893.085	19670
893.207	19681
893.33	19605
893.452	19628
893.575	19769
893.697	19693
893.819	19761
893.941	19772
894.064	19795
894.186	19563
894.308	19651
894.43	19845
894.552	19727
894.674	19784
894.796	19635
894.918	19689
895.04	19582
895.161	19860
895.283	19738
895.405	19590
895.526	19613
895.648	19685
895.769	19666
895.891	19719
896.012	19818
896.134	19651
896.255	19635
896.376	19670
896.498	19655
896.619	19818
896.74	19742
896.861	19761
896.982	19917
897.103	20145
897.224	19898
897.345	19875
897.466	19803
897.587	19940
897.708	19970
897.828	19917
897.949	19852
898.07	19715
898.19	19868
898.311	19928
898.431	19871
898.552	19902
898.672	19932
898.792	19936
898.913	19868
899.033	19807
899.153	19818
899.273	19772
899.393	19708
899.513	19746
899.633	19601
899.753	19712
899.873	19552
899.993	19715
900.113	19582
900.232	19624
900.352	19613
900.472	19529
900.591	19495
900.711	19422
900.83	19327
900.95	19518
901.069	19537
901.189	19396
901.308	19190
901.427	18958
901.546	19118
901.665	19107
901.784	18878
901.904	18863
902.023	18776
902.141	18544
902.26	18582
902.379	18620
902.498	18517
902.617	18528
902.735	18559
902.854	18612
902.973	18441
903.091	18228
903.21	18178
903.328	18247
903.446	18060
903.565	17969
903.683	18072
903.801	18026
903.919	18015
904.038	17923
904.156	17927
904.274	17901
904.392	17726
904.51	17756
904.627	17847
904.745	17828
904.863	17836
904.981	17665
905.098	17448
905.216	17535
905.334	17512
905.451	17512
905.569	17440
905.686	17364
905.803	17490
905.921	17303
906.038	17535
906.155	17387
906.272	17151
906.389	17155
906.506	17048
906.623	17067
906.74	16987
906.857	16976
906.974	16946
907.091	17060
907.208	17132
907.324	16976
907.441	16980
907.557	16706
907.674	16691
907.79	16622
907.907	16717
908.023	16729
908.139	16687
908.256	16675
908.372	16573
908.488	16626
908.604	16535
908.72	16382
908.836	16573
908.952	16523
909.068	16474
909.184	16561
909.3	16440
909.415	16314
909.531	16424
909.647	16246
909.762	16158
909.878	16124
909.993	16173
910.108	16185
910.224	16109
910.339	16276
910.454	16093
910.57	16071
910.685	15987
910.8	16188
910.915	16116
911.03	16032
911.145	15778
911.259	15789
911.374	15865
911.489	15770
911.604	15694
911.718	15473
911.833	15523
911.947	15382
912.062	15351
912.176	15424
912.291	15572
912.405	15492
912.519	15652
912.633	15728
912.748	15511
912.862	15603
912.976	15340
913.09	15237
913.204	15336
913.318	15329
913.431	15428
913.545	15382
913.659	15454
913.772	15252
913.886	15169
914	15294
914.113	15302
914.226	15176
914.34	15161
914.453	15017
914.566	15138
914.68	15017
914.793	15074
914.906	14804
915.019	14743
915.132	14716
915.245	14853
915.358	14902
915.47	14720
915.583	14777
915.696	14773
915.809	14880
915.921	14845
916.034	14678
916.146	14663
916.259	14701
916.371	14754
916.483	14705
916.595	14617
916.708	14678
916.82	14587
916.932	14594
917.044	14602
917.156	14434
917.268	14343
917.38	14495
917.491	14343
917.603	14431
917.715	14514
917.826	14473
917.938	14366
918.049	14202
918.161	14393
918.272	14511
918.384	14404
918.495	14446
918.606	14187
918.717	14134
918.828	14221
918.939	14305
919.05	14107
919.161	14103
919.272	14027
919.383	14065
919.494	14202
919.604	14370
919.715	14252
919.826	14050
919.936	14088
920.047	14328
920.157	14176
920.267	14347
920.378	14237
920.488	14073
920.598	14434
920.708	14442
920.818	14286
920.928	14313
921.038	14396
921.148	14374
921.258	14176
921.368	14054
921.477	13913
921.587	13894
921.697	13811
921.806	13944
921.916	13807
922.025	13616
922.134	13662
922.244	13563
922.353	13502
922.462	13426
922.571	13335
922.68	13266
922.789	13259
922.898	13171
923.007	13107
923.116	13217
923.224	13133
923.333	13255
923.442	13038
923.55	12989
923.659	13103
923.767	13129
923.876	12970
923.984	13118
924.092	12932
924.201	12829
924.309	12905
924.417	12985
924.525	12829
924.633	12825
924.741	13757
924.849	12696
924.956	12833
925.064	12730
925.172	12551
925.279	12597
925.387	12646
925.494	12665
925.602	12757
925.709	12608
925.816	12597
925.924	12593
926.031	12589
926.138	12623
926.245	12574
926.352	12471
926.459	12555
926.566	12745
926.673	12486
926.779	12448
926.886	12357
926.993	12239
927.099	12232
927.206	12136
927.312	12167
927.419	12281
927.525	12178
927.631	12247
927.737	12110
927.843	12053
927.95	11984
928.056	12011
928.162	12064
928.267	12038
928.373	12745
928.479	12163
928.585	11840
928.69	12034
928.796	12083
928.901	11916
929.007	11786
929.112	11931
929.218	11870
929.323	11824
929.428	11771
929.533	11855
929.638	11718
929.743	11741
929.848	11847
929.953	11733
930.058	11646
930.163	11452
930.267	11505
930.372	11554
930.477	11436
930.581	11691
930.685	11512
930.79	11299
930.894	11478
930.998	11356
931.103	11463
931.207	11136
931.311	11094
931.415	11003
931.519	10839
931.623	10740
