Data from test_V78500241_630.txt Node
Date: Fri Mar 25 15:14:14 CST 2022
User: usil
Spectrometer: V785-0024
Trigger mode: 0
Integration Time (sec): 4.000000E-1
Scans to average: 1
Nonlinearity correction enabled: false
Boxcar width: 0
Storing dark spectrum: false
XAxis mode: Wavelengths
Number of Pixels in Spectrum: 1024
>>>>>Begin Spectral Data<<<<<
801.071	27587
801.214	27462
801.356	27439
801.499	27416
801.641	27207
801.783	27108
801.926	27218
802.068	27306
802.211	27119
802.353	27043
802.496	26887
802.638	26899
802.78	26952
802.923	26781
803.065	26815
803.208	26682
803.35	26868
803.492	26777
803.635	27009
803.777	26940
803.919	26906
804.061	27230
804.204	26994
804.346	26918
804.488	26876
804.63	27001
804.773	26918
804.915	26853
805.057	27180
805.199	27024
805.341	26960
805.483	27043
805.626	27024
805.768	26971
805.91	26982
806.052	27138
806.194	26956
806.336	27306
806.478	27222
806.62	26982
806.762	27112
806.904	27401
807.046	27561
807.188	27420
807.33	27591
807.472	27629
807.614	27526
807.756	27458
807.898	27363
808.04	27302
808.182	27317
808.324	27367
808.465	27272
808.607	27652
808.749	27797
808.891	27770
809.033	27949
809.174	27842
809.316	27854
809.458	27850
809.6	27652
809.741	27808
809.883	27789
810.025	28063
810.166	28013
810.308	27922
810.45	27994
810.591	27945
810.733	27854
810.875	27595
811.016	27599
811.158	27652
811.299	27869
811.441	27812
811.582	27934
811.724	27625
811.865	27568
812.007	27648
812.148	27595
812.29	27698
812.431	27873
812.573	28055
812.714	28078
812.855	28215
812.997	28337
813.138	28470
813.279	28451
813.421	28371
813.562	28223
813.703	28078
813.845	27922
813.986	27732
814.127	27557
814.268	27386
814.41	27443
814.551	27427
814.692	27443
814.833	27431
814.974	27439
815.115	27389
815.256	27363
815.397	27275
815.539	27344
815.68	27329
815.821	27081
815.962	27058
816.103	27192
816.244	27039
816.385	27058
816.526	27127
816.666	26872
816.807	26659
816.948	26769
817.089	26838
817.23	26712
817.371	26705
817.512	26648
817.653	26514
817.793	26625
817.934	26575
818.075	26640
818.216	26849
818.356	26507
818.497	26640
818.638	26423
818.778	26438
818.919	26488
819.06	26663
819.2	26670
819.341	26727
819.481	26705
819.622	26842
819.762	27074
819.903	27028
820.043	26906
820.184	26830
820.324	26792
820.465	26940
820.605	26743
820.746	26792
820.886	26796
821.026	26777
821.167	26735
821.307	26883
821.447	26724
821.588	26659
821.728	26533
821.868	26381
822.008	26214
822.149	26134
822.289	26111
822.429	25959
822.569	25959
822.709	25966
822.849	25750
822.99	25632
823.13	25594
823.27	25651
823.41	25514
823.55	25400
823.69	25601
823.83	25537
823.97	25400
824.11	25327
824.25	25240
824.389	25381
824.529	25499
824.669	25278
824.809	25255
824.949	25312
825.089	25316
825.228	25358
825.368	25221
825.508	25118
825.648	25270
825.787	25183
825.927	25244
826.067	25008
826.206	25183
826.346	25236
826.485	25175
826.625	25187
826.765	25266
826.904	25206
827.044	24875
827.183	24913
827.323	24844
827.462	24954
827.601	24909
827.741	24856
827.88	25042
828.02	24722
828.159	24909
828.298	24909
828.437	25008
828.577	24802
828.716	25171
828.855	24707
828.994	24555
829.134	24566
829.273	24563
829.412	24585
829.551	24589
829.69	24456
829.829	24544
829.968	24669
830.107	24681
830.246	24467
830.385	24494
830.524	24479
830.663	24536
830.802	24426
830.941	24315
831.08	24277
831.219	24266
831.357	24384
831.496	24509
831.635	24270
831.774	24174
831.913	24057
832.051	24003
832.19	23992
832.329	24110
832.467	23901
832.606	23821
832.744	23760
832.883	23790
833.022	23912
833.16	23828
833.299	23775
833.437	23885
833.576	23961
833.714	24011
833.852	23973
833.991	23939
834.129	24098
834.267	23961
834.406	23920
834.544	23958
834.682	24030
834.821	23882
834.959	24057
835.097	23828
835.235	23988
835.373	23882
835.511	23901
835.65	23828
835.788	23893
835.926	23604
836.064	23592
836.202	23649
836.34	23729
836.478	23935
836.615	23748
836.753	23866
836.891	23794
837.029	23718
837.167	23691
837.305	23680
837.443	23634
837.58	23615
837.718	23676
837.856	23589
837.993	23592
838.131	23585
838.269	23471
838.406	23471
838.544	23535
838.681	23239
838.819	23200
838.956	23155
839.094	23197
839.231	22991
839.369	23337
839.506	23512
839.643	23239
839.781	23083
839.918	23071
840.055	23056
840.193	23052
840.33	23056
840.467	23083
840.604	23067
840.742	23349
840.879	22900
841.016	22999
841.153	23037
841.29	23010
841.427	23037
841.564	23052
841.701	23079
841.838	22991
841.975	22828
842.112	22957
842.249	22797
842.385	22763
842.522	22869
842.659	22831
842.796	22672
842.933	22694
843.069	22729
843.206	22725
843.343	22828
843.479	22759
843.616	22744
843.752	22656
843.889	22527
844.025	22634
844.162	22538
844.298	22721
844.435	22554
844.571	22451
844.708	22687
844.844	22752
844.98	22687
845.117	22626
845.253	22519
845.389	22466
845.525	22474
845.661	22382
845.798	22280
845.934	22363
846.07	22249
846.206	22284
846.342	22360
846.478	22211
846.614	22044
846.75	21979
846.886	21956
847.022	22044
847.158	22116
847.294	21953
847.429	22029
847.565	21994
847.701	22299
847.837	21827
847.972	21690
848.108	21930
848.244	21838
848.379	21713
848.515	21637
848.65	21583
848.786	21568
848.921	21633
849.057	21652
849.192	21732
849.328	21644
849.463	21591
849.598	21622
849.734	21473
849.869	21587
850.004	21458
850.14	21241
850.275	21249
850.41	21264
850.545	21374
850.68	21340
850.815	21405
850.95	21321
851.085	21572
851.22	21481
851.355	21332
851.49	21310
851.625	21222
851.76	21302
851.895	21233
852.03	21313
852.165	21359
852.299	21283
852.434	21439
852.569	21351
852.703	21393
852.838	21321
852.973	21530
853.107	21462
853.242	21386
853.376	21298
853.511	21169
853.645	21135
853.78	21412
853.914	21203
854.048	21165
854.183	21184
854.317	21313
854.451	21428
854.585	21207
854.72	21119
854.854	21249
854.988	21085
855.122	21207
855.256	21066
855.39	21260
855.524	21367
855.658	21173
855.792	21302
855.926	21275
856.06	21195
856.194	21218
856.327	21207
856.461	21119
856.595	21173
856.729	21214
856.862	21351
856.996	21230
857.13	21252
857.263	21264
857.397	21237
857.53	21096
857.664	21264
857.797	21157
857.931	21325
858.064	21245
858.197	21336
858.331	21180
858.464	21222
858.597	21066
858.731	21195
858.864	21211
858.997	21321
859.13	21157
859.263	21237
859.396	21100
859.529	21157
859.662	21279
859.795	21233
859.928	21355
860.061	21462
860.194	21397
860.327	21169
860.46	21104
860.592	21230
860.725	21268
860.858	21351
860.99	21230
861.123	21169
861.256	21039
861.388	21131
861.521	21964
861.653	21062
861.786	21013
861.918	21036
862.05	21055
862.183	21150
862.315	21154
862.447	21256
862.58	21104
862.712	20773
862.844	20891
862.976	20929
863.108	20982
863.24	21332
863.372	20754
863.504	20800
863.636	20800
863.768	20830
863.9	20975
864.032	20785
864.164	20906
864.296	20990
864.428	21051
864.559	21017
864.691	21005
864.823	20918
864.954	20849
865.086	20925
865.217	20853
865.349	20727
865.48	20746
865.612	20777
865.743	21028
865.875	21047
866.006	20804
866.137	20845
866.269	20743
866.4	20762
866.531	20777
866.662	20746
866.793	20689
866.924	20743
867.055	20826
867.186	20765
867.317	20636
867.448	20743
867.579	20731
867.71	20686
867.841	20663
867.972	20800
868.103	20785
868.233	20727
868.364	20731
868.495	20876
868.625	20979
868.756	21074
868.886	20849
869.017	20902
869.147	21039
869.278	21096
869.408	20975
869.539	20921
869.669	20963
869.799	21028
869.929	21077
870.06	21039
870.19	21351
870.32	21291
870.45	21283
870.58	21405
870.71	21454
870.84	21507
870.97	21386
871.1	21462
871.23	21500
871.36	21576
871.489	21439
871.619	21511
871.749	21545
871.879	21637
872.008	21679
872.138	21526
872.267	21523
872.397	21492
872.526	21348
872.656	21526
872.785	21401
872.915	21614
873.044	21622
873.173	21583
873.303	21595
873.432	21618
873.561	21652
873.69	21542
873.819	21618
873.948	21728
874.077	21663
874.206	21435
874.335	21572
874.464	21682
874.593	21774
874.722	21778
874.851	21907
874.979	21899
875.108	21869
875.237	21717
875.365	21694
875.494	21755
875.623	21956
875.751	21907
875.88	21759
876.008	22013
876.136	22048
876.265	22322
876.393	22348
876.521	22238
876.65	22246
876.778	22303
876.906	22074
877.034	22173
877.162	22086
877.29	22040
877.418	22040
877.546	22173
877.674	22185
877.802	22215
877.93	22154
878.058	22166
878.185	22093
878.313	22150
878.441	22090
878.568	21964
878.696	22120
878.824	22230
878.951	22341
879.079	22257
879.206	22451
879.333	22428
879.461	22169
879.588	22344
879.715	22352
879.842	22382
879.97	22158
880.097	22010
880.224	21991
880.351	22124
880.478	22010
880.605	21823
880.732	21960
880.859	22219
880.986	22109
881.112	21972
881.239	21922
881.366	21739
881.493	21728
881.619	21603
881.746	21633
881.872	21603
881.999	21576
882.125	21416
882.252	21572
882.378	21485
882.505	21652
882.631	21435
882.757	21306
882.883	21405
883.01	21367
883.136	21291
883.262	21199
883.388	21112
883.514	21310
883.64	21272
883.766	21188
883.892	20998
884.018	21077
884.143	21218
884.269	21310
884.395	20937
884.52	20864
884.646	20906
884.772	20815
884.897	20849
885.023	20876
885.148	21142
885.274	21119
885.399	21077
885.524	20868
885.65	20857
885.775	20872
885.9	20895
886.025	21001
886.15	20921
886.275	20891
886.4	20925
886.525	20864
886.65	20735
886.775	20925
886.9	21020
887.025	21096
887.149	20910
887.274	20762
887.399	20815
887.523	20663
887.648	20617
887.773	20632
887.897	20754
888.021	20762
888.146	20602
888.27	20804
888.395	20727
888.519	20754
888.643	20750
888.767	20743
888.891	20594
889.015	20400
889.139	20537
889.263	20355
889.387	20602
889.511	20727
889.635	20670
889.759	20450
889.883	20427
890.006	20473
890.13	20564
890.254	20507
890.377	20362
890.501	20187
890.624	20221
890.748	20221
890.871	20138
890.995	20065
891.118	19978
891.241	19993
891.364	20107
891.488	20229
891.611	20107
891.734	20016
891.857	20050
891.98	20031
892.103	20088
892.226	20088
892.349	19974
892.471	19993
892.594	20008
892.717	20149
892.839	20024
892.962	19997
893.085	20115
893.207	19986
893.33	19849
893.452	19837
893.575	20001
893.697	20031
893.819	20039
893.941	20180
894.064	20050
894.186	19928
894.308	19849
894.43	20119
894.552	20115
894.674	19993
894.796	19917
894.918	19833
895.04	19837
895.161	20046
895.283	19974
895.405	19978
895.526	19993
895.648	19932
895.769	20065
895.891	20005
896.012	20043
896.134	19993
896.255	19921
896.376	19852
896.498	19849
896.619	19978
896.74	19822
896.861	20065
896.982	20298
897.103	20396
897.224	20259
897.345	20206
897.466	20096
897.587	20191
897.708	20305
897.828	20183
897.949	20126
898.07	20031
898.19	20107
898.311	20313
898.431	20130
898.552	20138
898.672	20320
898.792	20298
898.913	20153
899.033	19955
899.153	19970
899.273	19845
899.393	19940
899.513	19963
899.633	20001
899.753	19913
899.873	19913
899.993	19974
900.113	19936
900.232	19871
900.352	19940
900.472	19712
900.591	19601
900.711	19799
900.83	19742
900.95	19776
901.069	19818
901.189	19791
901.308	19403
901.427	19293
901.546	19358
901.665	19335
901.784	19289
901.904	19175
902.023	19057
902.141	18905
902.26	18840
902.379	18932
902.498	18867
902.617	18768
902.735	18901
902.854	18654
902.973	18661
903.091	18551
903.21	18471
903.328	18528
903.446	18506
903.565	18251
903.683	18247
903.801	18251
903.919	18232
904.038	18167
904.156	18049
904.274	18171
904.392	18098
904.51	18163
904.627	18091
904.745	18114
904.863	18152
904.981	17882
905.098	17722
905.216	17680
905.334	17836
905.451	17668
905.569	17756
905.686	17714
905.803	17733
905.921	17535
906.038	17604
906.155	17516
906.272	17478
906.389	17318
906.506	17299
906.623	17277
906.74	17246
906.857	17155
906.974	17204
907.091	17345
907.208	17360
907.324	17353
907.441	17200
907.557	17132
907.674	17018
907.79	16949
907.907	17003
908.023	17041
908.139	16965
908.256	17010
908.372	16911
908.488	16812
908.604	16809
908.72	16653
908.836	16717
908.952	16691
909.068	16713
909.184	16774
909.3	16675
909.415	16702
909.531	16675
909.647	16512
909.762	16344
909.878	16405
909.993	16379
910.108	16432
910.224	16348
910.339	16440
910.454	16341
910.57	16211
910.685	16166
910.8	16478
910.915	16489
911.03	16204
911.145	16143
911.259	15987
911.374	16120
911.489	15945
911.604	15895
911.718	15781
911.833	15755
911.947	15698
912.062	15542
912.176	15797
912.291	15641
912.405	15812
912.519	15956
912.633	15884
912.748	15759
912.862	15797
912.976	15576
913.09	15500
913.204	15485
913.318	15549
913.431	15675
913.545	15526
913.659	15675
913.772	15507
913.886	15359
914	15534
914.113	15420
914.226	15439
914.34	15424
914.453	15237
914.566	15477
914.68	15355
914.793	15214
914.906	15081
915.019	15055
915.132	14883
915.245	14982
915.358	15043
915.47	15089
915.583	15001
915.696	14960
915.809	15135
915.921	15093
916.034	14815
916.146	14906
916.259	14918
916.371	14971
916.483	14914
916.595	14804
916.708	14849
916.82	14925
916.932	14842
917.044	14765
917.156	14754
917.268	14545
917.38	14746
917.491	14648
917.603	14575
917.715	14663
917.826	14678
917.938	14518
918.049	14442
918.161	14625
918.272	14792
918.384	14697
918.495	14617
918.606	14438
918.717	14396
918.828	14362
918.939	14511
919.05	14282
919.161	14362
919.272	14206
919.383	14271
919.494	14465
919.604	14549
919.715	14385
919.826	14332
919.936	14301
920.047	14362
920.157	14431
920.267	14469
920.378	14450
920.488	14355
920.598	14545
920.708	14724
920.818	14495
920.928	14492
921.038	14674
921.148	14590
921.258	14339
921.368	14237
921.477	14172
921.587	14100
921.697	13959
921.806	14103
921.916	13875
922.025	13753
922.134	13723
922.244	13693
922.353	13765
922.462	13658
922.571	13586
922.68	13441
922.789	13407
922.898	13377
923.007	13304
923.116	13381
923.224	13339
923.333	13403
923.442	13297
923.55	13168
923.659	13206
923.767	13304
923.876	13228
923.984	13266
924.092	13129
924.201	13183
924.309	13050
924.417	13209
924.525	13038
924.633	13095
924.741	13868
924.849	12844
924.956	13015
925.064	12817
925.172	12802
925.279	12886
925.387	12890
925.494	12810
925.602	12916
925.709	12920
925.816	12730
925.924	12840
926.031	12810
926.138	12875
926.245	12783
926.352	12703
926.459	12776
926.566	12821
926.673	12696
926.779	12559
926.886	12502
926.993	12452
927.099	12467
927.206	12304
927.312	12426
927.419	12414
927.525	12410
927.631	12498
927.737	12270
927.843	12338
927.95	12144
928.056	12186
928.162	12251
928.267	12262
928.373	12867
928.479	12266
928.585	12030
928.69	12197
928.796	12220
928.901	12045
929.007	12038
929.112	12095
929.218	12015
929.323	11961
929.428	11885
929.533	12106
929.638	11939
929.743	11889
929.848	11935
929.953	11954
930.058	11863
930.163	11718
930.267	11688
930.372	11710
930.477	11589
930.581	11897
930.685	11672
930.79	11501
930.894	11532
930.998	11554
931.103	11707
931.207	11277
931.311	11242
931.415	11105
931.519	10957
931.623	10896
