Data from test_V78500241_403.txt Node
Date: Fri Mar 25 15:12:39 CST 2022
User: usil
Spectrometer: V785-0024
Trigger mode: 0
Integration Time (sec): 4.000000E-1
Scans to average: 1
Nonlinearity correction enabled: false
Boxcar width: 0
Storing dark spectrum: false
XAxis mode: Wavelengths
Number of Pixels in Spectrum: 1024
>>>>>Begin Spectral Data<<<<<
801.071	26853
801.214	26750
801.356	26514
801.499	26495
801.641	26252
801.783	26404
801.926	26450
802.068	26370
802.211	26343
802.353	26225
802.496	26065
802.638	26031
802.78	26027
802.923	25894
803.065	25887
803.208	25894
803.35	25944
803.492	26062
803.635	26126
803.777	26058
803.919	26096
804.061	26423
804.204	25986
804.346	26103
804.488	25993
804.63	26088
804.773	26069
804.915	26164
805.057	26161
805.199	26107
805.341	26073
805.483	26229
805.626	26107
805.768	26039
805.91	26027
806.052	26267
806.194	25982
806.336	26457
806.478	26267
806.62	26161
806.762	26358
806.904	26537
807.046	26724
807.188	26537
807.33	26648
807.472	26606
807.614	26431
807.756	26568
807.898	26450
808.04	26404
808.182	26362
808.324	26495
808.465	26457
808.607	26583
808.749	26781
808.891	26815
809.033	26960
809.174	26800
809.316	26735
809.458	26678
809.6	26716
809.741	26823
809.883	26952
810.025	27077
810.166	27062
810.308	27138
810.45	26979
810.591	27051
810.733	26765
810.875	26769
811.016	26507
811.158	26606
811.299	26727
811.441	26929
811.582	26804
811.724	26667
811.865	26708
812.007	26792
812.148	26834
812.29	26811
812.431	26937
812.573	27051
812.714	27176
812.855	27313
812.997	27386
813.138	27515
813.279	27336
813.421	27192
813.562	27146
813.703	27104
813.845	26902
813.986	26648
814.127	26480
814.268	26488
814.41	26377
814.551	26370
814.692	26461
814.833	26324
814.974	26290
815.115	26332
815.256	26187
815.397	26282
815.539	26218
815.68	26191
815.821	25982
815.962	26229
816.103	26244
816.244	26058
816.385	25864
816.526	25864
816.666	25753
816.807	25674
816.948	25712
817.089	25753
817.23	25788
817.371	25681
817.512	25731
817.653	25772
817.793	25552
817.934	25620
818.075	25613
818.216	25609
818.356	25506
818.497	25506
818.638	25407
818.778	25354
818.919	25369
819.06	25411
819.2	25434
819.341	25556
819.481	25544
819.622	25791
819.762	25833
819.903	25909
820.043	25723
820.184	25734
820.324	25628
820.465	25856
820.605	25944
820.746	25647
820.886	25495
821.026	25742
821.167	25651
821.307	25913
821.447	25670
821.588	25647
821.728	25434
821.868	25327
822.008	25152
822.149	25232
822.289	25148
822.429	24856
822.569	24856
822.709	24833
822.849	24722
822.99	24753
823.13	24642
823.27	24646
823.41	24410
823.55	24353
823.69	24448
823.83	24521
823.97	24410
824.11	24178
824.25	24258
824.389	24289
824.529	24315
824.669	24304
824.809	24410
824.949	24311
825.089	24304
825.228	24213
825.368	24163
825.508	24133
825.648	24125
825.787	24155
825.927	24125
826.067	24079
826.206	24232
826.346	24117
826.485	24159
826.625	24053
826.765	24228
826.904	24205
827.044	23942
827.183	23885
827.323	23832
827.462	23958
827.601	23946
827.741	23855
827.88	23893
828.02	23707
828.159	23889
828.298	23828
828.437	23901
828.577	23859
828.716	23980
828.855	23737
828.994	23608
829.134	23649
829.273	23714
829.412	23497
829.551	23543
829.69	23657
829.829	23676
829.968	23577
830.107	23539
830.246	23710
830.385	23490
830.524	23452
830.663	23440
830.802	23208
830.941	23128
831.08	23235
831.219	23284
831.357	23254
831.496	23573
831.635	23178
831.774	23102
831.913	23204
832.051	22934
832.19	23067
832.329	22972
832.467	22976
832.606	22850
832.744	22812
832.883	23006
833.022	22904
833.16	22778
833.299	22968
833.437	22824
833.576	22900
833.714	22892
833.852	22919
833.991	22949
834.129	23056
834.267	23014
834.406	22923
834.544	23079
834.682	23003
834.821	22949
834.959	23044
835.097	22942
835.235	23010
835.373	22934
835.511	22900
835.65	22793
835.788	22797
835.926	22733
836.064	22771
836.202	22554
836.34	22889
836.478	22881
836.615	22774
836.753	22934
836.891	22790
837.029	22934
837.167	22805
837.305	22816
837.443	22626
837.58	22630
837.718	22698
837.856	22630
837.993	22588
838.131	22645
838.269	22527
838.406	22656
838.544	22466
838.681	22291
838.819	22265
838.956	22082
839.094	22169
839.231	22268
839.369	22284
839.506	22493
839.643	22352
839.781	22143
839.918	22093
840.055	22010
840.193	22143
840.33	22116
840.467	21903
840.604	22082
840.742	22348
840.879	21975
841.016	22021
841.153	22006
841.29	22188
841.427	22246
841.564	22086
841.701	22101
841.838	21983
841.975	21979
842.112	21987
842.249	21975
842.385	21838
842.522	22017
842.659	21892
842.796	21800
842.933	21861
843.069	21736
843.206	21797
843.343	21892
843.479	21743
843.616	21892
843.752	21656
843.889	21644
844.025	21838
844.162	21591
844.298	21778
844.435	21477
844.571	21473
844.708	21667
844.844	21808
844.98	21743
845.117	21694
845.253	21603
845.389	21504
845.525	21523
845.661	21382
845.798	21431
845.934	21428
846.07	21382
846.206	21462
846.342	21587
846.478	21348
846.614	21150
846.75	21096
846.886	21131
847.022	21108
847.158	20986
847.294	21062
847.429	21055
847.565	20975
847.701	21203
847.837	20842
847.972	20788
848.108	20941
848.244	20765
848.379	20758
848.515	20693
848.65	20785
848.786	20659
848.921	20705
849.057	20746
849.192	20807
849.328	20769
849.463	20670
849.598	20727
849.734	20655
849.869	20564
850.004	20549
850.14	20450
850.275	20495
850.41	20400
850.545	20393
850.68	20370
850.815	20408
850.95	20385
851.085	20659
851.22	20617
851.355	20446
851.49	20431
851.625	20377
851.76	20381
851.895	20362
852.03	20347
852.165	20465
852.299	20560
852.434	20438
852.569	20537
852.703	20343
852.838	20552
852.973	20655
853.107	20746
853.242	20419
853.376	20263
853.511	20164
853.645	20153
853.78	20457
853.914	20294
854.048	20309
854.183	20233
854.317	20305
854.451	20412
854.585	20339
854.72	20153
854.854	20366
854.988	20221
855.122	20214
855.256	20180
855.39	20332
855.524	20214
855.658	20301
855.792	20229
855.926	20358
856.06	20229
856.194	20377
856.327	20210
856.461	20278
856.595	20126
856.729	20301
856.862	20469
856.996	20290
857.13	20343
857.263	20328
857.397	20294
857.53	20370
857.664	20275
857.797	20396
857.931	20415
858.064	20294
858.197	20480
858.331	20065
858.464	20240
858.597	20149
858.731	20381
858.864	20271
858.997	20282
859.13	20252
859.263	20237
859.396	20252
859.529	20259
859.662	20275
859.795	20290
859.928	20290
860.061	20393
860.194	20400
860.327	20370
860.46	20419
860.592	20328
860.725	20393
860.858	20393
860.99	20301
861.123	20206
861.256	20221
861.388	20237
861.521	21005
861.653	20138
861.786	20111
861.918	20130
862.05	20187
862.183	20191
862.315	20301
862.447	20218
862.58	20168
862.712	20046
862.844	19967
862.976	20058
863.108	20016
863.24	20393
863.372	19917
863.504	19997
863.636	19940
863.768	20043
863.9	20077
864.032	19879
864.164	19913
864.296	19967
864.428	20084
864.559	20115
864.691	20134
864.823	20016
864.954	20058
865.086	20092
865.217	19986
865.349	19795
865.48	19936
865.612	19712
865.743	20100
865.875	19917
866.006	19814
866.137	19845
866.269	19963
866.4	19875
866.531	19849
866.662	19738
866.793	19849
866.924	19845
867.055	19849
867.186	19887
867.317	19742
867.448	19795
867.579	19852
867.71	19746
867.841	19761
867.972	19803
868.103	19906
868.233	19753
868.364	19902
868.495	19932
868.625	20092
868.756	20149
868.886	20039
869.017	20008
869.147	20164
869.278	20149
869.408	20084
869.539	20054
869.669	20012
869.799	20164
869.929	20263
870.06	20115
870.19	20385
870.32	20412
870.45	20522
870.58	20564
870.71	20667
870.84	20617
870.97	20541
871.1	20457
871.23	20613
871.36	20727
871.489	20564
871.619	20701
871.749	20632
871.879	20705
872.008	20746
872.138	20689
872.267	20564
872.397	20606
872.526	20454
872.656	20530
872.785	20594
872.915	20655
873.044	20762
873.173	20629
873.303	20796
873.432	20754
873.561	20739
873.69	20712
873.819	20667
873.948	20819
874.077	20693
874.206	20682
874.335	20796
874.464	20838
874.593	21009
874.722	20902
874.851	21013
874.979	20948
875.108	21005
875.237	20883
875.365	20880
875.494	20975
875.623	21096
875.751	20895
875.88	20944
876.008	21047
876.136	21146
876.265	21298
876.393	21618
876.521	21378
876.65	21515
876.778	21408
876.906	21431
877.034	21237
877.162	21344
877.29	21287
877.418	21355
877.546	21233
877.674	21382
877.802	21211
877.93	21386
878.058	21336
878.185	21188
878.313	21249
878.441	21195
878.568	21180
878.696	21138
878.824	21344
878.951	21317
879.079	21576
879.206	21542
879.333	21557
879.461	21382
879.588	21496
879.715	21363
879.842	21538
879.97	21355
880.097	21275
880.224	21142
880.351	21055
880.478	21074
880.605	21077
880.732	21043
880.859	21351
880.986	21123
881.112	21161
881.239	21024
881.366	20899
881.493	20754
881.619	20640
881.746	20678
881.872	20731
881.999	20705
882.125	20518
882.252	20739
882.378	20727
882.505	20804
882.631	20518
882.757	20461
882.883	20495
883.01	20415
883.136	20431
883.262	20309
883.388	20275
883.514	20415
883.64	20484
883.766	20370
883.892	20221
884.018	20282
884.143	20324
884.269	20454
884.395	20164
884.52	19986
884.646	20187
884.772	20073
884.897	19982
885.023	20115
885.148	20183
885.274	20195
885.399	20237
885.524	20130
885.65	20180
885.775	20164
885.9	20043
886.025	20305
886.15	20145
886.275	20020
886.4	20027
886.525	20103
886.65	19887
886.775	19906
886.9	20138
887.025	20362
887.149	19955
887.274	19947
887.399	20008
887.523	19864
887.648	19723
887.773	19757
887.897	19955
888.021	19898
888.146	19883
888.27	19928
888.395	19986
888.519	19852
888.643	19925
888.767	19906
888.891	19727
889.015	19628
889.139	19750
889.263	19624
889.387	19784
889.511	19803
889.635	19803
889.759	19609
889.883	19719
890.006	19795
890.13	19704
890.254	19643
890.377	19563
890.501	19388
890.624	19415
890.748	19487
890.871	19362
890.995	19221
891.118	19160
891.241	19221
891.364	19362
891.488	19392
891.611	19251
891.734	19335
891.857	19331
891.98	19339
892.103	19183
892.226	19156
892.349	19133
892.471	19072
892.594	19129
892.717	19183
892.839	19160
892.962	19206
893.085	19293
893.207	19171
893.33	18973
893.452	19057
893.575	19183
893.697	19244
893.819	19369
893.941	19327
894.064	19263
894.186	19171
894.308	19061
894.43	19213
894.552	19369
894.674	19255
894.796	19019
894.918	19187
895.04	19190
895.161	19175
895.283	19255
895.405	19126
895.526	19236
895.648	19187
895.769	19156
895.891	19202
896.012	19358
896.134	19107
896.255	19324
896.376	19156
896.498	19274
896.619	19240
896.74	19190
896.861	19221
896.982	19419
897.103	19464
897.224	19491
897.345	19434
897.466	19392
897.587	19365
897.708	19499
897.828	19472
897.949	19320
898.07	19316
898.19	19244
898.311	19419
898.431	19316
898.552	19460
898.672	19415
898.792	19605
898.913	19510
899.033	19411
899.153	19266
899.273	19046
899.393	19190
899.513	19274
899.633	19103
899.753	19263
899.873	19164
899.993	19289
900.113	19129
900.232	19171
900.352	19194
900.472	18958
900.591	18973
900.711	19012
900.83	18928
900.95	19042
901.069	19019
901.189	18825
901.308	18658
901.427	18627
901.546	18509
901.665	18669
901.784	18711
901.904	18464
902.023	18361
902.141	18136
902.26	18041
902.379	18224
902.498	18152
902.617	18178
902.735	18129
902.854	18136
902.973	18102
903.091	17710
903.21	17729
903.328	17775
903.446	17672
903.565	17687
903.683	17623
903.801	17414
903.919	17600
904.038	17551
904.156	17467
904.274	17421
904.392	17216
904.51	17345
904.627	17261
904.745	17341
904.863	17368
904.981	17147
905.098	17010
905.216	17022
905.334	16968
905.451	17079
905.569	17067
905.686	17075
905.803	17064
905.921	16835
906.038	16961
906.155	16839
906.272	16767
906.389	16778
906.506	16607
906.623	16634
906.74	16500
906.857	16508
906.974	16596
907.091	16580
907.208	16790
907.324	16637
907.441	16527
907.557	16356
907.674	16360
907.79	16276
907.907	16219
908.023	16398
908.139	16272
908.256	16276
908.372	16325
908.488	16192
908.604	16131
908.72	15975
908.836	16002
908.952	16040
909.068	16074
909.184	16090
909.3	16021
909.415	16177
909.531	16002
909.647	15770
909.762	15732
909.878	15762
909.993	15739
910.108	15732
910.224	15705
910.339	15728
910.454	15564
910.57	15545
910.685	15435
910.8	15903
910.915	15682
911.03	15591
911.145	15378
911.259	15378
911.374	15370
911.489	15329
911.604	15275
911.718	15116
911.833	15157
911.947	14979
912.062	14941
912.176	15001
912.291	15093
912.405	14944
912.519	15283
912.633	15336
912.748	15074
912.862	15032
912.976	14937
913.09	14838
913.204	14910
913.318	14960
913.431	15047
913.545	14948
913.659	14963
913.772	14944
913.886	14823
914	14735
914.113	14921
914.226	14826
914.34	14773
914.453	14701
914.566	14804
914.68	14507
914.793	14575
914.906	14431
915.019	14438
915.132	14389
915.245	14328
915.358	14442
915.47	14461
915.583	14396
915.696	14400
915.809	14507
915.921	14564
916.034	14370
916.146	14233
916.259	14225
916.371	14355
916.483	14336
916.595	14256
916.708	14282
916.82	14309
916.932	14202
917.044	14168
917.156	14237
917.268	14073
917.38	14103
917.491	14180
917.603	14123
917.715	14126
917.826	14149
917.938	14012
918.049	13906
918.161	13947
918.272	14191
918.384	14092
918.495	14024
918.606	13845
918.717	13932
918.828	13795
918.939	14046
919.05	13742
919.161	13887
919.272	13643
919.383	13803
919.494	13925
919.604	14054
919.715	13890
919.826	13791
919.936	13818
920.047	13795
920.157	13845
920.267	13947
920.378	13791
920.488	13791
920.598	13959
920.708	14081
920.818	13906
920.928	13967
921.038	14039
921.148	14024
921.258	13719
921.368	13655
921.477	13582
921.587	13616
921.697	13453
921.806	13559
921.916	13460
922.025	13232
922.134	13183
922.244	13171
922.353	13183
922.462	13088
922.571	13053
922.68	12840
922.789	12852
922.898	12954
923.007	12852
923.116	12901
923.224	12977
923.333	12795
923.442	12688
923.55	12719
923.659	12711
923.767	12730
923.876	12711
923.984	12677
924.092	12604
924.201	12696
924.309	12696
924.417	12642
924.525	12544
924.633	12532
924.741	13525
924.849	12338
924.956	12452
925.064	12346
925.172	12239
925.279	12330
925.387	12308
925.494	12350
925.602	12437
925.709	12334
925.816	12194
925.924	12273
926.031	12384
926.138	12270
926.245	12330
926.352	12311
926.459	12304
926.566	12353
926.673	12239
926.779	12095
926.886	12129
926.993	11954
927.099	11923
927.206	11821
927.312	11805
927.419	11939
927.525	11969
927.631	11969
927.737	11809
927.843	11707
927.95	11649
928.056	11726
928.162	11691
928.267	11748
928.373	12433
928.479	11912
928.585	11596
928.69	11722
928.796	11733
928.901	11585
929.007	11512
929.112	11627
929.218	11581
929.323	11471
929.428	11478
929.533	11554
929.638	11398
929.743	11433
929.848	11532
929.953	11440
930.058	11345
930.163	11201
930.267	11250
930.372	11326
930.477	11174
930.581	11376
930.685	11292
930.79	11079
930.894	11090
930.998	11086
931.103	11239
931.207	10854
931.311	10778
931.415	10744
931.519	10561
931.623	10432
