Data from test_V78500241_1245.txt Node
Date: Fri Mar 25 15:18:31 CST 2022
User: usil
Spectrometer: V785-0024
Trigger mode: 0
Integration Time (sec): 4.000000E-1
Scans to average: 1
Nonlinearity correction enabled: false
Boxcar width: 0
Storing dark spectrum: false
XAxis mode: Wavelengths
Number of Pixels in Spectrum: 1024
>>>>>Begin Spectral Data<<<<<
801.071	27622
801.214	27603
801.356	27359
801.499	27405
801.641	27230
801.783	27329
801.926	27294
802.068	27195
802.211	27062
802.353	27093
802.496	26891
802.638	26910
802.78	26899
802.923	26872
803.065	26648
803.208	26693
803.35	26705
803.492	26815
803.635	27131
803.777	26792
803.919	26963
804.061	27397
804.204	27055
804.346	26948
804.488	26887
804.63	26845
804.773	26990
804.915	27108
805.057	27005
805.199	26956
805.341	27108
805.483	27116
805.626	27154
805.768	26982
805.91	27211
806.052	27256
806.194	27093
806.336	27291
806.478	27161
806.62	27028
806.762	27211
806.904	27340
807.046	27572
807.188	27500
807.33	27466
807.472	27580
807.614	27542
807.756	27637
807.898	27629
808.04	27450
808.182	27652
808.324	27427
808.465	27450
808.607	27603
808.749	27789
808.891	27755
809.033	27907
809.174	27736
809.316	27694
809.458	27831
809.6	27686
809.741	27861
809.883	27873
810.025	28040
810.166	28124
810.308	28120
810.45	27968
810.591	27994
810.733	27705
810.875	27781
811.016	27663
811.158	27705
811.299	27812
811.441	27991
811.582	27991
811.724	27766
811.865	27633
812.007	27675
812.148	27618
812.29	27747
812.431	27937
812.573	28093
812.714	28246
812.855	28253
812.997	28424
813.138	28470
813.279	28470
813.421	28421
813.562	28268
813.703	28188
813.845	27991
813.986	27739
814.127	27606
814.268	27523
814.41	27477
814.551	27443
814.692	27485
814.833	27306
814.974	27454
815.115	27435
815.256	27401
815.397	27313
815.539	27291
815.68	27317
815.821	27100
815.962	27222
816.103	27302
816.244	27146
816.385	27036
816.526	26982
816.666	26853
816.807	26689
816.948	26880
817.089	26796
817.23	26823
817.371	26762
817.512	26678
817.653	26762
817.793	26644
817.934	26629
818.075	26731
818.216	26819
818.356	26804
818.497	26594
818.638	26473
818.778	26374
818.919	26453
819.06	26602
819.2	26625
819.341	26640
819.481	26693
819.622	26887
819.762	27036
819.903	27081
820.043	26910
820.184	26739
820.324	26842
820.465	26971
820.605	26868
820.746	26826
820.886	26712
821.026	26857
821.167	26842
821.307	26975
821.447	26701
821.588	26670
821.728	26640
821.868	26347
822.008	26286
822.149	26267
822.289	26119
822.429	26012
822.569	25845
822.709	25803
822.849	25837
822.99	25803
823.13	25791
823.27	25731
823.41	25453
823.55	25563
823.69	25521
823.83	25544
823.97	25552
824.11	25403
824.25	25377
824.389	25331
824.529	25502
824.669	25479
824.809	25438
824.949	25468
825.089	25453
825.228	25460
825.368	25285
825.508	25289
825.648	25259
825.787	25327
825.927	25499
826.067	25072
826.206	25266
826.346	25320
826.485	25377
826.625	25179
826.765	25339
826.904	25301
827.044	25091
827.183	25069
827.323	24981
827.462	25004
827.601	24977
827.741	25088
827.88	24992
828.02	24973
828.159	24875
828.298	24981
828.437	24939
828.577	24943
828.716	25099
828.855	24825
828.994	24681
829.134	24738
829.273	24829
829.412	24730
829.551	24620
829.69	24654
829.829	24787
829.968	24757
830.107	24863
830.246	24707
830.385	24692
830.524	24555
830.663	24540
830.802	24498
830.941	24254
831.08	24251
831.219	24433
831.357	24224
831.496	24547
831.635	24300
831.774	24277
831.913	24239
832.051	24182
832.19	23999
832.329	24114
832.467	24038
832.606	23840
832.744	23988
832.883	24049
833.022	24007
833.16	23920
833.299	23965
833.437	24148
833.576	24148
833.714	24155
833.852	24171
833.991	24030
834.129	24201
834.267	24194
834.406	24129
834.544	23984
834.682	24159
834.821	23988
834.959	24205
835.097	24038
835.235	24072
835.373	23954
835.511	24053
835.65	23897
835.788	24034
835.926	23821
836.064	23775
836.202	23703
836.34	23863
836.478	24011
836.615	24034
836.753	23965
836.891	23939
837.029	23988
837.167	23786
837.305	23859
837.443	23737
837.58	23794
837.718	23942
837.856	23779
837.993	23642
838.131	23752
838.269	23505
838.406	23775
838.544	23570
838.681	23330
838.819	23436
838.956	23307
839.094	23178
839.231	23311
839.369	23246
839.506	23562
839.643	23406
839.781	23193
839.918	23170
840.055	23204
840.193	23280
840.33	23086
840.467	23235
840.604	23181
840.742	23311
840.879	23014
841.016	23071
841.153	23094
841.29	23105
841.427	23254
841.564	23151
841.701	23067
841.838	23052
841.975	23086
842.112	22942
842.249	23075
842.385	22869
842.522	23025
842.659	22938
842.796	22881
842.933	22915
843.069	22862
843.206	22873
843.343	22953
843.479	23075
843.616	22980
843.752	22626
843.889	22668
844.025	22896
844.162	22622
844.298	22748
844.435	22691
844.571	22687
844.708	22653
844.844	22782
844.98	22744
845.117	22824
845.253	22615
845.389	22489
845.525	22512
845.661	22409
845.798	22341
845.934	22402
846.07	22413
846.206	22436
846.342	22398
846.478	22337
846.614	22116
846.75	22078
846.886	22261
847.022	22204
847.158	22162
847.294	22128
847.429	22162
847.565	22139
847.701	22284
847.837	21880
847.972	21827
848.108	21903
848.244	21831
848.379	21747
848.515	21759
848.65	21724
848.786	21663
848.921	21755
849.057	21854
849.192	21835
849.328	21751
849.463	21861
849.598	21751
849.734	21656
849.869	21648
850.004	21526
850.14	21507
850.275	21500
850.41	21439
850.545	21374
850.68	21389
850.815	21466
850.95	21515
851.085	21534
851.22	21485
851.355	21542
851.49	21519
851.625	21469
851.76	21561
851.895	21424
852.03	21348
852.165	21454
852.299	21530
852.434	21507
852.569	21633
852.703	21545
852.838	21568
852.973	21538
853.107	21663
853.242	21500
853.376	21386
853.511	21294
853.645	21325
853.78	21454
853.914	21344
854.048	21294
854.183	21272
854.317	21287
854.451	21496
854.585	21321
854.72	21420
854.854	21321
854.988	21237
855.122	21245
855.256	21173
855.39	21291
855.524	21294
855.658	21214
855.792	21359
855.926	21249
856.06	21447
856.194	21329
856.327	21397
856.461	21272
856.595	21275
856.729	21230
856.862	21348
856.996	21374
857.13	21424
857.263	21454
857.397	21351
857.53	21275
857.664	21351
857.797	21237
857.931	21370
858.064	21332
858.197	21370
858.331	21226
858.464	21218
858.597	21195
858.731	21310
858.864	21351
858.997	21195
859.13	21329
859.263	21336
859.396	21424
859.529	21283
859.662	21344
859.795	21359
859.928	21389
860.061	21405
860.194	21564
860.327	21405
860.46	21317
860.592	21336
860.725	21591
860.858	21458
860.99	21283
861.123	21245
861.256	21237
861.388	21359
861.521	21968
861.653	21237
861.786	21241
861.918	21108
862.05	21306
862.183	21310
862.315	21268
862.447	21256
862.58	21119
862.712	21020
862.844	21009
862.976	21142
863.108	20994
863.24	21279
863.372	21009
863.504	21066
863.636	21070
863.768	20982
863.9	21070
864.032	20952
864.164	21024
864.296	21058
864.428	21062
864.559	21100
864.691	20971
864.823	20990
864.954	21020
865.086	20990
865.217	20941
865.349	20864
865.48	20849
865.612	21077
865.743	21154
865.875	20971
866.006	20750
866.137	20899
866.269	20838
866.4	20891
866.531	20815
866.662	20731
866.793	20705
866.924	20876
867.055	20739
867.186	20921
867.317	20956
867.448	20708
867.579	20739
867.71	20785
867.841	20765
867.972	20815
868.103	20937
868.233	20826
868.364	20880
868.495	20937
868.625	21108
868.756	21268
868.886	21081
869.017	21089
869.147	21222
869.278	21252
869.408	21116
869.539	21142
869.669	21184
869.799	21233
869.929	21176
870.06	21199
870.19	21439
870.32	21454
870.45	21306
870.58	21538
870.71	21705
870.84	21538
870.97	21439
871.1	21523
871.23	21652
871.36	21671
871.489	21538
871.619	21625
871.749	21667
871.879	21755
872.008	21762
872.138	21603
872.267	21717
872.397	21526
872.526	21618
872.656	21469
872.785	21599
872.915	21622
873.044	21762
873.173	21633
873.303	21705
873.432	21717
873.561	21827
873.69	21701
873.819	21633
873.948	21804
874.077	21827
874.206	21625
874.335	21690
874.464	21766
874.593	21945
874.722	21884
874.851	22025
874.979	21975
875.108	21934
875.237	21903
875.365	21717
875.494	21888
875.623	22002
875.751	21869
875.88	21930
876.008	22090
876.136	22109
876.265	22402
876.393	22379
876.521	22352
876.65	22440
876.778	22284
876.906	22249
877.034	22246
877.162	22226
877.29	22181
877.418	22291
877.546	22322
877.674	22310
877.802	22246
877.93	22242
878.058	22276
878.185	22173
878.313	22284
878.441	22139
878.568	22181
878.696	22268
878.824	22333
878.951	22299
879.079	22413
879.206	22626
879.333	22344
879.461	22352
879.588	22333
879.715	22596
879.842	22519
879.97	22325
880.097	22196
880.224	22044
880.351	22010
880.478	22036
880.605	21934
880.732	22067
880.859	22360
880.986	22036
881.112	22124
881.239	22040
881.366	21873
881.493	21880
881.619	21686
881.746	21652
881.872	21641
881.999	21682
882.125	21576
882.252	21690
882.378	21667
882.505	21778
882.631	21507
882.757	21492
882.883	21526
883.01	21458
883.136	21283
883.262	21252
883.388	21085
883.514	21298
883.64	21313
883.766	21336
883.892	21127
884.018	21237
884.143	21359
884.269	21363
884.395	21119
884.52	20998
884.646	21005
884.772	20834
884.897	20925
885.023	20986
885.148	21123
885.274	21192
885.399	21055
885.524	20998
885.65	20982
885.775	21020
885.9	21017
886.025	21146
886.15	21093
886.275	20845
886.4	20853
886.525	21020
886.65	20986
886.775	20944
886.9	21165
887.025	21249
887.149	20933
887.274	20823
887.399	20606
887.523	20777
887.648	20590
887.773	20716
887.897	20887
888.021	20807
888.146	20693
888.27	20864
888.395	20895
888.519	20815
888.643	20785
888.767	20807
888.891	20697
889.015	20556
889.139	20598
889.263	20537
889.387	20667
889.511	20731
889.635	20674
889.759	20549
889.883	20552
890.006	20629
890.13	20560
890.254	20469
890.377	20400
890.501	20309
890.624	20294
890.748	20358
890.871	20134
890.995	20115
891.118	20149
891.241	20259
891.364	20195
891.488	20328
891.611	20161
891.734	20161
891.857	20081
891.98	20107
892.103	20024
892.226	20145
892.349	20100
892.471	20005
892.594	20119
892.717	20077
892.839	20016
892.962	20065
893.085	20069
893.207	20172
893.33	19875
893.452	20043
893.575	20043
893.697	19982
893.819	20176
893.941	20244
894.064	20126
894.186	19986
894.308	19982
894.43	20130
894.552	20267
894.674	20069
894.796	19989
894.918	20077
895.04	19944
895.161	20054
895.283	20206
895.405	19978
895.526	20062
895.648	20020
895.769	20107
895.891	20005
896.012	20259
896.134	20084
896.255	20142
896.376	20073
896.498	20172
896.619	20016
896.74	20107
896.861	20039
896.982	20381
897.103	20434
897.224	20374
897.345	20336
897.466	20172
897.587	20336
897.708	20404
897.828	20343
897.949	20199
898.07	20084
898.19	20138
898.311	20305
898.431	20263
898.552	20309
898.672	20214
898.792	20377
898.913	20248
899.033	20115
899.153	20043
899.273	20005
899.393	20005
899.513	20077
899.633	20012
899.753	19936
899.873	20016
899.993	20100
900.113	19970
900.232	19967
900.352	19947
900.472	19830
900.591	19734
900.711	19784
900.83	19830
900.95	19765
901.069	19936
901.189	19655
901.308	19487
901.427	19388
901.546	19339
901.665	19415
901.784	19491
901.904	19373
902.023	19061
902.141	18928
902.26	18894
902.379	19034
902.498	18825
902.617	18806
902.735	18875
902.854	18894
902.973	18719
903.091	18646
903.21	18551
903.328	18486
903.446	18410
903.565	18353
903.683	18346
903.801	18323
903.919	18369
904.038	18270
904.156	18159
904.274	18133
904.392	17999
904.51	18140
904.627	18098
904.745	18133
904.863	18209
904.981	17931
905.098	17824
905.216	17935
905.334	17901
905.451	17802
905.569	17733
905.686	17836
905.803	17783
905.921	17592
906.038	17649
906.155	17703
906.272	17452
906.389	17570
906.506	17436
906.623	17322
906.74	17364
906.857	17387
906.974	17303
907.091	17334
907.208	17486
907.324	17356
907.441	17189
907.557	17090
907.674	17025
907.79	17010
907.907	17067
908.023	17109
908.139	17174
908.256	17010
908.372	16911
908.488	16980
908.604	16869
908.72	16687
908.836	16637
908.952	16763
909.068	16801
909.184	16831
909.3	16645
909.415	16828
909.531	16691
909.647	16554
909.762	16508
909.878	16447
909.993	16569
910.108	16459
910.224	16409
910.339	16485
910.454	16375
910.57	16409
910.685	16196
910.8	16474
910.915	16485
911.03	16291
911.145	16131
911.259	16078
911.374	15983
911.489	16021
911.604	16067
911.718	15953
911.833	15842
911.947	15797
912.062	15701
912.176	15861
912.291	15873
912.405	15816
912.519	15911
912.633	15960
912.748	15880
912.862	15816
912.976	15713
913.09	15511
913.204	15599
913.318	15728
913.431	15698
913.545	15819
913.659	15720
913.772	15648
913.886	15568
914	15416
914.113	15473
914.226	15507
914.34	15504
914.453	15382
914.566	15485
914.68	15374
914.793	15367
914.906	15123
915.019	15173
915.132	15066
915.245	15024
915.358	15154
915.47	15100
915.583	14998
915.696	15085
915.809	15218
915.921	15264
916.034	15017
916.146	14960
916.259	14941
916.371	15062
916.483	14906
916.595	14906
916.708	14845
916.82	14826
916.932	14857
917.044	14849
917.156	14826
917.268	14724
917.38	14804
917.491	14674
917.603	14762
917.715	14735
917.826	14758
917.938	14667
918.049	14571
918.161	14727
918.272	14830
918.384	14807
918.495	14697
918.606	14454
918.717	14431
918.828	14457
918.939	14571
919.05	14393
919.161	14366
919.272	14301
919.383	14339
919.494	14484
919.604	14769
919.715	14473
919.826	14454
919.936	14400
920.047	14526
920.157	14549
920.267	14602
920.378	14438
920.488	14309
920.598	14571
920.708	14785
920.818	14579
920.928	14526
921.038	14743
921.148	14575
921.258	14389
921.368	14267
921.477	14161
921.587	14123
921.697	14065
921.806	14187
921.916	13986
922.025	13902
922.134	13772
922.244	13746
922.353	13871
922.462	13643
922.571	13548
922.68	13457
922.789	13476
922.898	13468
923.007	13381
923.116	13510
923.224	13495
923.333	13396
923.442	13343
923.55	13308
923.659	13464
923.767	13381
923.876	13194
923.984	13339
924.092	13244
924.201	13179
924.309	13194
924.417	13213
924.525	13145
924.633	13152
924.741	13841
924.849	12966
924.956	13088
925.064	12928
925.172	12837
925.279	12863
925.387	12894
925.494	12878
925.602	12977
925.709	12985
925.816	12749
925.924	12882
926.031	12859
926.138	12848
926.245	12848
926.352	12673
926.459	12795
926.566	12863
926.673	12730
926.779	12681
926.886	12639
926.993	12563
927.099	12563
927.206	12395
927.312	12414
927.419	12566
927.525	12391
927.631	12471
927.737	12391
927.843	12285
927.95	12167
928.056	12247
928.162	12296
928.267	12418
928.373	13042
928.479	12342
928.585	12060
928.69	12296
928.796	12262
928.901	12129
929.007	11999
929.112	12114
929.218	12114
929.323	11984
929.428	12026
929.533	12114
929.638	11912
929.743	11939
929.848	12034
929.953	11958
930.058	11874
930.163	11627
930.267	11665
930.372	11851
930.477	11695
930.581	11920
930.685	11688
930.79	11581
930.894	11611
930.998	11592
931.103	11729
931.207	11353
931.311	11250
931.415	11143
931.519	10908
931.623	10980
