Data from test_V78500241_2847.txt Node
Date: Fri Mar 25 15:29:41 CST 2022
User: usil
Spectrometer: V785-0024
Trigger mode: 0
Integration Time (sec): 4.000000E-1
Scans to average: 1
Nonlinearity correction enabled: false
Boxcar width: 0
Storing dark spectrum: false
XAxis mode: Wavelengths
Number of Pixels in Spectrum: 1024
>>>>>Begin Spectral Data<<<<<
801.071	27252
801.214	27165
801.356	26849
801.499	26921
801.641	26678
801.783	26804
801.926	26815
802.068	26678
802.211	26663
802.353	26621
802.496	26453
802.638	26389
802.78	26370
802.923	26488
803.065	26233
803.208	26412
803.35	26473
803.492	26518
803.635	26571
803.777	26465
803.919	26587
804.061	27009
804.204	26571
804.346	26575
804.488	26412
804.63	26503
804.773	26431
804.915	26629
805.057	26644
805.199	26412
805.341	26526
805.483	26796
805.626	26811
805.768	26678
805.91	26606
806.052	26701
806.194	26541
806.336	26739
806.478	26693
806.62	26830
806.762	26819
806.904	26933
807.046	27104
807.188	27119
807.33	27169
807.472	27154
807.614	27055
807.756	27070
807.898	26910
808.04	26788
808.182	26899
808.324	27077
808.465	27028
808.607	27154
808.749	27317
808.891	27481
809.033	27504
809.174	27412
809.316	27142
809.458	27237
809.6	27150
809.741	27355
809.883	27355
810.025	27553
810.166	27561
810.308	27500
810.45	27443
810.591	27504
810.733	27336
810.875	27313
811.016	27146
811.158	27245
811.299	27447
811.441	27530
811.582	27523
811.724	27344
811.865	27256
812.007	27230
812.148	27222
812.29	27264
812.431	27310
812.573	27580
812.714	27785
812.855	27663
812.997	27880
813.138	28013
813.279	27865
813.421	27774
813.562	27800
813.703	27637
813.845	27488
813.986	27089
814.127	27119
814.268	27020
814.41	26971
814.551	27017
814.692	27047
814.833	26880
814.974	26823
815.115	27142
815.256	26777
815.397	26838
815.539	26868
815.68	26727
815.821	26678
815.962	26731
816.103	26731
816.244	26488
816.385	26545
816.526	26522
816.666	26374
816.807	26157
816.948	26362
817.089	26343
817.23	26305
817.371	26263
817.512	26305
817.653	26103
817.793	26210
817.934	26313
818.075	26157
818.216	26202
818.356	26252
818.497	26039
818.638	25909
818.778	25959
818.919	26058
819.06	26024
819.2	26039
819.341	26195
819.481	26157
819.622	26370
819.762	26552
819.903	26438
820.043	26294
820.184	26427
820.324	26168
820.465	26176
820.605	26263
820.746	26294
820.886	26172
821.026	26199
821.167	26153
821.307	26313
821.447	26149
821.588	26092
821.728	26001
821.868	25791
822.008	25689
822.149	25712
822.289	25635
822.429	25438
822.569	25327
822.709	25365
822.849	25053
822.99	25179
823.13	25164
823.27	25031
823.41	25061
823.55	24844
823.69	25038
823.83	24996
823.97	24894
824.11	24783
824.25	24829
824.389	24661
824.529	25027
824.669	24787
824.809	24996
824.949	24928
825.089	24867
825.228	24844
825.368	24635
825.508	24696
825.648	24627
825.787	24631
825.927	24837
826.067	24711
826.206	24601
826.346	24791
826.485	24764
826.625	24772
826.765	24810
826.904	24555
827.044	24467
827.183	24422
827.323	24357
827.462	24388
827.601	24365
827.741	24319
827.88	24342
828.02	24315
828.159	24414
828.298	24426
828.437	24452
828.577	24209
828.716	24532
828.855	24289
828.994	24144
829.134	24102
829.273	24178
829.412	24144
829.551	24068
829.69	24102
829.829	24102
829.968	24213
830.107	24148
830.246	24171
830.385	24068
830.524	23999
830.663	23893
830.802	23786
830.941	23733
831.08	23638
831.219	23866
831.357	23756
831.496	24018
831.635	23638
831.774	23589
831.913	23490
832.051	23440
832.19	23535
832.329	23551
832.467	23395
832.606	23299
832.744	23372
832.883	23360
833.022	23330
833.16	23349
833.299	23436
833.437	23417
833.576	23429
833.714	23509
833.852	23520
833.991	23490
834.129	23516
834.267	23444
834.406	23436
834.544	23554
834.682	23440
834.821	23516
834.959	23646
835.097	23315
835.235	23520
835.373	23528
835.511	23395
835.65	23307
835.788	23292
835.926	23151
836.064	23075
836.202	23162
836.34	23246
836.478	23364
836.615	23280
836.753	23280
836.891	23242
837.029	23269
837.167	23204
837.305	23006
837.443	23204
837.58	23064
837.718	23143
837.856	23083
837.993	23067
838.131	22980
838.269	23014
838.406	22919
838.544	22930
838.681	22763
838.819	22820
838.956	22584
839.094	22603
839.231	22698
839.369	22782
839.506	22968
839.643	22869
839.781	22634
839.918	22497
840.055	22489
840.193	22573
840.33	22500
840.467	22508
840.604	22584
840.742	22748
840.879	22409
841.016	22546
841.153	22344
841.29	22527
841.427	22413
841.564	22607
841.701	22569
841.838	22478
841.975	22348
842.112	22443
842.249	22287
842.385	22192
842.522	22546
842.659	22402
842.796	22192
842.933	22295
843.069	22211
843.206	22246
843.343	22386
843.479	22287
843.616	22257
843.752	22067
843.889	22040
844.025	22204
844.162	22067
844.298	22135
844.435	22010
844.571	22032
844.708	22055
844.844	22128
844.98	22211
845.117	22048
845.253	21960
845.389	21778
845.525	21941
845.661	21838
845.798	21743
845.934	21800
846.07	21709
846.206	21785
846.342	21907
846.478	21774
846.614	21622
846.75	21534
846.886	21454
847.022	21500
847.158	21542
847.294	21545
847.429	21690
847.565	21603
847.701	21778
847.837	21176
847.972	21237
848.108	21321
848.244	21317
848.379	21043
848.515	21017
848.65	21005
848.786	21154
848.921	21142
849.057	21264
849.192	21142
849.328	21138
849.463	21173
849.598	21081
849.734	20994
849.869	20982
850.004	20861
850.14	21020
850.275	20887
850.41	20777
850.545	20853
850.68	20765
850.815	20864
850.95	20792
851.085	21096
851.22	21009
851.355	20914
851.49	20883
851.625	20788
851.76	20842
851.895	20750
852.03	20800
852.165	20891
852.299	20838
852.434	20819
852.569	20963
852.703	20918
852.838	20910
852.973	21032
853.107	21005
853.242	20807
853.376	20785
853.511	20640
853.645	20765
853.78	20948
853.914	20777
854.048	20640
854.183	20663
854.317	20693
854.451	20880
854.585	20686
854.72	20746
854.854	20887
854.988	20609
855.122	20743
855.256	20640
855.39	20667
855.524	20823
855.658	20716
855.792	20613
855.926	20720
856.06	20845
856.194	20834
856.327	20667
856.461	20579
856.595	20590
856.729	20765
856.862	20765
856.996	20674
857.13	20735
857.263	20864
857.397	20781
857.53	20735
857.664	20686
857.797	20792
857.931	20788
858.064	20701
858.197	20807
858.331	20727
858.464	20594
858.597	20655
858.731	20667
858.864	20674
858.997	20716
859.13	20697
859.263	20621
859.396	20815
859.529	20674
859.662	20697
859.795	20731
859.928	20743
860.061	20826
860.194	20804
860.327	20758
860.46	20689
860.592	20712
860.725	20857
860.858	20834
860.99	20594
861.123	20648
861.256	20674
861.388	20746
861.521	21268
861.653	20606
861.786	20499
861.918	20629
862.05	20594
862.183	20629
862.315	20537
862.447	20648
862.58	20598
862.712	20442
862.844	20370
862.976	20590
863.108	20499
863.24	21009
863.372	20252
863.504	20389
863.636	20366
863.768	20393
863.9	20381
864.032	20195
864.164	20446
864.296	20560
864.428	20503
864.559	20438
864.691	20419
864.823	20511
864.954	20358
865.086	20400
865.217	20362
865.349	20313
865.48	20320
865.612	20355
865.743	20522
865.875	20431
866.006	20259
866.137	20377
866.269	20233
866.4	20294
866.531	20218
866.662	20290
866.793	20214
866.924	20237
867.055	20328
867.186	20347
867.317	20336
867.448	20164
867.579	20138
867.71	20134
867.841	20199
867.972	20290
868.103	20210
868.233	20332
868.364	20183
868.495	20221
868.625	20442
868.756	20716
868.886	20499
869.017	20503
869.147	20621
869.278	20621
869.408	20568
869.539	20438
869.669	20465
869.799	20495
869.929	20636
870.06	20609
870.19	20823
870.32	20849
870.45	20792
870.58	20914
870.71	20982
870.84	20979
870.97	20838
871.1	20887
871.23	20994
871.36	21074
871.489	21047
871.619	21081
871.749	21058
871.879	21157
872.008	21180
872.138	21256
872.267	21085
872.397	21055
872.526	20864
872.656	20918
872.785	20963
872.915	21138
873.044	21131
873.173	21089
873.303	21131
873.432	21180
873.561	21321
873.69	21123
873.819	21169
873.948	21180
874.077	21165
874.206	21074
874.335	21131
874.464	21214
874.593	21268
874.722	21302
874.851	21264
874.979	21481
875.108	21336
875.237	21256
875.365	21180
875.494	21256
875.623	21473
875.751	21306
875.88	21447
876.008	21340
876.136	21515
876.265	21755
876.393	21816
876.521	21819
876.65	21774
876.778	21797
876.906	21694
877.034	21713
877.162	21713
877.29	21580
877.418	21774
877.546	21751
877.674	21679
877.802	21618
877.93	21667
878.058	21759
878.185	21622
878.313	21656
878.441	21739
878.568	21622
878.696	21553
878.824	21785
878.951	21770
879.079	21915
879.206	22032
879.333	21827
879.461	21686
879.588	21679
879.715	21903
879.842	21880
879.97	21743
880.097	21545
880.224	21408
880.351	21610
880.478	21523
880.605	21466
880.732	21549
880.859	21766
880.986	21515
881.112	21572
881.239	21268
881.366	21264
881.493	21260
881.619	20994
881.746	21142
881.872	21119
881.999	21119
882.125	20998
882.252	21184
882.378	21150
882.505	21264
882.631	20967
882.757	20864
882.883	20895
883.01	20777
883.136	20800
883.262	20701
883.388	20629
883.514	20952
883.64	20880
883.766	20689
883.892	20530
884.018	20609
884.143	20781
884.269	20796
884.395	20564
884.52	20446
884.646	20674
884.772	20431
884.897	20320
885.023	20495
885.148	20602
885.274	20495
885.399	20537
885.524	20530
885.65	20488
885.775	20492
885.9	20480
886.025	20651
886.15	20530
886.275	20423
886.4	20415
886.525	20328
886.65	20381
886.775	20351
886.9	20651
887.025	20606
887.149	20434
887.274	20240
887.399	20259
887.523	20244
887.648	20210
887.773	20145
887.897	20256
888.021	20244
888.146	20210
888.27	20221
888.395	20377
888.519	20389
888.643	20199
888.767	20240
888.891	20046
889.015	20039
889.139	20115
889.263	20027
889.387	20062
889.511	20221
889.635	20180
889.759	19974
889.883	20054
890.006	20031
890.13	20221
890.254	19925
890.377	19921
890.501	19761
890.624	19841
890.748	19921
890.871	19700
890.995	19635
891.118	19647
891.241	19715
891.364	19632
891.488	19871
891.611	19685
891.734	19609
891.857	19689
891.98	19635
892.103	19544
892.226	19605
892.349	19655
892.471	19365
892.594	19601
892.717	19647
892.839	19567
892.962	19556
893.085	19624
893.207	19597
893.33	19445
893.452	19426
893.575	19635
893.697	19480
893.819	19639
893.941	19670
894.064	19780
894.186	19518
894.308	19544
894.43	19613
894.552	19693
894.674	19750
894.796	19403
894.918	19556
895.04	19556
895.161	19537
895.283	19514
895.405	19468
895.526	19556
895.648	19540
895.769	19525
895.891	19571
896.012	19567
896.134	19525
896.255	19563
896.376	19468
896.498	19537
896.619	19575
896.74	19601
896.861	19537
896.982	19734
897.103	20035
897.224	19887
897.345	19811
897.466	19719
897.587	19734
897.708	19944
897.828	19841
897.949	19742
898.07	19738
898.19	19628
898.311	19887
898.431	19772
898.552	19868
898.672	19845
898.792	19818
898.913	19849
899.033	19734
899.153	19601
899.273	19537
899.393	19628
899.513	19563
899.633	19578
899.753	19647
899.873	19453
899.993	19540
900.113	19453
900.232	19476
900.352	19491
900.472	19365
900.591	19369
900.711	19285
900.83	19308
900.95	19453
901.069	19335
901.189	19217
901.308	19038
901.427	19000
901.546	18901
901.665	18897
901.784	18890
901.904	18817
902.023	18719
902.141	18589
902.26	18475
902.379	18616
902.498	18483
902.617	18445
902.735	18509
902.854	18437
902.973	18346
903.091	18144
903.21	18114
903.328	18129
903.446	18041
903.565	17874
903.683	18026
903.801	17863
903.919	17916
904.038	17912
904.156	17714
904.274	17741
904.392	17718
904.51	17764
904.627	17665
904.745	17729
904.863	17729
904.981	17520
905.098	17459
905.216	17433
905.334	17410
905.451	17471
905.569	17296
905.686	17406
905.803	17395
905.921	17136
906.038	17223
906.155	17246
906.272	17117
906.389	17018
906.506	16911
906.623	16801
906.74	16869
906.857	16729
906.974	16908
907.091	16999
907.208	17048
907.324	16961
907.441	16790
907.557	16634
907.674	16653
907.79	16538
907.907	16687
908.023	16649
908.139	16611
908.256	16538
908.372	16523
908.488	16447
908.604	16428
908.72	16333
908.836	16363
908.952	16299
909.068	16432
909.184	16417
909.3	16474
909.415	16318
909.531	16493
909.647	16101
909.762	16067
909.878	16017
909.993	15987
910.108	16063
910.224	15964
910.339	15953
910.454	15926
910.57	15884
910.685	15831
910.8	16105
910.915	16032
911.03	15857
911.145	15720
911.259	15656
911.374	15648
911.489	15580
911.604	15526
911.718	15443
911.833	15389
911.947	15298
912.062	15249
912.176	15386
912.291	15355
912.405	15363
912.519	15709
912.633	15671
912.748	15370
912.862	15466
912.976	15348
913.09	15123
913.204	15249
913.318	15226
913.431	15252
913.545	15325
913.659	15374
913.772	15203
913.886	15150
914	14994
914.113	15058
914.226	15161
914.34	15112
914.453	14937
914.566	15085
914.68	15005
914.793	14830
914.906	14788
915.019	14689
915.132	14617
915.245	14571
915.358	14598
915.47	14625
915.583	14701
915.696	14678
915.809	14765
915.921	14781
916.034	14617
916.146	14571
916.259	14708
916.371	14651
916.483	14610
916.595	14533
916.708	14446
916.82	14476
916.932	14404
917.044	14434
917.156	14454
917.268	14328
917.38	14370
917.491	14278
917.603	14351
917.715	14442
917.826	14298
917.938	14317
918.049	14153
918.161	14225
918.272	14484
918.384	14328
918.495	14244
918.606	14164
918.717	14088
918.828	14100
918.939	14157
919.05	14016
919.161	14088
919.272	13830
919.383	14001
919.494	14126
919.604	14374
919.715	14050
919.826	13982
919.936	14012
920.047	14225
920.157	14081
920.267	14199
920.378	14062
920.488	13963
920.598	14282
920.708	14374
920.818	14176
920.928	14161
921.038	14400
921.148	14286
921.258	14016
921.368	13928
921.477	13856
921.587	13784
921.697	13723
921.806	13765
921.916	13689
922.025	13525
922.134	13483
922.244	13365
922.353	13533
922.462	13335
922.571	13308
922.68	13164
922.789	13080
922.898	13137
923.007	12989
923.116	13171
923.224	13164
923.333	13133
923.442	12993
923.55	12928
923.659	13031
923.767	13023
923.876	12878
923.984	13004
924.092	12875
924.201	12802
924.309	12989
924.417	12810
924.525	12844
924.633	12757
924.741	13693
924.849	12646
924.956	12703
925.064	12570
925.172	12460
925.279	12559
925.387	12612
925.494	12627
925.602	12658
925.709	12620
925.816	12494
925.924	12456
926.031	12608
926.138	12570
926.245	12540
926.352	12426
926.459	12521
926.566	12521
926.673	12521
926.779	12342
926.886	12281
926.993	12175
927.099	12159
927.206	12152
927.312	12030
927.419	12129
927.525	12102
927.631	12129
927.737	12049
927.843	11958
927.95	11840
928.056	12015
928.162	12011
928.267	12053
928.373	12650
928.479	12007
928.585	11866
928.69	11878
928.796	12019
928.901	11756
929.007	11745
929.112	11840
929.218	11805
929.323	11733
929.428	11737
929.533	11809
929.638	11642
929.743	11649
929.848	11699
929.953	11638
930.058	11520
930.163	11364
930.267	11436
930.372	11573
930.477	11277
930.581	11653
930.685	11402
930.79	11315
930.894	11277
930.998	11265
931.103	11463
931.207	10957
931.311	10984
931.415	10881
931.519	10767
931.623	10687
