Data from test_V78500241_1526.txt Node
Date: Fri Mar 25 15:20:28 CST 2022
User: usil
Spectrometer: V785-0024
Trigger mode: 0
Integration Time (sec): 4.000000E-1
Scans to average: 1
Nonlinearity correction enabled: false
Boxcar width: 0
Storing dark spectrum: false
XAxis mode: Wavelengths
Number of Pixels in Spectrum: 1024
>>>>>Begin Spectral Data<<<<<
801.071	27911
801.214	27861
801.356	27599
801.499	27572
801.641	27317
801.783	27302
801.926	27500
802.068	27401
802.211	27420
802.353	27237
802.496	27230
802.638	27199
802.78	27142
802.923	27112
803.065	27028
803.208	27036
803.35	27089
803.492	27226
803.635	27108
803.777	27074
803.919	27370
804.061	27443
804.204	27439
804.346	27241
804.488	27336
804.63	27214
804.773	27302
804.915	27268
805.057	27450
805.199	27336
805.341	27348
805.483	27523
805.626	27344
805.768	27214
805.91	27329
806.052	27477
806.194	27256
806.336	27660
806.478	27427
806.62	27515
806.762	27515
806.904	27686
807.046	27994
807.188	27747
807.33	27930
807.472	27835
807.614	27705
807.756	27835
807.898	27739
808.04	27614
808.182	27519
808.324	27591
808.465	27747
808.607	27998
808.749	27968
808.891	28158
809.033	28287
809.174	28158
809.316	27918
809.458	27914
809.6	28109
809.741	28185
809.883	28181
810.025	28341
810.166	28329
810.308	28363
810.45	28219
810.591	28192
810.733	28025
810.875	28109
811.016	27903
811.158	27804
811.299	28120
811.441	28207
811.582	28021
811.724	28051
811.865	28010
812.007	27991
812.148	28013
812.29	28124
812.431	28120
812.573	28333
812.714	28546
812.855	28554
812.997	28607
813.138	28717
813.279	28778
813.421	28626
813.562	28474
813.703	28390
813.845	28276
813.986	28010
814.127	27903
814.268	27785
814.41	27892
814.551	27800
814.692	27937
814.833	27789
814.974	27682
815.115	27762
815.256	27705
815.397	27679
815.539	27538
815.68	27523
815.821	27595
815.962	27530
816.103	27511
816.244	27420
816.385	27317
816.526	27397
816.666	27119
816.807	26986
816.948	26990
817.089	27085
817.23	27131
817.371	27112
817.512	26906
817.653	27028
817.793	27051
817.934	26971
818.075	27036
818.216	26891
818.356	26990
818.497	26910
818.638	26632
818.778	26716
818.919	26731
819.06	26849
819.2	26891
819.341	27036
819.481	26899
819.622	27077
819.762	27317
819.903	27214
820.043	27116
820.184	27214
820.324	27116
820.465	27173
820.605	27150
820.746	27108
820.886	26979
821.026	27051
821.167	27032
821.307	27055
821.447	26868
821.588	26952
821.728	26739
821.868	26457
822.008	26446
822.149	26469
822.289	26431
822.429	26225
822.569	26111
822.709	26191
822.849	25970
822.99	25871
823.13	25871
823.27	25902
823.41	25746
823.55	25738
823.69	25849
823.83	25826
823.97	25750
824.11	25540
824.25	25529
824.389	25635
824.529	25529
824.669	25712
824.809	25700
824.949	25723
825.089	25715
825.228	25624
825.368	25479
825.508	25381
825.648	25567
825.787	25677
825.927	25502
826.067	25411
826.206	25377
826.346	25499
826.485	25552
826.625	25415
826.765	25529
826.904	25377
827.044	25297
827.183	25221
827.323	25251
827.462	25156
827.601	25217
827.741	25217
827.88	25270
828.02	24981
828.159	25118
828.298	25187
828.437	25228
828.577	25110
828.716	25183
828.855	25156
828.994	24909
829.134	24973
829.273	24981
829.412	24878
829.551	24540
829.69	24863
829.829	24867
829.968	25046
830.107	24916
830.246	24905
830.385	24837
830.524	24909
830.663	24620
830.802	24544
830.941	24437
831.08	24304
831.219	24483
831.357	24589
831.496	24692
831.635	24464
831.774	24437
831.913	24285
832.051	24285
832.19	24323
832.329	24194
832.467	24148
832.606	24095
832.744	24178
832.883	24239
833.022	24007
833.16	24273
833.299	24148
833.437	24106
833.576	24194
833.714	24235
833.852	24121
833.991	24209
834.129	24323
834.267	24330
834.406	24254
834.544	24159
834.682	24270
834.821	24163
834.959	24357
835.097	24129
835.235	24247
835.373	24174
835.511	24194
835.65	23885
835.788	24129
835.926	23904
836.064	23859
836.202	23946
836.34	24030
836.478	24155
836.615	24064
836.753	24079
836.891	24083
837.029	24049
837.167	23973
837.305	23897
837.443	23958
837.58	23901
837.718	23908
837.856	23863
837.993	23828
838.131	23832
838.269	23756
838.406	23710
838.544	23589
838.681	23570
838.819	23455
838.956	23334
839.094	23383
839.231	23368
839.369	23497
839.506	23684
839.643	23592
839.781	23326
839.918	23200
840.055	23395
840.193	23166
840.33	23296
840.467	23227
840.604	23387
840.742	23551
840.879	23086
841.016	23170
841.153	23318
841.29	23292
841.427	23212
841.564	23216
841.701	23227
841.838	23223
841.975	22968
842.112	23246
842.249	22980
842.385	23022
842.522	23258
842.659	23064
842.796	22892
842.933	23006
843.069	22919
843.206	23014
843.343	23067
843.479	23003
843.616	22930
843.752	22706
843.889	22721
844.025	22942
844.162	22755
844.298	22805
844.435	22816
844.571	22771
844.708	22740
844.844	22923
844.98	22824
845.117	22911
845.253	22797
845.389	22706
845.525	22668
845.661	22592
845.798	22512
845.934	22603
846.07	22584
846.206	22561
846.342	22664
846.478	22516
846.614	22284
846.75	22223
846.886	22116
847.022	22280
847.158	22200
847.294	22265
847.429	22268
847.565	22211
847.701	22645
847.837	21930
847.972	22032
848.108	22025
848.244	22078
848.379	21945
848.515	21823
848.65	21804
848.786	21720
848.921	21823
849.057	21983
849.192	21842
849.328	21880
849.463	21922
849.598	21918
849.734	21663
849.869	21724
850.004	21720
850.14	21633
850.275	21576
850.41	21428
850.545	21603
850.68	21580
850.815	21644
850.95	21644
851.085	21934
851.22	21690
851.355	21648
851.49	21545
851.625	21580
851.76	21618
851.895	21538
852.03	21462
852.165	21671
852.299	21656
852.434	21720
852.569	21633
852.703	21595
852.838	21686
852.973	21880
853.107	21835
853.242	21561
853.376	21477
853.511	21416
853.645	21302
853.78	21492
853.914	21325
854.048	21382
854.183	21389
854.317	21405
854.451	21641
854.585	21568
854.72	21507
854.854	21488
854.988	21431
855.122	21348
855.256	21329
855.39	21443
855.524	21443
855.658	21523
855.792	21378
855.926	21401
856.06	21526
856.194	21504
856.327	21511
856.461	21291
856.595	21408
856.729	21443
856.862	21492
856.996	21458
857.13	21507
857.263	21587
857.397	21428
857.53	21363
857.664	21462
857.797	21545
857.931	21606
858.064	21386
858.197	21572
858.331	21393
858.464	21561
858.597	21302
858.731	21500
858.864	21412
858.997	21481
859.13	21458
859.263	21454
859.396	21534
859.529	21447
859.662	21321
859.795	21294
859.928	21447
860.061	21523
860.194	21603
860.327	21450
860.46	21496
860.592	21610
860.725	21515
860.858	21614
860.99	21450
861.123	21450
861.256	21317
861.388	21469
861.521	22120
861.653	21264
861.786	21199
861.918	21222
862.05	21154
862.183	21431
862.315	21344
862.447	21378
862.58	21393
862.712	21135
862.844	21089
862.976	21249
863.108	21207
863.24	21606
863.372	20986
863.504	21089
863.636	21161
863.768	21268
863.9	21260
864.032	21165
864.164	21325
864.296	21279
864.428	21355
864.559	21264
864.691	21154
864.823	21252
864.954	21108
865.086	21028
865.217	21036
865.349	20998
865.48	21024
865.612	21062
865.743	21093
865.875	21100
866.006	20941
866.137	21032
866.269	21032
866.4	21058
866.531	20982
866.662	20906
866.793	20937
866.924	21013
867.055	20925
867.186	20914
867.317	20948
867.448	20944
867.579	20864
867.71	20838
867.841	20887
867.972	20998
868.103	20910
868.233	21001
868.364	21020
868.495	21096
868.625	21093
868.756	21389
868.886	21146
869.017	21104
869.147	21370
869.278	21325
869.408	21218
869.539	21184
869.669	21184
869.799	21264
869.929	21260
870.06	21405
870.19	21557
870.32	21473
870.45	21443
870.58	21610
870.71	21660
870.84	21622
870.97	21595
871.1	21690
871.23	21766
871.36	21743
871.489	21618
871.619	21751
871.749	21964
871.879	21732
872.008	21930
872.138	21800
872.267	21823
872.397	21675
872.526	21595
872.656	21523
872.785	21576
872.915	21694
873.044	21922
873.173	21804
873.303	21899
873.432	21861
873.561	21751
873.69	21888
873.819	21808
873.948	21884
874.077	21823
874.206	21880
874.335	21827
874.464	21888
874.593	22051
874.722	22067
874.851	22177
874.979	21960
875.108	22021
875.237	21964
875.365	21903
875.494	22032
875.623	22013
875.751	22112
875.88	22078
876.008	22196
876.136	22276
876.265	22535
876.393	22580
876.521	22577
876.65	22443
876.778	22436
876.906	22352
877.034	22261
877.162	22428
877.29	22329
877.418	22318
877.546	22360
877.674	22382
877.802	22402
877.93	22424
878.058	22417
878.185	22291
878.313	22409
878.441	22344
878.568	22204
878.696	22382
878.824	22402
878.951	22417
879.079	22497
879.206	22687
879.333	22577
879.461	22348
879.588	22462
879.715	22519
879.842	22713
879.97	22531
880.097	22226
880.224	22211
880.351	22192
880.478	22188
880.605	22185
880.732	22120
880.859	22436
880.986	22238
881.112	22135
881.239	21903
881.366	21953
881.493	22021
881.619	21903
881.746	21785
881.872	21827
881.999	21793
882.125	21759
882.252	21812
882.378	21652
882.505	21888
882.631	21797
882.757	21500
882.883	21439
883.01	21553
883.136	21485
883.262	21424
883.388	21344
883.514	21534
883.64	21523
883.766	21389
883.892	21245
884.018	21207
884.143	21443
884.269	21332
884.395	21135
884.52	21089
884.646	21268
884.772	21184
884.897	21032
885.023	21062
885.148	21116
885.274	21188
885.399	21131
885.524	21089
885.65	21157
885.775	21199
885.9	21032
886.025	21264
886.15	21047
886.275	21131
886.4	21074
886.525	21058
886.65	21066
886.775	21074
886.9	21207
887.025	21256
887.149	21085
887.274	20899
887.399	20853
887.523	20941
887.648	20845
887.773	20735
887.897	21013
888.021	21020
888.146	20876
888.27	20948
888.395	20914
888.519	20967
888.643	20948
888.767	21043
888.891	20769
889.015	20625
889.139	20819
889.263	20640
889.387	20788
889.511	20967
889.635	20823
889.759	20640
889.883	20552
890.006	20701
890.13	20716
890.254	20674
890.377	20625
890.501	20423
890.624	20389
890.748	20446
890.871	20298
890.995	20191
891.118	20256
891.241	20259
891.364	20355
891.488	20431
891.611	20267
891.734	20202
891.857	20313
891.98	20282
892.103	20282
892.226	20191
892.349	20187
892.471	20035
892.594	20256
892.717	20210
892.839	20164
892.962	20119
893.085	20081
893.207	20134
893.33	20005
893.452	20050
893.575	20199
893.697	20058
893.819	20248
893.941	20351
894.064	20267
894.186	20100
894.308	20016
894.43	20199
894.552	20248
894.674	20172
894.796	20043
894.918	20096
895.04	20005
895.161	20233
895.283	20142
895.405	20122
895.526	20122
895.648	20134
895.769	20218
895.891	20103
896.012	20237
896.134	20214
896.255	20161
896.376	20142
896.498	20084
896.619	20195
896.74	20103
896.861	20225
896.982	20476
897.103	20602
897.224	20400
897.345	20271
897.466	20286
897.587	20259
897.708	20427
897.828	20431
897.949	20221
898.07	20221
898.19	20263
898.311	20336
898.431	20294
898.552	20366
898.672	20442
898.792	20393
898.913	20393
899.033	20320
899.153	20157
899.273	20088
899.393	20138
899.513	20286
899.633	20237
899.753	20290
899.873	20054
899.993	20062
900.113	20115
900.232	20153
900.352	20050
900.472	19955
900.591	19833
900.711	19814
900.83	19845
900.95	19982
901.069	19944
901.189	19776
901.308	19537
901.427	19476
901.546	19407
901.665	19388
901.784	19540
901.904	19377
902.023	19312
902.141	19076
902.26	19053
902.379	19103
902.498	18939
902.617	18894
902.735	19099
902.854	18962
902.973	18932
903.091	18715
903.21	18684
903.328	18681
903.446	18654
903.565	18486
903.683	18551
903.801	18365
903.919	18441
904.038	18403
904.156	18224
904.274	18285
904.392	18194
904.51	18178
904.627	18163
904.745	18174
904.863	18323
904.981	17999
905.098	17920
905.216	17954
905.334	17942
905.451	17950
905.569	17912
905.686	17916
905.803	17996
905.921	17707
906.038	17828
906.155	17767
906.272	17592
906.389	17608
906.506	17345
906.623	17425
906.74	17376
906.857	17341
906.974	17356
907.091	17585
907.208	17493
907.324	17532
907.441	17242
907.557	17029
907.674	17140
907.79	17094
907.907	17109
908.023	17181
908.139	17083
908.256	17071
908.372	17086
908.488	16949
908.604	16858
908.72	16786
908.836	16908
908.952	16892
909.068	16854
909.184	16908
909.3	16816
909.415	16881
909.531	16972
909.647	16637
909.762	16573
909.878	16447
909.993	16618
910.108	16607
910.224	16588
910.339	16558
910.454	16436
910.57	16405
910.685	16348
910.8	16618
910.915	16493
911.03	16333
911.145	16071
911.259	16204
911.374	16223
911.489	15991
911.604	16044
911.718	15926
911.833	15884
911.947	15709
912.062	15663
912.176	15838
912.291	15994
912.405	15880
912.519	16112
912.633	16055
912.748	15949
912.862	15911
912.976	15705
913.09	15564
913.204	15755
913.318	15720
913.431	15724
913.545	15800
913.659	15869
913.772	15633
913.886	15561
914	15576
914.113	15595
914.226	15663
914.34	15663
914.453	15485
914.566	15481
914.68	15435
914.793	15435
914.906	15294
915.019	15116
915.132	15127
915.245	15039
915.358	15150
915.47	15146
915.583	15104
915.696	15211
915.809	15207
915.921	15268
916.034	15116
916.146	15039
916.259	15093
916.371	15081
916.483	15169
916.595	15001
916.708	15032
916.82	14998
916.932	14986
917.044	14849
917.156	14872
917.268	14769
917.38	14785
917.491	14838
917.603	14788
917.715	14883
917.826	14861
917.938	14731
918.049	14579
918.161	14739
918.272	14861
918.384	14883
918.495	14705
918.606	14514
918.717	14469
918.828	14556
918.939	14549
919.05	14514
919.161	14484
919.272	14271
919.383	14396
919.494	14499
919.604	14686
919.715	14457
919.826	14412
919.936	14526
920.047	14499
920.157	14514
920.267	14590
920.378	14507
920.488	14503
920.598	14773
920.708	14765
920.818	14693
920.928	14625
921.038	14769
921.148	14739
921.258	14450
921.368	14332
921.477	14324
921.587	14206
921.697	14161
921.806	14244
921.916	14050
922.025	13913
922.134	13845
922.244	13784
922.353	13925
922.462	13704
922.571	13719
922.68	13616
922.789	13571
922.898	13449
923.007	13457
923.116	13502
923.224	13495
923.333	13476
923.442	13350
923.55	13324
923.659	13388
923.767	13365
923.876	13343
923.984	13327
924.092	13206
924.201	13354
924.309	13308
924.417	13209
924.525	13209
924.633	13202
924.741	13989
924.849	13015
924.956	13046
925.064	13004
925.172	12947
925.279	12928
925.387	12970
925.494	12966
925.602	13129
925.709	12970
925.816	12806
925.924	12939
926.031	12993
926.138	12951
926.245	12871
926.352	12745
926.459	12882
926.566	12928
926.673	12776
926.779	12684
926.886	12688
926.993	12616
927.099	12544
927.206	12479
927.312	12448
927.419	12540
927.525	12418
927.631	12502
927.737	12330
927.843	12384
927.95	12182
928.056	12289
928.162	12365
928.267	12346
928.373	12939
928.479	12471
928.585	12235
928.69	12239
928.796	12319
928.901	12247
929.007	12110
929.112	12235
929.218	12235
929.323	12041
929.428	12110
929.533	12239
929.638	11980
929.743	12011
929.848	12011
929.953	11954
930.058	11847
930.163	11710
930.267	11714
930.372	11920
930.477	11665
930.581	11920
930.685	11851
930.79	11710
930.894	11657
930.998	11566
931.103	11722
931.207	11414
931.311	11315
931.415	11124
931.519	10995
931.623	11045
