Data from test_V78500241_204.txt Node
Date: Fri Mar 25 15:11:16 CST 2022
User: usil
Spectrometer: V785-0024
Trigger mode: 0
Integration Time (sec): 4.000000E-1
Scans to average: 1
Nonlinearity correction enabled: false
Boxcar width: 0
Storing dark spectrum: false
XAxis mode: Wavelengths
Number of Pixels in Spectrum: 1024
>>>>>Begin Spectral Data<<<<<
801.071	28021
801.214	27759
801.356	27564
801.499	27511
801.641	27466
801.783	27268
801.926	27454
802.068	27275
802.211	27351
802.353	27199
802.496	27218
802.638	27104
802.78	26918
802.923	27005
803.065	26807
803.208	27055
803.35	26975
803.492	27074
803.635	27180
803.777	26971
803.919	27142
804.061	27424
804.204	27192
804.346	27009
804.488	27058
804.63	27028
804.773	26902
804.915	27096
805.057	27085
805.199	26902
805.341	27100
805.483	27161
805.626	27154
805.768	27199
805.91	27142
806.052	27268
806.194	27154
806.336	27405
806.478	27336
806.62	27173
806.762	27245
806.904	27405
807.046	27701
807.188	27633
807.33	27663
807.472	27762
807.614	27458
807.756	27614
807.898	27424
808.04	27359
808.182	27435
808.324	27222
808.465	27431
808.607	27622
808.749	27690
808.891	27869
809.033	28048
809.174	27827
809.316	27682
809.458	27736
809.6	27766
809.741	27857
809.883	27899
810.025	27968
810.166	27895
810.308	27987
810.45	27778
810.591	27960
810.733	27781
810.875	27663
811.016	27591
811.158	27587
811.299	27819
811.441	27827
811.582	27861
811.724	27652
811.865	27576
812.007	27667
812.148	27705
812.29	27606
812.431	27762
812.573	27926
812.714	28006
812.855	28040
812.997	28344
813.138	28443
813.279	28318
813.421	28207
813.562	28223
813.703	28074
813.845	27903
813.986	27705
814.127	27454
814.268	27367
814.41	27294
814.551	27306
814.692	27435
814.833	27237
814.974	27294
815.115	27131
815.256	27100
815.397	27096
815.539	27180
815.68	27062
815.821	26963
815.962	27211
816.103	27131
816.244	27020
816.385	26834
816.526	26800
816.666	26659
816.807	26549
816.948	26495
817.089	26613
817.23	26568
817.371	26419
817.512	26476
817.653	26514
817.793	26423
817.934	26484
818.075	26674
818.216	26488
818.356	26412
818.497	26358
818.638	26256
818.778	26195
818.919	26195
819.06	26290
819.2	26290
819.341	26431
819.481	26389
819.622	26556
819.762	26708
819.903	26750
820.043	26484
820.184	26522
820.324	26556
820.465	26629
820.605	26473
820.746	26423
820.886	26355
821.026	26362
821.167	26396
821.307	26514
821.447	26476
821.588	26301
821.728	26248
821.868	26001
822.008	26012
822.149	25883
822.289	25898
822.429	25685
822.569	25407
822.709	25556
822.849	25282
822.99	25392
823.13	25240
823.27	25228
823.41	25270
823.55	24989
823.69	25145
823.83	25141
823.97	24992
824.11	24981
824.25	24882
824.389	25000
824.529	24947
824.669	25107
824.809	25038
824.949	25091
825.089	25103
825.228	24985
825.368	24875
825.508	24844
825.648	24840
825.787	24760
825.927	24882
826.067	24810
826.206	24658
826.346	24768
826.485	24753
826.625	24795
826.765	24719
826.904	24719
827.044	24448
827.183	24555
827.323	24319
827.462	24555
827.601	24532
827.741	24505
827.88	24559
828.02	24365
828.159	24525
828.298	24399
828.437	24464
828.577	24483
828.716	24540
828.855	24357
828.994	24258
829.134	24174
829.273	24281
829.412	24079
829.551	24091
829.69	24011
829.829	24155
829.968	24220
830.107	24121
830.246	24171
830.385	24034
830.524	24106
830.663	23988
830.802	23851
830.941	23828
831.08	23619
831.219	23790
831.357	23764
831.496	24034
831.635	23733
831.774	23745
831.913	23581
832.051	23577
832.19	23497
832.329	23535
832.467	23307
832.606	23459
832.744	23467
832.883	23448
833.022	23307
833.16	23429
833.299	23387
833.437	23433
833.576	23436
833.714	23379
833.852	23425
833.991	23474
834.129	23539
834.267	23482
834.406	23554
834.544	23505
834.682	23315
834.821	23311
834.959	23649
835.097	23322
835.235	23444
835.373	23433
835.511	23410
835.65	23273
835.788	23246
835.926	23174
836.064	23121
836.202	23128
836.34	23231
836.478	23334
836.615	23197
836.753	23296
836.891	23402
837.029	23379
837.167	23193
837.305	23189
837.443	23193
837.58	23189
837.718	23124
837.856	23166
837.993	23003
838.131	23143
838.269	22930
838.406	23056
838.544	22877
838.681	22660
838.819	22706
838.956	22618
839.094	22519
839.231	22573
839.369	22759
839.506	22847
839.643	22866
839.781	22485
839.918	22360
840.055	22630
840.193	22516
840.33	22344
840.467	22455
840.604	22432
840.742	22626
840.879	22314
841.016	22367
841.153	22360
841.29	22588
841.427	22440
841.564	22443
841.701	22436
841.838	22379
841.975	22348
842.112	22322
842.249	22249
842.385	22090
842.522	22306
842.659	22230
842.796	22253
842.933	22192
843.069	22048
843.206	22150
843.343	22253
843.479	22173
843.616	22067
843.752	21953
843.889	21972
844.025	22109
844.162	21827
844.298	22010
844.435	21972
844.571	21907
844.708	22032
844.844	22185
844.98	22154
845.117	22204
845.253	21838
845.389	21838
845.525	21755
845.661	21747
845.798	21671
845.934	21652
846.07	21739
846.206	21625
846.342	21739
846.478	21682
846.614	21568
846.75	21378
846.886	21447
847.022	21473
847.158	21526
847.294	21321
847.429	21469
847.565	21310
847.701	21561
847.837	21154
847.972	21070
848.108	21256
848.244	21199
848.379	21039
848.515	20998
848.65	20914
848.786	21051
848.921	20990
849.057	21055
849.192	21112
849.328	21070
849.463	20982
849.598	20971
849.734	20834
849.869	20792
850.004	20735
850.14	20842
850.275	20686
850.41	20640
850.545	20602
850.68	20762
850.815	20716
850.95	20667
851.085	20937
851.22	20895
851.355	20796
851.49	20693
851.625	20648
851.76	20632
851.895	20579
852.03	20511
852.165	20511
852.299	20708
852.434	20883
852.569	20796
852.703	20716
852.838	20815
852.973	20819
853.107	20781
853.242	20701
853.376	20609
853.511	20393
853.645	20545
853.78	20644
853.914	20552
854.048	20438
854.183	20530
854.317	20587
854.451	20750
854.585	20492
854.72	20537
854.854	20579
854.988	20457
855.122	20488
855.256	20488
855.39	20457
855.524	20537
855.658	20507
855.792	20530
855.926	20514
856.06	20583
856.194	20575
856.327	20488
856.461	20518
856.595	20450
856.729	20476
856.862	20602
856.996	20598
857.13	20625
857.263	20629
857.397	20636
857.53	20492
857.664	20629
857.797	20621
857.931	20693
858.064	20374
858.197	20678
858.331	20465
858.464	20492
858.597	20514
858.731	20454
858.864	20469
858.997	20476
859.13	20480
859.263	20484
859.396	20625
859.529	20514
859.662	20473
859.795	20457
859.928	20530
860.061	20689
860.194	20716
860.327	20495
860.46	20602
860.592	20632
860.725	20613
860.858	20674
860.99	20537
861.123	20518
861.256	20492
861.388	20495
861.521	21131
861.653	20389
861.786	20313
861.918	20374
862.05	20389
862.183	20427
862.315	20511
862.447	20564
862.58	20320
862.712	20195
862.844	20290
862.976	20271
863.108	20107
863.24	20712
863.372	20248
863.504	20199
863.636	20199
863.768	20206
863.9	20183
864.032	20130
864.164	20168
864.296	20214
864.428	20396
864.559	20164
864.691	20183
864.823	20229
864.954	20164
865.086	20122
865.217	20081
865.349	19989
865.48	20069
865.612	20157
865.743	20252
865.875	20043
866.006	20161
866.137	20240
866.269	20225
866.4	20157
866.531	20005
866.662	19932
866.793	20115
866.924	19951
867.055	20210
867.186	19947
867.317	19989
867.448	19940
867.579	20039
867.71	19909
867.841	19852
867.972	19970
868.103	20058
868.233	20103
868.364	20180
868.495	20111
868.625	20221
868.756	20377
868.886	20244
869.017	20248
869.147	20351
869.278	20355
869.408	20347
869.539	20309
869.669	20290
869.799	20355
869.929	20507
870.06	20431
870.19	20606
870.32	20606
870.45	20648
870.58	20629
870.71	20769
870.84	20743
870.97	20724
871.1	20644
871.23	20861
871.36	20876
871.489	20655
871.619	20838
871.749	20826
871.879	20861
872.008	20929
872.138	20891
872.267	20887
872.397	20705
872.526	20712
872.656	20640
872.785	20720
872.915	20807
873.044	20819
873.173	20975
873.303	20899
873.432	20960
873.561	20975
873.69	20781
873.819	21024
873.948	20963
874.077	20967
874.206	20853
874.335	20773
874.464	20895
874.593	21161
874.722	20948
874.851	21203
874.979	21222
875.108	21211
875.237	21036
875.365	21093
875.494	21112
875.623	21043
875.751	21081
875.88	21165
876.008	21264
876.136	21230
876.265	21462
876.393	21709
876.521	21641
876.65	21694
876.778	21450
876.906	21553
877.034	21469
877.162	21519
877.29	21485
877.418	21431
877.546	21542
877.674	21458
877.802	21500
877.93	21481
878.058	21382
878.185	21435
878.313	21408
878.441	21363
878.568	21199
878.696	21443
878.824	21466
878.951	21648
879.079	21606
879.206	21743
879.333	21629
879.461	21534
879.588	21587
879.715	21603
879.842	21724
879.97	21530
880.097	21252
880.224	21214
880.351	21325
880.478	21363
880.605	21287
880.732	21256
880.859	21447
880.986	21287
881.112	21416
881.239	21176
881.366	21043
881.493	21032
881.619	20887
881.746	20910
881.872	20842
881.999	20883
882.125	20834
882.252	20891
882.378	20998
882.505	21074
882.631	20823
882.757	20644
882.883	20678
883.01	20739
883.136	20549
883.262	20518
883.388	20484
883.514	20560
883.64	20457
883.766	20522
883.892	20393
884.018	20423
884.143	20541
884.269	20594
884.395	20381
884.52	20301
884.646	20290
884.772	20183
884.897	20183
885.023	20309
885.148	20381
885.274	20275
885.399	20419
885.524	20172
885.65	20305
885.775	20294
885.9	20237
886.025	20408
886.15	20301
886.275	20210
886.4	20256
886.525	20259
886.65	20180
886.775	20202
886.9	20480
887.025	20461
887.149	20259
887.274	19993
887.399	19940
887.523	19925
887.648	19875
887.773	19887
887.897	20065
888.021	20088
888.146	19967
888.27	20119
888.395	20096
888.519	20092
888.643	19997
888.767	19925
888.891	19947
889.015	19799
889.139	19894
889.263	19780
889.387	19940
889.511	20005
889.635	19932
889.759	19826
889.883	19784
890.006	19780
890.13	19887
890.254	19715
890.377	19647
890.501	19689
890.624	19559
890.748	19651
890.871	19518
890.995	19426
891.118	19327
891.241	19480
891.364	19388
891.488	19445
891.611	19407
891.734	19304
891.857	19377
891.98	19377
892.103	19434
892.226	19411
892.349	19289
892.471	19175
892.594	19247
892.717	19441
892.839	19270
892.962	19472
893.085	19392
893.207	19236
893.33	19202
893.452	19213
893.575	19266
893.697	19362
893.819	19415
893.941	19567
894.064	19381
894.186	19168
894.308	19255
894.43	19343
894.552	19358
894.674	19350
894.796	19263
894.918	19331
895.04	19293
895.161	19373
895.283	19346
895.405	19324
895.526	19255
895.648	19343
895.769	19358
895.891	19377
896.012	19350
896.134	19327
896.255	19384
896.376	19350
896.498	19335
896.619	19438
896.74	19396
896.861	19396
896.982	19803
897.103	19951
897.224	19746
897.345	19601
897.466	19563
897.587	19658
897.708	19674
897.828	19609
897.949	19586
898.07	19304
898.19	19510
898.311	19613
898.431	19487
898.552	19605
898.672	19677
898.792	19578
898.913	19544
899.033	19472
899.153	19297
899.273	19225
899.393	19274
899.513	19301
899.633	19346
899.753	19346
899.873	19232
899.993	19411
900.113	19179
900.232	19263
900.352	19175
900.472	19141
900.591	19000
900.711	19244
900.83	19171
900.95	19213
901.069	19103
901.189	19023
901.308	18696
901.427	18741
901.546	18700
901.665	18707
901.784	18677
901.904	18547
902.023	18456
902.141	18292
902.26	18114
902.379	18273
902.498	18182
902.617	18140
902.735	18262
902.854	18243
902.973	18155
903.091	17931
903.21	17996
903.328	17946
903.446	17737
903.565	17699
903.683	17680
903.801	17554
903.919	17570
904.038	17642
904.156	17505
904.274	17452
904.392	17486
904.51	17482
904.627	17421
904.745	17452
904.863	17524
904.981	17284
905.098	16957
905.216	17185
905.334	17159
905.451	17109
905.569	17113
905.686	17140
905.803	17067
905.921	16987
906.038	17121
906.155	16965
906.272	16847
906.389	16896
906.506	16596
906.623	16713
906.74	16596
906.857	16504
906.974	16649
907.091	16622
907.208	16793
907.324	16721
907.441	16615
907.557	16542
907.674	16303
907.79	16310
907.907	16306
908.023	16360
908.139	16386
908.256	16375
908.372	16280
908.488	16280
908.604	16169
908.72	16071
908.836	16158
908.952	15994
909.068	16169
909.184	16200
909.3	16055
909.415	16048
909.531	16032
909.647	15884
909.762	15785
909.878	15823
909.993	15880
910.108	15785
910.224	15732
910.339	15800
910.454	15720
910.57	15660
910.685	15545
910.8	15778
910.915	15800
911.03	15625
911.145	15462
911.259	15397
911.374	15412
911.489	15245
911.604	15287
911.718	15150
911.833	15150
911.947	14998
912.062	14929
912.176	15081
912.291	15214
912.405	15062
912.519	15302
912.633	15294
912.748	15108
912.862	15058
912.976	14952
913.09	14868
913.204	14910
913.318	14979
913.431	14956
913.545	15055
913.659	15108
913.772	14986
913.886	14758
914	14788
914.113	14815
914.226	14861
914.34	14769
914.453	14727
914.566	14823
914.68	14571
914.793	14651
914.906	14492
915.019	14370
915.132	14263
915.245	14427
915.358	14355
915.47	14469
915.583	14377
915.696	14514
915.809	14552
915.921	14522
916.034	14343
916.146	14328
916.259	14370
916.371	14374
916.483	14294
916.595	14298
916.708	14278
916.82	14298
916.932	14187
917.044	14195
917.156	14237
917.268	14145
917.38	14031
917.491	14027
917.603	14096
917.715	14172
917.826	14237
917.938	14115
918.049	13890
918.161	14058
918.272	14157
918.384	14161
918.495	14058
918.606	13814
918.717	13856
918.828	13932
918.939	13784
919.05	13708
919.161	13772
919.272	13624
919.383	13700
919.494	13894
919.604	14145
919.715	13784
919.826	13666
919.936	13830
920.047	13879
920.157	13841
920.267	13997
920.378	13830
920.488	13780
920.598	13906
920.708	14153
920.818	13814
920.928	13947
921.038	14081
921.148	14142
921.258	13742
921.368	13628
921.477	13544
921.587	13476
921.697	13362
921.806	13586
921.916	13407
922.025	13320
922.134	13187
922.244	13107
922.353	13194
922.462	13065
922.571	13080
922.68	12798
922.789	12810
922.898	12798
923.007	12757
923.116	12871
923.224	12825
923.333	12837
923.442	12665
923.55	12639
923.659	12776
923.767	12734
923.876	12646
923.984	12642
924.092	12551
924.201	12578
924.309	12582
924.417	12540
924.525	12593
924.633	12483
924.741	13266
924.849	12399
924.956	12525
925.064	12342
925.172	12216
925.279	12167
925.387	12388
925.494	12182
925.602	12502
925.709	12361
925.816	12247
925.924	12254
926.031	12327
926.138	12247
926.245	12273
926.352	12095
926.459	12353
926.566	12285
926.673	12186
926.779	12064
926.886	12011
926.993	11912
927.099	11885
927.206	11805
927.312	11878
927.419	11897
927.525	11843
927.631	11912
927.737	11828
927.843	11695
927.95	11600
928.056	11646
928.162	11707
928.267	11794
928.373	12209
928.479	11786
928.585	11608
928.69	11737
928.796	11699
928.901	11611
929.007	11429
929.112	11649
929.218	11486
929.323	11535
929.428	11425
929.533	11505
929.638	11307
929.743	11395
929.848	11501
929.953	11417
930.058	11280
930.163	11178
930.267	11140
930.372	11193
930.477	11147
930.581	11269
930.685	11185
930.79	11067
930.894	11075
930.998	11075
931.103	11147
931.207	10801
931.311	10679
931.415	10649
931.519	10485
931.623	10500
