Data from test_V78500241_2640.txt Node
Date: Fri Mar 25 15:28:14 CST 2022
User: usil
Spectrometer: V785-0024
Trigger mode: 0
Integration Time (sec): 4.000000E-1
Scans to average: 1
Nonlinearity correction enabled: false
Boxcar width: 0
Storing dark spectrum: false
XAxis mode: Wavelengths
Number of Pixels in Spectrum: 1024
>>>>>Begin Spectral Data<<<<<
801.071	27207
801.214	27070
801.356	26902
801.499	26781
801.641	26739
801.783	26765
801.926	26693
802.068	26708
802.211	26830
802.353	26613
802.496	26484
802.638	26282
802.78	26263
802.923	26202
803.065	26362
803.208	26385
803.35	26320
803.492	26389
803.635	26651
803.777	26366
803.919	26644
804.061	26929
804.204	26629
804.346	26480
804.488	26446
804.63	26526
804.773	26393
804.915	26568
805.057	26682
805.199	26453
805.341	26564
805.483	26644
805.626	26750
805.768	26522
805.91	26651
806.052	26689
806.194	26575
806.336	26735
806.478	26644
806.62	26583
806.762	26750
806.904	26807
807.046	27138
807.188	27058
807.33	27047
807.472	27161
807.614	26933
807.756	27074
807.898	26910
808.04	26876
808.182	26800
808.324	26826
808.465	26883
808.607	27024
808.749	27195
808.891	27329
809.033	27412
809.174	27378
809.316	27176
809.458	27268
809.6	27127
809.741	27252
809.883	27275
810.025	27367
810.166	27401
810.308	27473
810.45	27450
810.591	27450
810.733	27199
810.875	27138
811.016	27226
811.158	27161
811.299	27359
811.441	27397
811.582	27485
811.724	27367
811.865	27131
812.007	27222
812.148	27131
812.29	27192
812.431	27222
812.573	27439
812.714	27595
812.855	27473
812.997	27724
813.138	27914
813.279	27838
813.421	27876
813.562	27717
813.703	27485
813.845	27359
813.986	27184
814.127	26998
814.268	26918
814.41	26910
814.551	26819
814.692	26864
814.833	26807
814.974	26819
815.115	26918
815.256	26716
815.397	26625
815.539	26765
815.68	26640
815.821	26686
815.962	26743
816.103	26606
816.244	26457
816.385	26385
816.526	26419
816.666	26377
816.807	26111
816.948	26351
817.089	26290
817.23	26218
817.371	26145
817.512	26172
817.653	26081
817.793	25902
817.934	26043
818.075	26126
818.216	26126
818.356	26001
818.497	26043
818.638	25795
818.778	25860
818.919	25803
819.06	25944
819.2	26126
819.341	26149
819.481	26065
819.622	26278
819.762	26339
819.903	26199
820.043	26290
820.184	26343
820.324	26199
820.465	26233
820.605	26347
820.746	26240
820.886	26020
821.026	26244
821.167	26214
821.307	26233
821.447	26187
821.588	26092
821.728	25951
821.868	25647
822.008	25548
822.149	25559
822.289	25544
822.429	25377
822.569	25297
822.709	25301
822.849	25091
822.99	25114
823.13	25179
823.27	24989
823.41	24992
823.55	25012
823.69	25012
823.83	24856
823.97	24859
824.11	24578
824.25	24779
824.389	24738
824.529	24875
824.669	24810
824.809	24875
824.949	24829
825.089	24833
825.228	24745
825.368	24642
825.508	24612
825.648	24498
825.787	24601
825.927	24768
826.067	24441
826.206	24566
826.346	24726
826.485	24696
826.625	24669
826.765	24760
826.904	24810
827.044	24422
827.183	24509
827.323	24323
827.462	24357
827.601	24365
827.741	24384
827.88	24308
828.02	24262
828.159	24296
828.298	24399
828.437	24422
828.577	24270
828.716	24380
828.855	24277
828.994	24091
829.134	24159
829.273	23988
829.412	23923
829.551	24106
829.69	24018
829.829	24041
829.968	24083
830.107	24091
830.246	24064
830.385	24076
830.524	24018
830.663	23851
830.802	23771
830.941	23745
831.08	23646
831.219	23726
831.357	23771
831.496	24030
831.635	23668
831.774	23573
831.913	23531
832.051	23528
832.19	23436
832.329	23440
832.467	23349
832.606	23216
832.744	23364
832.883	23436
833.022	23360
833.16	23330
833.299	23417
833.437	23436
833.576	23463
833.714	23345
833.852	23490
833.991	23406
834.129	23608
834.267	23493
834.406	23341
834.544	23467
834.682	23391
834.821	23425
834.959	23592
835.097	23436
835.235	23425
835.373	23398
835.511	23356
835.65	23193
835.788	23250
835.926	23235
836.064	23018
836.202	23193
836.34	23254
836.478	23425
836.615	23231
836.753	23299
836.891	23330
837.029	23368
837.167	23216
837.305	23216
837.443	23200
837.58	23083
837.718	23105
837.856	23102
837.993	23075
838.131	23212
838.269	23029
838.406	22881
838.544	23006
838.681	22778
838.819	22790
838.956	22584
839.094	22668
839.231	22588
839.369	22691
839.506	22892
839.643	22725
839.781	22641
839.918	22531
840.055	22607
840.193	22599
840.33	22531
840.467	22596
840.604	22653
840.742	22687
840.879	22443
841.016	22523
841.153	22443
841.29	22554
841.427	22447
841.564	22535
841.701	22531
841.838	22398
841.975	22421
842.112	22451
842.249	22440
842.385	22360
842.522	22607
842.659	22481
842.796	22276
842.933	22276
843.069	22215
843.206	22207
843.343	22341
843.479	22185
843.616	22272
843.752	22154
843.889	22059
844.025	22192
844.162	21907
844.298	22188
844.435	22040
844.571	22067
844.708	22059
844.844	22211
844.98	22242
845.117	22226
845.253	22067
845.389	21823
845.525	21880
845.661	22021
845.798	21770
845.934	21850
846.07	21713
846.206	21800
846.342	21895
846.478	21778
846.614	21675
846.75	21485
846.886	21564
847.022	21603
847.158	21583
847.294	21618
847.429	21610
847.565	21458
847.701	21751
847.837	21161
847.972	21302
848.108	21340
848.244	21195
848.379	21275
848.515	21230
848.65	21028
848.786	21058
848.921	21028
849.057	21207
849.192	21100
849.328	21142
849.463	21188
849.598	21127
849.734	20921
849.869	20956
850.004	20880
850.14	20868
850.275	20880
850.41	20853
850.545	20800
850.68	20921
850.815	20998
850.95	20952
851.085	21009
851.22	20998
851.355	20872
851.49	20902
851.625	20834
851.76	20838
851.895	20868
852.03	20872
852.165	20902
852.299	20982
852.434	20967
852.569	21017
852.703	20811
852.838	20887
852.973	21032
853.107	20994
853.242	20937
853.376	20697
853.511	20613
853.645	20606
853.78	20750
853.914	20758
854.048	20686
854.183	20781
854.317	20697
854.451	20910
854.585	20735
854.72	20625
854.854	20689
854.988	20617
855.122	20853
855.256	20674
855.39	20777
855.524	20712
855.658	20895
855.792	20804
855.926	20727
856.06	20724
856.194	20781
856.327	20678
856.461	20564
856.595	20682
856.729	20705
856.862	20838
856.996	20659
857.13	20891
857.263	20800
857.397	20743
857.53	20625
857.664	20743
857.797	20800
857.931	20804
858.064	20705
858.197	20765
858.331	20781
858.464	20655
858.597	20602
858.731	20648
858.864	20746
858.997	20674
859.13	20785
859.263	20678
859.396	20708
859.529	20625
859.662	20609
859.795	20655
859.928	20697
860.061	20781
860.194	20883
860.327	20842
860.46	20693
860.592	20811
860.725	20777
860.858	20762
860.99	20735
861.123	20701
861.256	20625
861.388	20686
861.521	21367
861.653	20602
861.786	20530
861.918	20564
862.05	20552
862.183	20606
862.315	20659
862.447	20621
862.58	20617
862.712	20438
862.844	20313
862.976	20526
863.108	20640
863.24	20868
863.372	20301
863.504	20408
863.636	20480
863.768	20473
863.9	20366
864.032	20385
864.164	20317
864.296	20461
864.428	20476
864.559	20514
864.691	20358
864.823	20404
864.954	20415
865.086	20518
865.217	20305
865.349	20271
865.48	20301
865.612	20434
865.743	20370
865.875	20298
866.006	20221
866.137	20305
866.269	20301
866.4	20263
866.531	20240
866.662	20237
866.793	20374
866.924	20275
867.055	20259
867.186	20157
867.317	20332
867.448	20202
867.579	20263
867.71	20259
867.841	20084
867.972	20343
868.103	20218
868.233	20244
868.364	20301
868.495	20385
868.625	20454
868.756	20499
868.886	20442
869.017	20427
869.147	20594
869.278	20602
869.408	20579
869.539	20495
869.669	20594
869.799	20511
869.929	20689
870.06	20640
870.19	20826
870.32	20758
870.45	20834
870.58	20887
870.71	21017
870.84	20967
870.97	20876
871.1	20937
871.23	20998
871.36	21093
871.489	20986
871.619	20975
871.749	21089
871.879	21043
872.008	21157
872.138	21184
872.267	21112
872.397	20948
872.526	20944
872.656	20891
872.785	20994
872.915	21058
873.044	21317
873.173	21104
873.303	21123
873.432	21127
873.561	21199
873.69	21169
873.819	21062
873.948	21127
874.077	21279
874.206	21150
874.335	21245
874.464	21279
874.593	21294
874.722	21283
874.851	21340
874.979	21458
875.108	21428
875.237	21207
875.365	21313
875.494	21218
875.623	21435
875.751	21382
875.88	21363
876.008	21595
876.136	21648
876.265	21656
876.393	21888
876.521	21880
876.65	21922
876.778	21865
876.906	21720
877.034	21682
877.162	21774
877.29	21572
877.418	21755
877.546	21652
877.674	21739
877.802	21690
877.93	21568
878.058	21728
878.185	21553
878.313	21587
878.441	21675
878.568	21561
878.696	21663
878.824	21747
878.951	21739
879.079	21854
879.206	21983
879.333	21842
879.461	21705
879.588	21732
879.715	21823
879.842	21998
879.97	21778
880.097	21526
880.224	21485
880.351	21557
880.478	21629
880.605	21428
880.732	21485
880.859	21793
880.986	21553
881.112	21606
881.239	21420
881.366	21363
881.493	21306
881.619	21093
881.746	21211
881.872	21093
881.999	21032
882.125	20994
882.252	21180
882.378	21096
882.505	21188
882.631	21009
882.757	20883
882.883	20872
883.01	20800
883.136	20667
883.262	20781
883.388	20667
883.514	20807
883.64	20762
883.766	20872
883.892	20659
884.018	20765
884.143	20701
884.269	20925
884.395	20651
884.52	20476
884.646	20461
884.772	20442
884.897	20415
885.023	20602
885.148	20537
885.274	20663
885.399	20564
885.524	20549
885.65	20438
885.775	20446
885.9	20355
886.025	20564
886.15	20602
886.275	20473
886.4	20377
886.525	20480
886.65	20343
886.775	20438
886.9	20446
887.025	20708
887.149	20499
887.274	20263
887.399	20351
887.523	20294
887.648	20092
887.773	20115
887.897	20317
888.021	20278
888.146	20138
888.27	20313
888.395	20389
888.519	20259
888.643	20221
888.767	20267
888.891	20267
889.015	20126
889.139	20088
889.263	20073
889.387	20168
889.511	20233
889.635	20161
889.759	20092
889.883	20050
890.006	20016
890.13	20142
890.254	19955
890.377	20027
890.501	19875
890.624	19765
890.748	19811
890.871	19738
890.995	19635
891.118	19578
891.241	19624
891.364	19666
891.488	19860
891.611	19647
891.734	19605
891.857	19784
891.98	19734
892.103	19681
892.226	19575
892.349	19613
892.471	19445
892.594	19567
892.717	19502
892.839	19556
892.962	19521
893.085	19571
893.207	19597
893.33	19495
893.452	19525
893.575	19662
893.697	19499
893.819	19731
893.941	19765
894.064	19578
894.186	19567
894.308	19460
894.43	19647
894.552	19616
894.674	19609
894.796	19476
894.918	19529
895.04	19514
895.161	19537
895.283	19655
895.405	19540
895.526	19594
895.648	19506
895.769	19537
895.891	19605
896.012	19723
896.134	19601
896.255	19445
896.376	19578
896.498	19590
896.619	19548
896.74	19457
896.861	19525
896.982	19913
897.103	20031
897.224	19753
897.345	19776
897.466	19791
897.587	19757
897.708	19883
897.828	19830
897.949	19784
898.07	19639
898.19	19590
898.311	19731
898.431	19761
898.552	19712
898.672	19860
898.792	19849
898.913	19734
899.033	19719
899.153	19594
899.273	19472
899.393	19540
899.513	19533
899.633	19575
899.753	19559
899.873	19476
899.993	19571
900.113	19441
900.232	19537
900.352	19518
900.472	19415
900.591	19304
900.711	19331
900.83	19259
900.95	19430
901.069	19445
901.189	19190
901.308	19038
901.427	18814
901.546	18875
901.665	18913
901.784	18935
901.904	18741
902.023	18684
902.141	18483
902.26	18536
902.379	18551
902.498	18464
902.617	18369
902.735	18403
902.854	18467
902.973	18300
903.091	18091
903.21	18152
903.328	18095
903.446	17980
903.565	17870
903.683	17973
903.801	17821
903.919	17813
904.038	17912
904.156	17657
904.274	17870
904.392	17752
904.51	17691
904.627	17764
904.745	17630
904.863	17764
904.981	17474
905.098	17417
905.216	17360
905.334	17505
905.451	17417
905.569	17429
905.686	17330
905.803	17254
905.921	17151
906.038	17220
906.155	17212
906.272	17083
906.389	17075
906.506	16976
906.623	16892
906.74	16862
906.857	16866
906.974	16771
907.091	16972
907.208	16927
907.324	17010
907.441	16896
907.557	16763
907.674	16683
907.79	16485
907.907	16554
908.023	16630
908.139	16531
908.256	16542
908.372	16474
908.488	16538
908.604	16417
908.72	16375
908.836	16333
908.952	16291
909.068	16470
909.184	16379
909.3	16363
909.415	16390
909.531	16352
909.647	16124
909.762	16032
909.878	16040
909.993	16032
910.108	15991
910.224	16063
910.339	16025
910.454	15911
910.57	15903
910.685	15793
910.8	16131
910.915	16017
911.03	15755
911.145	15736
911.259	15526
911.374	15637
911.489	15599
911.604	15515
911.718	15428
911.833	15488
911.947	15386
912.062	15256
912.176	15580
912.291	15469
912.405	15412
912.519	15629
912.633	15679
912.748	15378
912.862	15412
912.976	15195
913.09	15150
913.204	15195
913.318	15260
913.431	15287
913.545	15298
913.659	15424
913.772	15116
913.886	15104
914	15058
914.113	15165
914.226	15256
914.34	15112
914.453	14902
914.566	15043
914.68	14887
914.793	14864
914.906	14750
915.019	14625
915.132	14621
915.245	14625
915.358	14670
915.47	14674
915.583	14617
915.696	14712
915.809	14830
915.921	14731
916.034	14571
916.146	14644
916.259	14507
916.371	14640
916.483	14560
916.595	14446
916.708	14533
916.82	14511
916.932	14488
917.044	14469
917.156	14469
917.268	14290
917.38	14362
917.491	14221
917.603	14339
917.715	14377
917.826	14374
917.938	14282
918.049	14259
918.161	14374
918.272	14465
918.384	14400
918.495	14317
918.606	14077
918.717	14084
918.828	14134
918.939	14187
919.05	14054
919.161	14111
919.272	13841
919.383	13928
919.494	14161
919.604	14263
919.715	14027
919.826	14054
919.936	13978
920.047	14065
920.157	14077
920.267	14244
920.378	14016
920.488	14050
920.598	14191
920.708	14400
920.818	14233
920.928	14214
921.038	14450
921.148	14286
921.258	14016
921.368	14008
921.477	13742
921.587	13837
921.697	13715
921.806	13845
921.916	13655
922.025	13506
922.134	13457
922.244	13369
922.353	13502
922.462	13396
922.571	13225
922.68	13202
922.789	13137
922.898	13095
923.007	13103
923.116	13107
923.224	13099
923.333	13171
923.442	13027
923.55	12962
923.659	12981
923.767	12970
923.876	12817
923.984	12871
924.092	12913
924.201	12958
924.309	12791
924.417	12901
924.525	12810
924.633	12890
924.741	13761
924.849	12570
924.956	12582
925.064	12547
925.172	12509
925.279	12490
925.387	12593
925.494	12521
925.602	12681
925.709	12646
925.816	12456
925.924	12452
926.031	12540
926.138	12456
926.245	12532
926.352	12433
926.459	12513
926.566	12540
926.673	12445
926.779	12323
926.886	12304
926.993	12228
927.099	12159
927.206	12076
927.312	12136
927.419	12171
927.525	12117
927.631	12152
927.737	11992
927.843	11965
927.95	11908
928.056	11950
928.162	11969
928.267	12049
928.373	12536
928.479	12072
928.585	11824
928.69	12030
928.796	11996
928.901	11798
929.007	11710
929.112	11847
929.218	11767
929.323	11718
929.428	11802
929.533	11824
929.638	11627
929.743	11611
929.848	11688
929.953	11638
930.058	11554
930.163	11356
930.267	11391
930.372	11554
930.477	11433
930.581	11596
930.685	11482
930.79	11242
930.894	11296
930.998	11231
931.103	11398
931.207	11128
931.311	11037
931.415	10953
931.519	10740
931.623	10710
