Data from test_V78500241_2768.txt Node
Date: Fri Mar 25 15:29:08 CST 2022
User: usil
Spectrometer: V785-0024
Trigger mode: 0
Integration Time (sec): 4.000000E-1
Scans to average: 1
Nonlinearity correction enabled: false
Boxcar width: 0
Storing dark spectrum: false
XAxis mode: Wavelengths
Number of Pixels in Spectrum: 1024
>>>>>Begin Spectral Data<<<<<
801.071	27218
801.214	26994
801.356	26944
801.499	26830
801.641	26693
801.783	26579
801.926	26781
802.068	26667
802.211	26587
802.353	26530
802.496	26191
802.638	26237
802.78	26180
802.923	26218
803.065	26149
803.208	25974
803.35	26202
803.492	26328
803.635	26358
803.777	26453
803.919	26415
804.061	26663
804.204	26427
804.346	26374
804.488	26202
804.63	26495
804.773	26332
804.915	26267
805.057	26385
805.199	26366
805.341	26575
805.483	26629
805.626	26453
805.768	26446
805.91	26655
806.052	26507
806.194	26552
806.336	26594
806.478	26480
806.62	26415
806.762	26636
806.904	26823
807.046	27028
807.188	26956
807.33	26910
807.472	26994
807.614	26720
807.756	26853
807.898	26815
808.04	26613
808.182	26746
808.324	26842
808.465	26823
808.607	26929
808.749	27005
808.891	27089
809.033	27279
809.174	27096
809.316	27009
809.458	27169
809.6	27112
809.741	27173
809.883	27173
810.025	27340
810.166	27374
810.308	27344
810.45	27325
810.591	27332
810.733	27230
810.875	27089
811.016	26998
811.158	26948
811.299	27249
811.441	27313
811.582	27325
811.724	27024
811.865	27161
812.007	26986
812.148	27146
812.29	27218
812.431	27256
812.573	27393
812.714	27389
812.855	27633
812.997	27477
813.138	27793
813.279	27705
813.421	27580
813.562	27496
813.703	27344
813.845	27233
813.986	26971
814.127	26857
814.268	26712
814.41	26765
814.551	26720
814.692	26800
814.833	26575
814.974	26758
815.115	26686
815.256	26632
815.397	26583
815.539	26648
815.68	26518
815.821	26503
815.962	26533
816.103	26374
816.244	26442
816.385	26202
816.526	26320
816.666	26122
816.807	25951
816.948	26069
817.089	26024
817.23	26062
817.371	26012
817.512	25963
817.653	25860
817.793	26027
817.934	25879
818.075	26008
818.216	26100
818.356	26001
818.497	25868
818.638	25582
818.778	25613
818.919	25693
819.06	25780
819.2	25852
819.341	25799
819.481	25959
819.622	25997
819.762	26286
819.903	26168
820.043	26111
820.184	26107
820.324	26176
820.465	26111
820.605	26111
820.746	25887
820.886	25864
821.026	26073
821.167	26012
821.307	25986
821.447	26012
821.588	25921
821.728	25894
821.868	25453
822.008	25453
822.149	25594
822.289	25472
822.429	25126
822.569	25000
822.709	25072
822.849	25069
822.99	24985
823.13	24837
823.27	24711
823.41	24783
823.55	24631
823.69	24711
823.83	24711
823.97	24677
824.11	24452
824.25	24532
824.389	24639
824.529	24639
824.669	24616
824.809	24745
824.949	24574
825.089	24665
825.228	24589
825.368	24502
825.508	24490
825.648	24566
825.787	24566
825.927	24585
826.067	24559
826.206	24456
826.346	24593
826.485	24475
826.625	24426
826.765	24490
826.904	24456
827.044	24323
827.183	24247
827.323	23977
827.462	24072
827.601	24095
827.741	24129
827.88	24121
828.02	24022
828.159	24049
828.298	24079
828.437	24171
828.577	24091
828.716	24232
828.855	24098
828.994	23817
829.134	23809
829.273	23931
829.412	23752
829.551	23767
829.69	23874
829.829	23893
829.968	23901
830.107	24038
830.246	23790
830.385	23828
830.524	23718
830.663	23741
830.802	23581
830.941	23528
831.08	23398
831.219	23436
831.357	23547
831.496	23703
831.635	23539
831.774	23478
831.913	23421
832.051	23220
832.19	23220
832.329	23258
832.467	23098
832.606	23083
832.744	23056
832.883	23094
833.022	23052
833.16	23079
833.299	23121
833.437	23105
833.576	23189
833.714	23235
833.852	23121
833.991	23265
834.129	23307
834.267	23250
834.406	23250
834.544	23181
834.682	23250
834.821	23197
834.959	23337
835.097	23124
835.235	23132
835.373	23075
835.511	23086
835.65	23094
835.788	23121
835.926	22869
836.064	22790
836.202	22797
836.34	23109
836.478	23166
836.615	23075
836.753	23052
836.891	22942
837.029	22991
837.167	22919
837.305	23010
837.443	22965
837.58	22904
837.718	22991
837.856	22843
837.993	22820
838.131	22915
838.269	22740
838.406	22831
838.544	22691
838.681	22462
838.819	22470
838.956	22466
839.094	22390
839.231	22348
839.369	22443
839.506	22691
839.643	22615
839.781	22443
839.918	22325
840.055	22306
840.193	22238
840.33	22242
840.467	22249
840.604	22360
840.742	22561
840.879	22139
841.016	22284
841.153	22116
841.29	22265
841.427	22325
841.564	22166
841.701	22188
841.838	22128
841.975	22223
842.112	22192
842.249	22025
842.385	22181
842.522	22215
842.659	22105
842.796	22036
842.933	22120
843.069	21892
843.206	22048
843.343	22200
843.479	22070
843.616	21998
843.752	21850
843.889	21895
844.025	21823
844.162	21808
844.298	21842
844.435	21781
844.571	21800
844.708	21850
844.844	21960
844.98	22006
845.117	21934
845.253	21831
845.389	21690
845.525	21800
845.661	21781
845.798	21492
845.934	21671
846.07	21675
846.206	21644
846.342	21660
846.478	21549
846.614	21431
846.75	21264
846.886	21268
847.022	21310
847.158	21313
847.294	21359
847.429	21344
847.565	21283
847.701	21618
847.837	21024
847.972	21039
848.108	21066
848.244	21039
848.379	20826
848.515	20937
848.65	20823
848.786	20819
848.921	20895
849.057	21062
849.192	21028
849.328	20872
849.463	20838
849.598	20868
849.734	20853
849.869	20727
850.004	20670
850.14	20705
850.275	20560
850.41	20545
850.545	20533
850.68	20636
850.815	20693
850.95	20678
851.085	20811
851.22	20739
851.355	20716
851.49	20617
851.625	20705
851.76	20716
851.895	20659
852.03	20564
852.165	20609
852.299	20705
852.434	20678
852.569	20674
852.703	20541
852.838	20815
852.973	20849
853.107	20727
853.242	20655
853.376	20549
853.511	20343
853.645	20454
853.78	20518
853.914	20537
854.048	20377
854.183	20415
854.317	20526
854.451	20648
854.585	20484
854.72	20533
854.854	20609
854.988	20385
855.122	20480
855.256	20400
855.39	20385
855.524	20499
855.658	20457
855.792	20427
855.926	20537
856.06	20446
856.194	20579
856.327	20518
856.461	20514
856.595	20362
856.729	20522
856.862	20678
856.996	20556
857.13	20556
857.263	20632
857.397	20667
857.53	20549
857.664	20465
857.797	20480
857.931	20541
858.064	20488
858.197	20499
858.331	20423
858.464	20419
858.597	20362
858.731	20549
858.864	20499
858.997	20389
859.13	20393
859.263	20507
859.396	20526
859.529	20518
859.662	20571
859.795	20492
859.928	20537
860.061	20609
860.194	20697
860.327	20533
860.46	20552
860.592	20587
860.725	20651
860.858	20556
860.99	20522
861.123	20415
861.256	20503
861.388	20480
861.521	21036
861.653	20358
861.786	20290
861.918	20294
862.05	20324
862.183	20431
862.315	20632
862.447	20503
862.58	20381
862.712	20149
862.844	20092
862.976	20210
863.108	20149
863.24	20758
863.372	20077
863.504	20183
863.636	20263
863.768	20263
863.9	20206
864.032	20103
864.164	20119
864.296	20271
864.428	20233
864.559	20233
864.691	20393
864.823	20176
864.954	20267
865.086	20157
865.217	20164
865.349	20012
865.48	20092
865.612	20142
865.743	20202
865.875	20157
866.006	20191
866.137	20145
866.269	20149
866.4	20005
866.531	20031
866.662	20016
866.793	20081
866.924	20024
867.055	20020
867.186	20142
867.317	19982
867.448	19921
867.579	19997
867.71	19845
867.841	19940
867.972	20050
868.103	20096
868.233	20130
868.364	20001
868.495	20130
868.625	20286
868.756	20423
868.886	20305
869.017	20324
869.147	20358
869.278	20324
869.408	20351
869.539	20320
869.669	20336
869.799	20374
869.929	20457
870.06	20457
870.19	20522
870.32	20499
870.45	20716
870.58	20720
870.71	20708
870.84	20921
870.97	20762
871.1	20769
871.23	20944
871.36	20857
871.489	20807
871.619	20872
871.749	20956
871.879	20845
872.008	21028
872.138	20857
872.267	20960
872.397	20712
872.526	20670
872.656	20750
872.785	20754
872.915	20967
873.044	20910
873.173	20910
873.303	20948
873.432	21074
873.561	20902
873.69	20899
873.819	20918
873.948	21081
874.077	20971
874.206	20819
874.335	20906
874.464	21062
874.593	21096
874.722	20994
874.851	21264
874.979	21157
875.108	21112
875.237	21131
875.365	21089
875.494	21165
875.623	21192
875.751	21062
875.88	21195
876.008	21222
876.136	21317
876.265	21595
876.393	21728
876.521	21576
876.65	21583
876.778	21561
876.906	21439
877.034	21466
877.162	21564
877.29	21450
877.418	21663
877.546	21462
877.674	21576
877.802	21641
877.93	21591
878.058	21473
878.185	21378
878.313	21496
878.441	21603
878.568	21298
878.696	21389
878.824	21591
878.951	21622
879.079	21755
879.206	21751
879.333	21644
879.461	21542
879.588	21656
879.715	21751
879.842	21724
879.97	21587
880.097	21287
880.224	21241
880.351	21481
880.478	21264
880.605	21294
880.732	21473
880.859	21667
880.986	21428
881.112	21222
881.239	21233
881.366	21017
881.493	20982
881.619	20937
881.746	20979
881.872	20918
881.999	21005
882.125	20815
882.252	21039
882.378	21058
882.505	20971
882.631	20777
882.757	20659
882.883	20811
883.01	20697
883.136	20644
883.262	20442
883.388	20484
883.514	20602
883.64	20697
883.766	20461
883.892	20427
884.018	20362
884.143	20655
884.269	20705
884.395	20301
884.52	20362
884.646	20278
884.772	20313
884.897	20229
885.023	20237
885.148	20415
885.274	20343
885.399	20351
885.524	20366
885.65	20339
885.775	20355
885.9	20153
886.025	20358
886.15	20248
886.275	20168
886.4	20126
886.525	20195
886.65	20130
886.775	20157
886.9	20332
887.025	20507
887.149	20282
887.274	20107
887.399	20092
887.523	20092
887.648	19947
887.773	19917
887.897	20043
888.021	20096
888.146	20012
888.27	20115
888.395	20210
888.519	20103
888.643	20054
888.767	20069
888.891	20065
889.015	19803
889.139	20035
889.263	19845
889.387	20035
889.511	20008
889.635	20050
889.759	19795
889.883	19837
890.006	19830
890.13	20016
890.254	19890
890.377	19780
890.501	19651
890.624	19571
890.748	19639
890.871	19533
890.995	19529
891.118	19434
891.241	19358
891.364	19567
891.488	19556
891.611	19327
891.734	19457
891.857	19445
891.98	19487
892.103	19495
892.226	19472
892.349	19365
892.471	19213
892.594	19339
892.717	19392
892.839	19362
892.962	19396
893.085	19381
893.207	19373
893.33	19213
893.452	19221
893.575	19449
893.697	19354
893.819	19544
893.941	19514
894.064	19377
894.186	19263
894.308	19335
894.43	19445
894.552	19438
894.674	19362
894.796	19198
894.918	19438
895.04	19285
895.161	19495
895.283	19411
895.405	19407
895.526	19430
895.648	19407
895.769	19320
895.891	19476
896.012	19483
896.134	19468
896.255	19346
896.376	19327
896.498	19392
896.619	19464
896.74	19365
896.861	19510
896.982	19639
897.103	19864
897.224	19666
897.345	19552
897.466	19548
897.587	19601
897.708	19647
897.828	19613
897.949	19487
898.07	19445
898.19	19563
898.311	19655
898.431	19518
898.552	19563
898.672	19643
898.792	19677
898.913	19605
899.033	19575
899.153	19514
899.273	19278
899.393	19373
899.513	19453
899.633	19449
899.753	19270
899.873	19335
899.993	19556
900.113	19289
900.232	19377
900.352	19293
900.472	19145
900.591	19137
900.711	19175
900.83	18977
900.95	19293
901.069	19225
901.189	19057
901.308	18928
901.427	18703
901.546	18848
901.665	18753
901.784	18738
901.904	18616
902.023	18540
902.141	18334
902.26	18357
902.379	18289
902.498	18209
902.617	18224
902.735	18330
902.854	18197
902.973	18159
903.091	17927
903.21	17893
903.328	18019
903.446	17817
903.565	17855
903.683	17859
903.801	17585
903.919	17710
904.038	17824
904.156	17573
904.274	17642
904.392	17410
904.51	17604
904.627	17562
904.745	17577
904.863	17611
904.981	17322
905.098	17079
905.216	17212
905.334	17322
905.451	17200
905.569	17090
905.686	17223
905.803	17174
905.921	17022
906.038	17181
906.155	17006
906.272	16885
906.389	16900
906.506	16797
906.623	16881
906.74	16679
906.857	16596
906.974	16740
907.091	16717
907.208	16854
907.324	16771
907.441	16645
907.557	16516
907.674	16436
907.79	16455
907.907	16398
908.023	16459
908.139	16577
908.256	16443
908.372	16440
908.488	16413
908.604	16303
908.72	16230
908.836	16086
908.952	16150
909.068	16192
909.184	16421
909.3	16204
909.415	16147
909.531	16158
909.647	15960
909.762	15884
909.878	15922
909.993	15873
910.108	15934
910.224	15819
910.339	15793
910.454	15827
910.57	15793
910.685	15698
910.8	15918
910.915	15869
911.03	15739
911.145	15557
911.259	15572
911.374	15534
911.489	15500
911.604	15439
911.718	15218
911.833	15370
911.947	15306
912.062	15112
912.176	15317
912.291	15317
912.405	15264
912.519	15511
912.633	15492
912.748	15348
912.862	15279
912.976	15085
913.09	14967
913.204	15100
913.318	15116
913.431	15264
913.545	15176
913.659	15138
913.772	15169
913.886	14918
914	14876
914.113	14975
914.226	14982
914.34	14986
914.453	14697
914.566	14929
914.68	14815
914.793	14804
914.906	14617
915.019	14594
915.132	14560
915.245	14526
915.358	14629
915.47	14488
915.583	14549
915.696	14545
915.809	14571
915.921	14659
916.034	14564
916.146	14492
916.259	14389
916.371	14640
916.483	14461
916.595	14328
916.708	14377
916.82	14419
916.932	14377
917.044	14404
917.156	14355
917.268	14214
917.38	14126
917.491	14214
917.603	14244
917.715	14263
917.826	14377
917.938	14168
918.049	13974
918.161	14115
918.272	14278
918.384	14298
918.495	14180
918.606	14035
918.717	13932
918.828	13947
918.939	14008
919.05	13875
919.161	14054
919.272	13750
919.383	13887
919.494	14005
919.604	14214
919.715	13955
919.826	13951
919.936	13989
920.047	13997
920.157	13940
920.267	14081
920.378	13940
920.488	13936
920.598	14088
920.708	14202
920.818	14031
920.928	14054
921.038	14275
921.148	14214
921.258	14020
921.368	13776
921.477	13696
921.587	13708
921.697	13609
921.806	13715
921.916	13662
922.025	13316
922.134	13350
922.244	13327
922.353	13438
922.462	13247
922.571	13225
922.68	13088
922.789	13076
922.898	13110
923.007	12981
923.116	13050
923.224	13042
923.333	12981
923.442	12901
923.55	12962
923.659	12833
923.767	12878
923.876	12764
923.984	12814
924.092	12802
924.201	12722
924.309	12779
924.417	12707
924.525	12738
924.633	12642
924.741	13548
924.849	12509
924.956	12593
925.064	12506
925.172	12285
925.279	12437
925.387	12486
925.494	12486
925.602	12589
925.709	12391
925.816	12327
925.924	12448
926.031	12513
926.138	12429
926.245	12414
926.352	12330
926.459	12380
926.566	12547
926.673	12304
926.779	12228
926.886	12178
926.993	12148
927.099	12038
927.206	11980
927.312	11984
927.419	12053
927.525	12003
927.631	11969
927.737	11813
927.843	11935
927.95	11821
928.056	11866
928.162	11870
928.267	11946
928.373	12536
928.479	11950
928.585	11653
928.69	11828
928.796	11771
928.901	11657
929.007	11570
929.112	11756
929.218	11726
929.323	11551
929.428	11535
929.533	11688
929.638	11478
929.743	11493
929.848	11505
929.953	11623
930.058	11455
930.163	11273
930.267	11288
930.372	11414
930.477	11261
930.581	11505
930.685	11334
930.79	11227
930.894	11197
930.998	11178
931.103	11242
931.207	11041
931.311	10919
931.415	10812
931.519	10675
931.623	10596
