Data from test_V78500241_2282.txt Node
Date: Fri Mar 25 15:25:44 CST 2022
User: usil
Spectrometer: V785-0024
Trigger mode: 0
Integration Time (sec): 4.000000E-1
Scans to average: 1
Nonlinearity correction enabled: false
Boxcar width: 0
Storing dark spectrum: false
XAxis mode: Wavelengths
Number of Pixels in Spectrum: 1024
>>>>>Begin Spectral Data<<<<<
801.071	27557
801.214	27618
801.356	27420
801.499	27302
801.641	27313
801.783	27218
801.926	27245
802.068	27218
802.211	27207
802.353	27222
802.496	27020
802.638	26986
802.78	26842
802.923	26792
803.065	26830
803.208	26857
803.35	26937
803.492	27005
803.635	27119
803.777	27074
803.919	27047
804.061	27378
804.204	27123
804.346	26956
804.488	27089
804.63	27020
804.773	27024
804.915	26975
805.057	27154
805.199	27089
805.341	27043
805.483	27306
805.626	27279
805.768	26990
805.91	27116
806.052	27146
806.194	27093
806.336	27283
806.478	27169
806.62	27249
806.762	27393
806.904	27443
807.046	27675
807.188	27690
807.33	27705
807.472	27603
807.614	27549
807.756	27660
807.898	27488
808.04	27526
808.182	27443
808.324	27595
808.465	27557
808.607	27861
808.749	27861
808.891	27869
809.033	28025
809.174	28147
809.316	27732
809.458	27842
809.6	27747
809.741	28070
809.883	27941
810.025	28135
810.166	27949
810.308	27941
810.45	27972
810.591	27972
810.733	27895
810.875	27778
811.016	27690
811.158	27583
811.299	27709
811.441	27865
811.582	27926
811.724	27766
811.865	27808
812.007	27766
812.148	27892
812.29	27781
812.431	27979
812.573	28188
812.714	28166
812.855	28306
812.997	28478
813.138	28542
813.279	28462
813.421	28367
813.562	28265
813.703	28116
813.845	27953
813.986	27797
814.127	27641
814.268	27580
814.41	27595
814.551	27435
814.692	27568
814.833	27496
814.974	27549
815.115	27420
815.256	27256
815.397	27454
815.539	27332
815.68	27249
815.821	27116
815.962	27252
816.103	27245
816.244	27207
816.385	26982
816.526	27081
816.666	26872
816.807	26731
816.948	26819
817.089	26834
817.23	26769
817.371	26857
817.512	26727
817.653	26670
817.793	26613
817.934	26758
818.075	26838
818.216	26788
818.356	26720
818.497	26594
818.638	26511
818.778	26476
818.919	26351
819.06	26571
819.2	26644
819.341	26868
819.481	26739
819.622	26876
819.762	27146
819.903	26937
820.043	26986
820.184	26819
820.324	26804
820.465	26963
820.605	26940
820.746	26823
820.886	26640
821.026	26834
821.167	26861
821.307	26994
821.447	26838
821.588	26640
821.728	26590
821.868	26427
822.008	26404
822.149	26237
822.289	26229
822.429	25932
822.569	25932
822.709	26008
822.849	25734
822.99	25674
823.13	25655
823.27	25685
823.41	25647
823.55	25548
823.69	25658
823.83	25510
823.97	25491
824.11	25358
824.25	25285
824.389	25289
824.529	25479
824.669	25392
824.809	25514
824.949	25441
825.089	25521
825.228	25384
825.368	25183
825.508	25232
825.648	25301
825.787	25289
825.927	25365
826.067	25179
826.206	25285
826.346	25343
826.485	25266
826.625	25240
826.765	25259
826.904	25206
827.044	24913
827.183	24966
827.323	25015
827.462	24996
827.601	24951
827.741	24897
827.88	25031
828.02	24783
828.159	25046
828.298	24970
828.437	25038
828.577	24772
828.716	25053
828.855	24970
828.994	24635
829.134	24669
829.273	24715
829.412	24490
829.551	24536
829.69	24627
829.829	24631
829.968	24802
830.107	24719
830.246	24604
830.385	24669
830.524	24467
830.663	24429
830.802	24361
830.941	24213
831.08	24251
831.219	24273
831.357	24319
831.496	24456
831.635	24201
831.774	24209
831.913	24015
832.051	24038
832.19	24011
832.329	24022
832.467	23904
832.606	23908
832.744	23805
832.883	24030
833.022	23847
833.16	23931
833.299	23988
833.437	23942
833.576	23946
833.714	24034
833.852	24053
833.991	24045
834.129	24102
834.267	24197
834.406	23965
834.544	24026
834.682	23992
834.821	23980
834.959	24136
835.097	23878
835.235	24030
835.373	23950
835.511	24015
835.65	23866
835.788	23832
835.926	23790
836.064	23592
836.202	23630
836.34	23767
836.478	23874
836.615	23840
836.753	23764
836.891	23927
837.029	23771
837.167	23771
837.305	23817
837.443	23722
837.58	23611
837.718	23695
837.856	23627
837.993	23661
838.131	23630
838.269	23577
838.406	23429
838.544	23379
838.681	23364
838.819	23368
838.956	23261
839.094	23151
839.231	23174
839.369	23395
839.506	23478
839.643	23353
839.781	23048
839.918	23094
840.055	23208
840.193	23094
840.33	22999
840.467	23086
840.604	23098
840.742	23216
840.879	22877
841.016	22908
841.153	22984
841.29	23003
841.427	22995
841.564	23128
841.701	22877
841.838	23044
841.975	22961
842.112	22991
842.249	22915
842.385	22835
842.522	23117
842.659	22881
842.796	22774
842.933	22790
843.069	22713
843.206	22786
843.343	22900
843.479	22653
843.616	22839
843.752	22634
843.889	22687
844.025	22721
844.162	22592
844.298	22649
844.435	22622
844.571	22542
844.708	22592
844.844	22774
844.98	22679
845.117	22717
845.253	22436
845.389	22516
845.525	22447
845.661	22466
845.798	22341
845.934	22402
846.07	22230
846.206	22314
846.342	22363
846.478	22329
846.614	22097
846.75	21899
846.886	21994
847.022	22150
847.158	22166
847.294	22010
847.429	22120
847.565	21998
847.701	22322
847.837	21728
847.972	21770
848.108	21899
848.244	21816
848.379	21751
848.515	21511
848.65	21759
848.786	21660
848.921	21679
849.057	21583
849.192	21812
849.328	21679
849.463	21625
849.598	21595
849.734	21545
849.869	21420
850.004	21412
850.14	21424
850.275	21454
850.41	21351
850.545	21363
850.68	21397
850.815	21405
850.95	21462
851.085	21515
851.22	21450
851.355	21397
851.49	21359
851.625	21382
851.76	21317
851.895	21378
852.03	21260
852.165	21355
852.299	21454
852.434	21519
852.569	21504
852.703	21351
852.838	21370
852.973	21526
853.107	21572
853.242	21313
853.376	21363
853.511	21127
853.645	21169
853.78	21302
853.914	21264
854.048	21135
854.183	21199
854.317	21245
854.451	21393
854.585	21161
854.72	21135
854.854	21249
854.988	21173
855.122	21226
855.256	21119
855.39	21176
855.524	21374
855.658	21226
855.792	21260
855.926	21256
856.06	21176
856.194	21310
856.327	21157
856.461	21001
856.595	21093
856.729	21279
856.862	21386
856.996	21195
857.13	21287
857.263	21397
857.397	21275
857.53	21173
857.664	21192
857.797	21325
857.931	21241
858.064	21199
858.197	21245
858.331	21127
858.464	21180
858.597	21127
858.731	21157
858.864	21157
858.997	21173
859.13	21260
859.263	21321
859.396	21298
859.529	21161
859.662	21093
859.795	21165
859.928	21180
860.061	21313
860.194	21412
860.327	21252
860.46	21142
860.592	21386
860.725	21237
860.858	21211
860.99	21272
861.123	21058
861.256	21123
861.388	21138
861.521	21975
861.653	21165
861.786	21001
861.918	21032
862.05	21138
862.183	21123
862.315	21116
862.447	21237
862.58	21275
862.712	20941
862.844	20876
862.976	21024
863.108	20925
863.24	21367
863.372	20929
863.504	20815
863.636	20895
863.768	20914
863.9	20849
864.032	20880
864.164	20845
864.296	20937
864.428	20960
864.559	21013
864.691	20826
864.823	20906
864.954	20902
865.086	20872
865.217	20880
865.349	20811
865.48	20807
865.612	20826
865.743	20944
865.875	20842
866.006	20758
866.137	20800
866.269	20914
866.4	20868
866.531	20750
866.662	20682
866.793	20731
866.924	20849
867.055	20796
867.186	20823
867.317	20720
867.448	20644
867.579	20762
867.71	20739
867.841	20602
867.972	20891
868.103	20648
868.233	20788
868.364	20708
868.495	20948
868.625	21013
868.756	21100
868.886	20990
869.017	20876
869.147	21070
869.278	21047
869.408	20944
869.539	20948
869.669	21089
869.799	21119
869.929	21154
870.06	21203
870.19	21351
870.32	21310
870.45	21367
870.58	21439
870.71	21382
870.84	21530
870.97	21355
871.1	21412
871.23	21553
871.36	21667
871.489	21367
871.619	21523
871.749	21663
871.879	21671
872.008	21736
872.138	21553
872.267	21648
872.397	21504
872.526	21340
872.656	21363
872.785	21329
872.915	21530
873.044	21713
873.173	21591
873.303	21660
873.432	21694
873.561	21808
873.69	21580
873.819	21618
873.948	21660
874.077	21656
874.206	21507
874.335	21606
874.464	21698
874.593	21934
874.722	21739
874.851	21800
874.979	21838
875.108	21861
875.237	21698
875.365	21835
875.494	21690
875.623	21861
875.751	21762
875.88	21930
876.008	21888
876.136	22097
876.265	22196
876.393	22402
876.521	22268
876.65	22371
876.778	22253
876.906	22124
877.034	22109
877.162	22135
877.29	22048
877.418	22135
877.546	22158
877.674	22090
877.802	22204
877.93	22173
878.058	22139
878.185	22055
878.313	22097
878.441	22196
878.568	22029
878.696	22097
878.824	22090
878.951	22295
879.079	22303
879.206	22421
879.333	22386
879.461	22158
879.588	22276
879.715	22226
879.842	22455
879.97	22093
880.097	22036
880.224	21895
880.351	22032
880.478	22040
880.605	22063
880.732	22013
880.859	22238
880.986	22055
881.112	21998
881.239	21918
881.366	21709
881.493	21679
881.619	21599
881.746	21534
881.872	21576
881.999	21580
882.125	21564
882.252	21564
882.378	21542
882.505	21641
882.631	21412
882.757	21264
882.883	21359
883.01	21306
883.136	21264
883.262	21093
883.388	21199
883.514	21195
883.64	21283
883.766	21100
883.892	21032
884.018	21089
884.143	21306
884.269	21230
884.395	21039
884.52	20868
884.646	21039
884.772	20868
884.897	20876
885.023	20807
885.148	21089
885.274	21043
885.399	21062
885.524	21005
885.65	21062
885.775	21024
885.9	20849
886.025	21070
886.15	21070
886.275	20819
886.4	20918
886.525	20906
886.65	20777
886.775	20849
886.9	20941
887.025	20975
887.149	21081
887.274	20731
887.399	20644
887.523	20678
887.648	20697
887.773	20602
887.897	20708
888.021	20632
888.146	20640
888.27	20750
888.395	20788
888.519	20659
888.643	20819
888.767	20697
888.891	20579
889.015	20499
889.139	20484
889.263	20469
889.387	20594
889.511	20777
889.635	20629
889.759	20476
889.883	20431
890.006	20648
890.13	20568
890.254	20374
890.377	20370
890.501	20282
890.624	20210
890.748	20366
890.871	20100
890.995	20008
891.118	20027
891.241	20046
891.364	20153
891.488	20187
891.611	20024
891.734	20172
891.857	20210
891.98	20008
892.103	20100
892.226	20161
892.349	20054
892.471	19841
892.594	19959
892.717	19993
892.839	19970
892.962	20035
893.085	19909
893.207	19925
893.33	19803
893.452	19822
893.575	19913
893.697	19974
893.819	20024
893.941	20168
894.064	20084
894.186	19879
894.308	19864
894.43	20092
894.552	20164
894.674	19986
894.796	19928
894.918	19925
895.04	20073
895.161	19951
895.283	20050
895.405	19860
895.526	20046
895.648	20005
895.769	19993
895.891	19959
896.012	20001
896.134	20039
896.255	19906
896.376	20012
896.498	20031
896.619	20088
896.74	19970
896.861	19967
896.982	20286
897.103	20431
897.224	20282
897.345	20199
897.466	20149
897.587	20191
897.708	20263
897.828	20202
897.949	20058
898.07	20062
898.19	20081
898.311	20240
898.431	20237
898.552	20195
898.672	20271
898.792	20153
898.913	20267
899.033	20043
899.153	20043
899.273	19814
899.393	19970
899.513	20016
899.633	19833
899.753	19932
899.873	19932
899.993	20001
900.113	19822
900.232	19879
900.352	19959
900.472	19746
900.591	19693
900.711	19605
900.83	19681
900.95	19799
901.069	19841
901.189	19658
901.308	19419
901.427	19236
901.546	19259
901.665	19362
901.784	19324
901.904	19236
902.023	19202
902.141	19015
902.26	18970
902.379	18924
902.498	18840
902.617	18810
902.735	18859
902.854	18707
902.973	18806
903.091	18528
903.21	18574
903.328	18330
903.446	18414
903.565	18186
903.683	18315
903.801	18155
903.919	18201
904.038	18220
904.156	18114
904.274	18247
904.392	18038
904.51	18129
904.627	18053
904.745	18235
904.863	18003
904.981	17923
905.098	17779
905.216	17824
905.334	17722
905.451	17729
905.569	17676
905.686	17733
905.803	17859
905.921	17524
906.038	17535
906.155	17600
906.272	17376
906.389	17326
906.506	17311
906.623	17246
906.74	17391
906.857	17185
906.974	17235
907.091	17353
907.208	17444
907.324	17239
907.441	17250
907.557	17029
907.674	17060
907.79	16934
907.907	16942
908.023	17071
908.139	17041
908.256	16911
908.372	16854
908.488	16812
908.604	16782
908.72	16641
908.836	16656
908.952	16641
909.068	16653
909.184	16767
909.3	16569
909.415	16679
909.531	16721
909.647	16455
909.762	16436
909.878	16398
909.993	16474
910.108	16360
910.224	16333
910.339	16314
910.454	16306
910.57	16249
910.685	16192
910.8	16485
910.915	16394
911.03	16192
911.145	16116
911.259	16071
911.374	16002
911.489	15960
911.604	16006
911.718	15679
911.833	15789
911.947	15720
912.062	15561
912.176	15720
912.291	15724
912.405	15759
912.519	15812
912.633	15930
912.748	15759
912.862	15709
912.976	15690
913.09	15542
913.204	15504
913.318	15652
913.431	15652
913.545	15633
913.659	15694
913.772	15545
913.886	15367
914	15420
914.113	15416
914.226	15473
914.34	15363
914.453	15192
914.566	15393
914.68	15161
914.793	15165
914.906	15039
915.019	15013
915.132	14998
915.245	15058
915.358	14921
915.47	14990
915.583	14990
915.696	15032
915.809	15108
915.921	15218
916.034	14914
916.146	14921
916.259	14845
916.371	14902
916.483	14838
916.595	14811
916.708	14807
916.82	14804
916.932	14743
917.044	14701
917.156	14739
917.268	14670
917.38	14735
917.491	14575
917.603	14648
917.715	14674
917.826	14705
917.938	14598
918.049	14530
918.161	14560
918.272	14739
918.384	14781
918.495	14602
918.606	14450
918.717	14381
918.828	14461
918.939	14366
919.05	14385
919.161	14450
919.272	14180
919.383	14271
919.494	14473
919.604	14507
919.715	14408
919.826	14229
919.936	14396
920.047	14469
920.157	14370
920.267	14590
920.378	14374
920.488	14317
920.598	14545
920.708	14739
920.818	14511
920.928	14484
921.038	14613
921.148	14575
921.258	14267
921.368	14339
921.477	14240
921.587	14081
921.697	13917
921.806	14103
921.916	13974
922.025	13830
922.134	13731
922.244	13742
922.353	13814
922.462	13681
922.571	13586
922.68	13472
922.789	13388
922.898	13426
923.007	13331
923.116	13400
923.224	13365
923.333	13438
923.442	13244
923.55	13149
923.659	13259
923.767	13301
923.876	13206
923.984	13297
924.092	13126
924.201	13240
924.309	13084
924.417	13194
924.525	13118
924.633	13099
924.741	13811
924.849	12867
924.956	12951
925.064	12924
925.172	12696
925.279	12795
925.387	12844
925.494	12859
925.602	13012
925.709	12897
925.816	12692
925.924	12722
926.031	12825
926.138	12700
926.245	12859
926.352	12677
926.459	12719
926.566	12852
926.673	12677
926.779	12570
926.886	12589
926.993	12395
927.099	12483
927.206	12323
927.312	12353
927.419	12460
927.525	12369
927.631	12441
927.737	12251
927.843	12247
927.95	12167
928.056	12140
928.162	12213
928.267	12346
928.373	12772
928.479	12346
928.585	12003
928.69	12129
928.796	12190
928.901	12133
929.007	11885
929.112	12034
929.218	12079
929.323	12026
929.428	11931
929.533	12102
929.638	11832
929.743	11866
929.848	11950
929.953	11882
930.058	11805
930.163	11585
930.267	11756
930.372	11729
930.477	11608
930.581	11775
930.685	11630
930.79	11509
930.894	11539
930.998	11528
931.103	11611
931.207	11261
931.311	11193
931.415	11155
931.519	11018
931.623	10949
