Data from test_V78500241_159.txt Node
Date: Fri Mar 25 15:10:58 CST 2022
User: usil
Spectrometer: V785-0024
Trigger mode: 0
Integration Time (sec): 4.000000E-1
Scans to average: 1
Nonlinearity correction enabled: false
Boxcar width: 0
Storing dark spectrum: false
XAxis mode: Wavelengths
Number of Pixels in Spectrum: 1024
>>>>>Begin Spectral Data<<<<<
801.071	28006
801.214	27869
801.356	27667
801.499	27698
801.641	27469
801.783	27576
801.926	27523
802.068	27488
802.211	27469
802.353	27389
802.496	27203
802.638	27142
802.78	27135
802.923	27089
803.065	26929
803.208	26963
803.35	27123
803.492	27313
803.635	27260
803.777	27173
803.919	27203
804.061	27466
804.204	27332
804.346	27260
804.488	26990
804.63	27283
804.773	27020
804.915	27127
805.057	27313
805.199	27047
805.341	27211
805.483	27256
805.626	27298
805.768	27146
805.91	27287
806.052	27348
806.194	27249
806.336	27591
806.478	27192
806.62	27154
806.762	27405
806.904	27485
807.046	27599
807.188	27606
807.33	27663
807.472	27759
807.614	27701
807.756	27690
807.898	27549
808.04	27329
808.182	27488
808.324	27492
808.465	27443
808.607	27675
808.749	27732
808.891	27785
809.033	27998
809.174	27926
809.316	27892
809.458	27838
809.6	27770
809.741	27842
809.883	27869
810.025	28021
810.166	28067
810.308	28010
810.45	27960
810.591	27934
810.733	27808
810.875	27698
811.016	27793
811.158	27587
811.299	27770
811.441	27975
811.582	27808
811.724	27747
811.865	27720
812.007	27629
812.148	27705
812.29	27956
812.431	27804
812.573	27998
812.714	28211
812.855	28154
812.997	28401
813.138	28649
813.279	28344
813.421	28341
813.562	28344
813.703	28002
813.845	28036
813.986	27701
814.127	27507
814.268	27363
814.41	27481
814.551	27291
814.692	27542
814.833	27348
814.974	27431
815.115	27348
815.256	27241
815.397	27237
815.539	27127
815.68	27108
815.821	26975
815.962	27119
816.103	27066
816.244	26994
816.385	26948
816.526	26944
816.666	26655
816.807	26492
816.948	26609
817.089	26743
817.23	26708
817.371	26587
817.512	26514
817.653	26659
817.793	26575
817.934	26606
818.075	26488
818.216	26514
818.356	26469
818.497	26450
818.638	26256
818.778	26339
818.919	26294
819.06	26336
819.2	26518
819.341	26461
819.481	26385
819.622	26522
819.762	26857
819.903	26800
820.043	26492
820.184	26629
820.324	26412
820.465	26727
820.605	26495
820.746	26434
820.886	26461
821.026	26587
821.167	26336
821.307	26530
821.447	26358
821.588	26404
821.728	26195
821.868	26081
822.008	25852
822.149	25890
822.289	25875
822.429	25769
822.569	25495
822.709	25582
822.849	25377
822.99	25415
823.13	25460
823.27	25441
823.41	25129
823.55	25072
823.69	25107
823.83	25187
823.97	25183
824.11	24985
824.25	24977
824.389	24977
824.529	25072
824.669	24916
824.809	25198
824.949	25008
825.089	25080
825.228	25008
825.368	24894
825.508	24867
825.648	24776
825.787	24817
825.927	24802
826.067	24779
826.206	24719
826.346	24719
826.485	24844
826.625	24639
826.765	24867
826.904	24875
827.044	24536
827.183	24547
827.323	24563
827.462	24616
827.601	24467
827.741	24388
827.88	24494
828.02	24327
828.159	24437
828.298	24540
828.437	24536
828.577	24410
828.716	24532
828.855	24429
828.994	24289
829.134	24273
829.273	24216
829.412	24049
829.551	24117
829.69	24125
829.829	24209
829.968	24201
830.107	24247
830.246	24106
830.385	24201
830.524	24018
830.663	24064
830.802	23798
830.941	23741
831.08	23729
831.219	23695
831.357	23802
831.496	23996
831.635	23634
831.774	23642
831.913	23642
832.051	23570
832.19	23551
832.329	23554
832.467	23402
832.606	23284
832.744	23345
832.883	23356
833.022	23303
833.16	23387
833.299	23395
833.437	23459
833.576	23444
833.714	23387
833.852	23448
833.991	23345
834.129	23337
834.267	23402
834.406	23311
834.544	23379
834.682	23379
834.821	23318
834.959	23471
835.097	23356
835.235	23322
835.373	23444
835.511	23410
835.65	23250
835.788	23254
835.926	23083
836.064	23033
836.202	23105
836.34	23292
836.478	23242
836.615	23113
836.753	23337
836.891	23273
837.029	23189
837.167	23090
837.305	23166
837.443	23140
837.58	23025
837.718	23143
837.856	22980
837.993	23010
838.131	22927
838.269	22942
838.406	22946
838.544	22828
838.681	22740
838.819	22717
838.956	22428
839.094	22508
839.231	22531
839.369	22637
839.506	22995
839.643	22877
839.781	22489
839.918	22432
840.055	22546
840.193	22409
840.33	22531
840.467	22432
840.604	22519
840.742	22717
840.879	22356
841.016	22238
841.153	22291
841.29	22447
841.427	22409
841.564	22447
841.701	22371
841.838	22360
841.975	22284
842.112	22272
842.249	22196
842.385	21987
842.522	22409
842.659	22230
842.796	22116
842.933	22032
843.069	22090
843.206	22025
843.343	22211
843.479	22067
843.616	22135
843.752	21865
843.889	21922
844.025	21956
844.162	21918
844.298	22040
844.435	21907
844.571	21778
844.708	21937
844.844	22078
844.98	22105
845.117	21915
845.253	21861
845.389	21827
845.525	21743
845.661	21633
845.798	21610
845.934	21641
846.07	21610
846.206	21568
846.342	21652
846.478	21618
846.614	21412
846.75	21393
846.886	21313
847.022	21397
847.158	21359
847.294	21268
847.429	21359
847.565	21313
847.701	21637
847.837	21093
847.972	21028
848.108	21051
848.244	21066
848.379	21051
848.515	20914
848.65	20823
848.786	20845
848.921	20891
849.057	20941
849.192	21028
849.328	20883
849.463	20952
849.598	20830
849.734	20788
849.869	20712
850.004	20804
850.14	20640
850.275	20724
850.41	20579
850.545	20564
850.68	20556
850.815	20617
850.95	20609
851.085	20857
851.22	20807
851.355	20769
851.49	20499
851.625	20583
851.76	20598
851.895	20457
852.03	20530
852.165	20541
852.299	20674
852.434	20613
852.569	20708
852.703	20587
852.838	20674
852.973	20864
853.107	20686
853.242	20629
853.376	20499
853.511	20317
853.645	20564
853.78	20602
853.914	20488
854.048	20404
854.183	20484
854.317	20438
854.451	20606
854.585	20442
854.72	20423
854.854	20404
854.988	20275
855.122	20526
855.256	20282
855.39	20305
855.524	20415
855.658	20636
855.792	20454
855.926	20366
856.06	20423
856.194	20590
856.327	20389
856.461	20381
856.595	20324
856.729	20438
856.862	20522
856.996	20374
857.13	20412
857.263	20522
857.397	20503
857.53	20438
857.664	20465
857.797	20431
857.931	20587
858.064	20579
858.197	20514
858.331	20400
858.464	20332
858.597	20263
858.731	20442
858.864	20408
858.997	20442
859.13	20446
859.263	20400
859.396	20351
859.529	20362
859.662	20370
859.795	20400
859.928	20473
860.061	20446
860.194	20640
860.327	20415
860.46	20267
860.592	20438
860.725	20511
860.858	20522
860.99	20355
861.123	20256
861.256	20332
861.388	20347
861.521	21112
861.653	20187
861.786	20183
861.918	20225
862.05	20317
862.183	20393
862.315	20377
862.447	20412
862.58	20400
862.712	20126
862.844	20111
862.976	20267
863.108	20039
863.24	20457
863.372	20111
863.504	20062
863.636	20138
863.768	20191
863.9	20012
864.032	19944
864.164	20005
864.296	20069
864.428	20161
864.559	20145
864.691	20187
864.823	20119
864.954	20130
865.086	19974
865.217	20046
865.349	19833
865.48	19997
865.612	19906
865.743	20130
865.875	20092
866.006	19989
866.137	20077
866.269	20054
866.4	19974
866.531	19921
866.662	19913
866.793	19967
866.924	19951
867.055	19963
867.186	19928
867.317	19906
867.448	19978
867.579	19875
867.71	19845
867.841	19765
867.972	19883
868.103	19986
868.233	19925
868.364	19902
868.495	19921
868.625	20073
868.756	20282
868.886	20088
869.017	20145
869.147	20320
869.278	20252
869.408	20202
869.539	20164
869.669	20294
869.799	20180
869.929	20305
870.06	20290
870.19	20526
870.32	20465
870.45	20541
870.58	20571
870.71	20750
870.84	20701
870.97	20651
871.1	20659
871.23	20727
871.36	20625
871.489	20598
871.619	20663
871.749	20792
871.879	20785
872.008	20807
872.138	20769
872.267	20674
872.397	20693
872.526	20522
872.656	20602
872.785	20602
872.915	20644
873.044	20807
873.173	20769
873.303	20792
873.432	20842
873.561	20853
873.69	20819
873.819	20785
873.948	20842
874.077	20769
874.206	20739
874.335	20613
874.464	20971
874.593	21108
874.722	20910
874.851	21032
874.979	21043
875.108	21089
875.237	21020
875.365	20933
875.494	21017
875.623	21123
875.751	21024
875.88	21150
876.008	21203
876.136	21199
876.265	21450
876.393	21549
876.521	21504
876.65	21580
876.778	21469
876.906	21454
877.034	21317
877.162	21378
877.29	21401
877.418	21389
877.546	21424
877.674	21268
877.802	21287
877.93	21348
878.058	21321
878.185	21378
878.313	21355
878.441	21370
878.568	21157
878.696	21249
878.824	21298
878.951	21420
879.079	21488
879.206	21778
879.333	21538
879.461	21488
879.588	21485
879.715	21652
879.842	21663
879.97	21416
880.097	21268
880.224	21184
880.351	21313
880.478	21161
880.605	21256
880.732	21275
880.859	21447
880.986	21138
881.112	21154
881.239	20979
881.366	20982
881.493	20872
881.619	20754
881.746	20762
881.872	20811
881.999	20842
882.125	20800
882.252	20872
882.378	20735
882.505	20925
882.631	20796
882.757	20606
882.883	20533
883.01	20533
883.136	20549
883.262	20431
883.388	20347
883.514	20575
883.64	20571
883.766	20522
883.892	20248
884.018	20278
884.143	20564
884.269	20568
884.395	20202
884.52	20195
884.646	20062
884.772	20180
884.897	20058
885.023	20233
885.148	20377
885.274	20309
885.399	20358
885.524	20168
885.65	20153
885.775	20221
885.9	20199
886.025	20183
886.15	20199
886.275	20039
886.4	20107
886.525	20096
886.65	20069
886.775	20168
886.9	20191
887.025	20377
887.149	20161
887.274	20130
887.399	19883
887.523	19932
887.648	19864
887.773	19803
887.897	19989
888.021	19974
888.146	19784
888.27	19928
888.395	20005
888.519	20020
888.643	20005
888.767	20008
888.891	19814
889.015	19655
889.139	19814
889.263	19750
889.387	19940
889.511	19852
889.635	19921
889.759	19753
889.883	19761
890.006	19742
890.13	19803
890.254	19765
890.377	19677
890.501	19495
890.624	19499
890.748	19575
890.871	19422
890.995	19297
891.118	19301
891.241	19327
891.364	19373
891.488	19381
891.611	19263
891.734	19381
891.857	19468
891.98	19320
892.103	19247
892.226	19384
892.349	19289
892.471	19095
892.594	19148
892.717	19304
892.839	19247
892.962	19293
893.085	19274
893.207	19228
893.33	19190
893.452	19057
893.575	19110
893.697	19213
893.819	19358
893.941	19384
894.064	19225
894.186	19091
894.308	19225
894.43	19240
894.552	19346
894.674	19263
894.796	19046
894.918	19255
895.04	19133
895.161	19400
895.283	19110
895.405	19217
895.526	19263
895.648	19225
895.769	19301
895.891	19213
896.012	19346
896.134	19285
896.255	19278
896.376	19217
896.498	19274
896.619	19369
896.74	19327
896.861	19369
896.982	19567
897.103	19655
897.224	19681
897.345	19575
897.466	19430
897.587	19510
897.708	19647
897.828	19605
897.949	19483
898.07	19289
898.19	19480
898.311	19651
898.431	19476
898.552	19506
898.672	19514
898.792	19594
898.913	19491
899.033	19320
899.153	19266
899.273	19206
899.393	19175
899.513	19369
899.633	19232
899.753	19331
899.873	19152
899.993	19126
900.113	19065
900.232	19148
900.352	19213
900.472	19084
900.591	18989
900.711	19061
900.83	18947
900.95	19221
901.069	19118
901.189	18935
901.308	18726
901.427	18604
901.546	18688
901.665	18639
901.784	18486
901.904	18521
902.023	18391
902.141	18197
902.26	18121
902.379	18323
902.498	18106
902.617	18079
902.735	18155
902.854	18129
902.973	17863
903.091	17802
903.21	17878
903.328	17764
903.446	17653
903.565	17619
903.683	17608
903.801	17551
903.919	17630
904.038	17585
904.156	17486
904.274	17471
904.392	17417
904.51	17410
904.627	17318
904.745	17474
904.863	17471
904.981	17151
905.098	17064
905.216	17045
905.334	17056
905.451	17025
905.569	16972
905.686	17162
905.803	17090
905.921	16786
906.038	16946
906.155	16873
906.272	16717
906.389	16790
906.506	16668
906.623	16599
906.74	16531
906.857	16489
906.974	16485
907.091	16672
907.208	16774
907.324	16565
907.441	16607
907.557	16322
907.674	16333
907.79	16310
907.907	16204
908.023	16306
908.139	16272
908.256	16249
908.372	16173
908.488	16154
908.604	16032
908.72	15994
908.836	16010
908.952	16021
909.068	15960
909.184	16074
909.3	16040
909.415	15930
909.531	15945
909.647	15713
909.762	15774
909.878	15652
909.993	15724
910.108	15713
910.224	15614
910.339	15751
910.454	15549
910.57	15416
910.685	15485
910.8	15755
910.915	15625
911.03	15496
911.145	15325
911.259	15226
911.374	15272
911.489	15264
911.604	15184
911.718	15043
911.833	14990
911.947	14902
912.062	14857
912.176	14994
912.291	15043
912.405	15070
912.519	15154
912.633	15237
912.748	15051
912.862	15070
912.976	14880
913.09	14765
913.204	14785
913.318	14887
913.431	14895
913.545	14910
913.659	15017
913.772	14834
913.886	14670
914	14640
914.113	14842
914.226	14830
914.34	14735
914.453	14583
914.566	14781
914.68	14602
914.793	14617
914.906	14423
915.019	14278
915.132	14172
915.245	14244
915.358	14450
915.47	14263
915.583	14309
915.696	14362
915.809	14404
915.921	14450
916.034	14153
916.146	14058
916.259	14229
916.371	14252
916.483	14202
916.595	14195
916.708	14183
916.82	14100
916.932	14069
917.044	14123
917.156	14027
917.268	13993
917.38	14084
917.491	14020
917.603	14027
917.715	14001
917.826	14050
917.938	13864
918.049	13845
918.161	14012
918.272	14035
918.384	14088
918.495	13955
918.606	13784
918.717	13700
918.828	13772
918.939	13715
919.05	13712
919.161	13780
919.272	13491
919.383	13620
919.494	13750
919.604	13936
919.715	13776
919.826	13590
919.936	13601
920.047	13791
920.157	13689
920.267	13818
920.378	13757
920.488	13639
920.598	13799
920.708	14012
920.818	13814
920.928	13811
921.038	14084
921.148	14012
921.258	13693
921.368	13651
921.477	13510
921.587	13487
921.697	13324
921.806	13480
921.916	13350
922.025	13126
922.134	13122
922.244	13080
922.353	13152
922.462	13057
922.571	12951
922.68	12768
922.789	12806
922.898	12741
923.007	12623
923.116	12684
923.224	12707
923.333	12734
923.442	12570
923.55	12517
923.659	12559
923.767	12707
923.876	12452
923.984	12582
924.092	12494
924.201	12471
924.309	12479
924.417	12559
924.525	12433
924.633	12483
924.741	13183
924.849	12205
924.956	12414
925.064	12270
925.172	12152
925.279	12213
925.387	12216
925.494	12175
925.602	12376
925.709	12296
925.816	12220
925.924	12079
926.031	12213
926.138	12182
926.245	12163
926.352	12121
926.459	12182
926.566	12224
926.673	12114
926.779	11988
926.886	11939
926.993	11824
927.099	11802
927.206	11805
927.312	11752
927.419	11920
927.525	11764
927.631	11752
927.737	11665
927.843	11714
927.95	11505
928.056	11642
928.162	11745
928.267	11710
928.373	12270
928.479	11710
928.585	11539
928.69	11596
928.796	11699
928.901	11444
929.007	11383
929.112	11501
929.218	11433
929.323	11414
929.428	11425
929.533	11490
929.638	11318
929.743	11356
929.848	11421
929.953	11334
930.058	11170
930.163	11052
930.267	11098
930.372	11208
930.477	11029
930.581	11231
930.685	11197
930.79	10965
930.894	10987
930.998	10873
931.103	11075
931.207	10786
931.311	10729
931.415	10527
931.519	10405
931.623	10379
