Data from test_V78500241_181.txt Node
Date: Fri Mar 25 15:11:07 CST 2022
User: usil
Spectrometer: V785-0024
Trigger mode: 0
Integration Time (sec): 4.000000E-1
Scans to average: 1
Nonlinearity correction enabled: false
Boxcar width: 0
Storing dark spectrum: false
XAxis mode: Wavelengths
Number of Pixels in Spectrum: 1024
>>>>>Begin Spectral Data<<<<<
801.071	27549
801.214	27648
801.356	27313
801.499	27275
801.641	27203
801.783	27093
801.926	27180
802.068	27089
802.211	27051
802.353	27036
802.496	26796
802.638	26853
802.78	26815
802.923	26739
803.065	26602
803.208	26648
803.35	26834
803.492	26743
803.635	26872
803.777	26727
803.919	26880
804.061	27089
804.204	26788
804.346	26750
804.488	26697
804.63	26823
804.773	26594
804.915	26735
805.057	26880
805.199	26739
805.341	26823
805.483	26815
805.626	26929
805.768	26887
805.91	26880
806.052	26933
806.194	26746
806.336	27005
806.478	26838
806.62	26697
806.762	26883
806.904	27184
807.046	27249
807.188	27351
807.33	27131
807.472	27256
807.614	27093
807.756	27131
807.898	27077
808.04	26906
808.182	26982
808.324	27032
808.465	27074
808.607	27180
808.749	27420
808.891	27382
809.033	27534
809.174	27450
809.316	27382
809.458	27256
809.6	27321
809.741	27492
809.883	27393
810.025	27625
810.166	27755
810.308	27553
810.45	27751
810.591	27492
810.733	27370
810.875	27256
811.016	27218
811.158	27195
811.299	27408
811.441	27469
811.582	27504
811.724	27260
811.865	27279
812.007	27233
812.148	27355
812.29	27382
812.431	27561
812.573	27610
812.714	27728
812.855	27762
812.997	27850
813.138	28051
813.279	27914
813.421	27804
813.562	27800
813.703	27603
813.845	27637
813.986	27233
814.127	27055
814.268	27138
814.41	27077
814.551	26849
814.692	27017
814.833	26777
814.974	26705
815.115	26880
815.256	26750
815.397	26727
815.539	26876
815.68	26598
815.821	26621
815.962	26686
816.103	26640
816.244	26613
816.385	26571
816.526	26309
816.666	26256
816.807	26031
816.948	26248
817.089	26271
817.23	26122
817.371	26145
817.512	26062
817.653	26096
817.793	26050
817.934	26027
818.075	26149
818.216	26073
818.356	26202
818.497	25966
818.638	25909
818.778	25837
818.919	25902
819.06	25788
819.2	25940
819.341	26001
819.481	25932
819.622	26126
819.762	26385
819.903	26221
820.043	26218
820.184	26176
820.324	26001
820.465	26252
820.605	26172
820.746	26062
820.886	25966
821.026	25993
821.167	25951
821.307	26191
821.447	26039
821.588	25864
821.728	25765
821.868	25635
822.008	25571
822.149	25483
822.289	25320
822.429	25297
822.569	25137
822.709	25053
822.849	24886
822.99	24916
823.13	24798
823.27	24916
823.41	24776
823.55	24627
823.69	24764
823.83	24700
823.97	24582
824.11	24437
824.25	24593
824.389	24555
824.529	24559
824.669	24578
824.809	24646
824.949	24513
825.089	24764
825.228	24490
825.368	24353
825.508	24407
825.648	24315
825.787	24262
825.927	24418
826.067	24270
826.206	24330
826.346	24365
826.485	24391
826.625	24372
826.765	24346
826.904	24365
827.044	24057
827.183	24022
827.323	23977
827.462	24095
827.601	24003
827.741	24022
827.88	23988
828.02	23927
828.159	23969
828.298	23942
828.437	24102
828.577	24030
828.716	24102
828.855	23855
828.994	23752
829.134	23866
829.273	23851
829.412	23775
829.551	23577
829.69	23665
829.829	23828
829.968	23798
830.107	23684
830.246	23661
830.385	23592
830.524	23684
830.663	23482
830.802	23604
830.941	23322
831.08	23261
831.219	23410
831.357	23372
831.496	23531
831.635	23174
831.774	23261
831.913	23155
832.051	23022
832.19	23109
832.329	23105
832.467	22938
832.606	22854
832.744	22987
832.883	22946
833.022	22915
833.16	22923
833.299	22968
833.437	23041
833.576	23025
833.714	23109
833.852	22995
833.991	23071
834.129	23041
834.267	23086
834.406	22793
834.544	22987
834.682	23132
834.821	22892
834.959	23102
835.097	22797
835.235	22968
835.373	22919
835.511	22927
835.65	22702
835.788	22748
835.926	22820
836.064	22546
836.202	22702
836.34	22748
836.478	22835
836.615	22820
836.753	22889
836.891	22934
837.029	22816
837.167	22687
837.305	22687
837.443	22641
837.58	22679
837.718	22805
837.856	22683
837.993	22656
838.131	22580
838.269	22470
838.406	22497
838.544	22538
838.681	22226
838.819	22238
838.956	22131
839.094	22036
839.231	22185
839.369	22348
839.506	22481
839.643	22265
839.781	22082
839.918	22048
840.055	22097
840.193	22048
840.33	21987
840.467	22059
840.604	22040
840.742	22177
840.879	21953
841.016	21869
841.153	21857
841.29	21960
841.427	22013
841.564	22044
841.701	21941
841.838	21850
841.975	21808
842.112	21846
842.249	21778
842.385	21736
842.522	21930
842.659	21717
842.796	21534
842.933	21766
843.069	21663
843.206	21682
843.343	21797
843.479	21720
843.616	21728
843.752	21549
843.889	21401
844.025	21564
844.162	21462
844.298	21492
844.435	21450
844.571	21428
844.708	21519
844.844	21549
844.98	21618
845.117	21610
845.253	21420
845.389	21329
845.525	21351
845.661	21275
845.798	21089
845.934	21184
846.07	21119
846.206	21264
846.342	21317
846.478	21233
846.614	20994
846.75	20883
846.886	20891
847.022	21051
847.158	20880
847.294	20914
847.429	20956
847.565	20872
847.701	21154
847.837	20697
847.972	20583
848.108	20781
848.244	20750
848.379	20556
848.515	20537
848.65	20507
848.786	20541
848.921	20499
849.057	20682
849.192	20568
849.328	20465
849.463	20499
849.598	20427
849.734	20438
849.869	20419
850.004	20301
850.14	20313
850.275	20301
850.41	20161
850.545	20142
850.68	20317
850.815	20210
850.95	20225
851.085	20404
851.22	20358
851.355	20267
851.49	20290
851.625	20237
851.76	20214
851.895	20065
852.03	20084
852.165	20161
852.299	20183
852.434	20385
852.569	20195
852.703	20172
852.838	20320
852.973	20237
853.107	20229
853.242	20199
853.376	20039
853.511	19940
853.645	20016
853.78	20248
853.914	20149
854.048	20024
854.183	20062
854.317	20043
854.451	20275
854.585	20088
854.72	19993
854.854	19936
854.988	20043
855.122	19978
855.256	19715
855.39	20084
855.524	20130
855.658	20058
855.792	19959
855.926	20024
856.06	20138
856.194	20092
856.327	19963
856.461	19890
856.595	20046
856.729	19997
856.862	20103
856.996	19986
857.13	20050
857.263	20107
857.397	20126
857.53	20126
857.664	20153
857.797	20107
857.931	20126
858.064	20073
858.197	20210
858.331	20050
858.464	20005
858.597	19993
858.731	19970
858.864	19925
858.997	20027
859.13	20119
859.263	19936
859.396	20149
859.529	19879
859.662	20058
859.795	19879
859.928	19974
860.061	20138
860.194	20214
860.327	20069
860.46	20016
860.592	20180
860.725	20195
860.858	20161
860.99	19913
861.123	19909
861.256	19822
861.388	19898
861.521	20819
861.653	19989
861.786	19765
861.918	19807
862.05	19890
862.183	19963
862.315	20012
862.447	20145
862.58	20020
862.712	19769
862.844	19761
862.976	19731
863.108	19708
863.24	20081
863.372	19715
863.504	19784
863.636	19849
863.768	19750
863.9	19757
864.032	19628
864.164	19616
864.296	19616
864.428	19845
864.559	19852
864.691	19830
864.823	19727
864.954	19693
865.086	19681
865.217	19670
865.349	19594
865.48	19594
865.612	19685
865.743	19696
865.875	19658
866.006	19635
866.137	19605
866.269	19662
866.4	19624
866.531	19571
866.662	19453
866.793	19575
866.924	19624
867.055	19552
867.186	19552
867.317	19529
867.448	19502
867.579	19434
867.71	19559
867.841	19483
867.972	19533
868.103	19476
868.233	19510
868.364	19556
868.495	19670
868.625	19780
868.756	19852
868.886	19727
869.017	19769
869.147	19883
869.278	19871
869.408	19894
869.539	19811
869.669	19852
869.799	19849
869.929	19890
870.06	19875
870.19	20107
870.32	20012
870.45	20096
870.58	20210
870.71	20454
870.84	20298
870.97	20210
871.1	20180
871.23	20339
871.36	20431
871.489	20290
871.619	20309
871.749	20404
871.879	20389
872.008	20461
872.138	20400
872.267	20320
872.397	20305
872.526	20172
872.656	20259
872.785	20153
872.915	20263
873.044	20499
873.173	20362
873.303	20374
873.432	20396
873.561	20450
873.69	20415
873.819	20469
873.948	20499
874.077	20446
874.206	20305
874.335	20427
874.464	20590
874.593	20602
874.722	20594
874.851	20663
874.979	20693
875.108	20693
875.237	20587
875.365	20629
875.494	20651
875.623	20750
875.751	20674
875.88	20705
876.008	20663
876.136	20910
876.265	21081
876.393	21188
876.521	21119
876.65	21199
876.778	21058
876.906	21017
877.034	21119
877.162	20994
877.29	21020
877.418	21024
877.546	20925
877.674	21081
877.802	21020
877.93	20925
878.058	20990
878.185	20910
878.313	21017
878.441	21066
878.568	20960
878.696	20994
878.824	21123
878.951	21138
879.079	21119
879.206	21344
879.333	21085
879.461	21024
879.588	21131
879.715	21104
879.842	21222
879.97	21017
880.097	20906
880.224	20773
880.351	20861
880.478	20823
880.605	20800
880.732	20868
880.859	20998
880.986	20937
881.112	20895
881.239	20648
881.366	20598
881.493	20549
881.619	20427
881.746	20503
881.872	20533
881.999	20514
882.125	20317
882.252	20469
882.378	20473
882.505	20465
882.631	20324
882.757	20172
882.883	20351
883.01	20183
883.136	20183
883.262	20027
883.388	20039
883.514	20214
883.64	20225
883.766	20187
883.892	19978
884.018	20001
884.143	20149
884.269	20218
884.395	19940
884.52	19833
884.646	19803
884.772	19894
884.897	19746
885.023	19826
885.148	19856
885.274	20008
885.399	19868
885.524	19788
885.65	19795
885.775	19833
885.9	19818
886.025	19856
886.15	19826
886.275	19871
886.4	19742
886.525	19780
886.65	19757
886.775	19719
886.9	19898
887.025	20024
887.149	19807
887.274	19624
887.399	19525
887.523	19651
887.648	19605
887.773	19556
887.897	19685
888.021	19727
888.146	19651
888.27	19723
888.395	19605
888.519	19563
888.643	19662
888.767	19719
888.891	19655
889.015	19377
889.139	19514
889.263	19362
889.387	19563
889.511	19670
889.635	19472
889.759	19381
889.883	19362
890.006	19483
890.13	19514
890.254	19255
890.377	19316
890.501	19160
890.624	19050
890.748	19156
890.871	19145
890.995	19095
891.118	18859
891.241	18962
891.364	19099
891.488	19118
891.611	18958
891.734	18973
891.857	19080
891.98	18993
892.103	19027
892.226	18989
892.349	18894
892.471	18810
892.594	18886
892.717	18837
892.839	18939
892.962	18954
893.085	19031
893.207	18913
893.33	18783
893.452	18810
893.575	18977
893.697	18913
893.819	19034
893.941	19160
894.064	19053
894.186	19004
894.308	18772
894.43	18928
894.552	19057
894.674	18993
894.796	18882
894.918	18863
895.04	18863
895.161	19053
895.283	18852
895.405	18897
895.526	18856
895.648	18897
895.769	18932
895.891	18935
896.012	19088
896.134	18993
896.255	18935
896.376	19027
896.498	18966
896.619	19148
896.74	18909
896.861	19046
896.982	19491
897.103	19483
897.224	19289
897.345	19209
897.466	19095
897.587	19190
897.708	19278
897.828	19304
897.949	19156
898.07	18951
898.19	19076
898.311	19171
898.431	19133
898.552	19129
898.672	19217
898.792	19228
898.913	19171
899.033	19072
899.153	18924
899.273	18810
899.393	18973
899.513	18947
899.633	18962
899.753	18924
899.873	18833
899.993	18840
900.113	18897
900.232	18943
900.352	18924
900.472	18734
900.591	18722
900.711	18627
900.83	18757
900.95	18817
901.069	18817
901.189	18692
901.308	18289
901.427	18277
901.546	18426
901.665	18330
901.784	18350
901.904	18209
902.023	18114
902.141	17897
902.26	17828
902.379	17954
902.498	17843
902.617	17863
902.735	17965
902.854	17794
902.973	17756
903.091	17543
903.21	17592
903.328	17608
903.446	17330
903.565	17395
903.683	17360
903.801	17178
903.919	17364
904.038	17395
904.156	17170
904.274	17242
904.392	17113
904.51	17155
904.627	17094
904.745	17025
904.863	17166
904.981	16930
905.098	16790
905.216	16759
905.334	16892
905.451	16691
905.569	16687
905.686	16713
905.803	16759
905.921	16500
906.038	16668
906.155	16656
906.272	16527
906.389	16470
906.506	16344
906.623	16413
906.74	16390
906.857	16268
906.974	16188
907.091	16409
907.208	16497
907.324	16306
907.441	16166
907.557	15975
907.674	16078
907.79	15934
907.907	15991
908.023	16059
908.139	16071
908.256	15964
908.372	15987
908.488	15857
908.604	15819
908.72	15686
908.836	15660
908.952	15618
909.068	15755
909.184	15857
909.3	15713
909.415	15766
909.531	15701
909.647	15355
909.762	15526
909.878	15462
909.993	15542
910.108	15279
910.224	15317
910.339	15351
910.454	15332
910.57	15161
910.685	15291
910.8	15507
910.915	15431
911.03	15203
911.145	15043
911.259	15074
911.374	14990
911.489	14887
911.604	14906
911.718	14727
911.833	14826
911.947	14686
912.062	14621
912.176	14788
912.291	14777
912.405	14689
912.519	14948
912.633	14895
912.748	14796
912.862	14724
912.976	14697
913.09	14526
913.204	14636
913.318	14606
913.431	14640
913.545	14792
913.659	14754
913.772	14556
913.886	14423
914	14347
914.113	14511
914.226	14480
914.34	14469
914.453	14339
914.566	14450
914.68	14355
914.793	14305
914.906	14168
915.019	14084
915.132	14073
915.245	14035
915.358	14062
915.47	14062
915.583	14062
915.696	14031
915.809	14183
915.921	14115
916.034	14039
916.146	14016
916.259	13959
916.371	14046
916.483	14050
916.595	13928
916.708	14012
916.82	13890
916.932	13890
917.044	13898
917.156	13868
917.268	13799
917.38	13734
917.491	13753
917.603	13727
917.715	13833
917.826	13772
917.938	13651
918.049	13559
918.161	13769
918.272	13822
918.384	13864
918.495	13742
918.606	13499
918.717	13525
918.828	13586
918.939	13613
919.05	13396
919.161	13441
919.272	13373
919.383	13396
919.494	13594
919.604	13750
919.715	13575
919.826	13400
919.936	13487
920.047	13616
920.157	13476
920.267	13708
920.378	13457
920.488	13422
920.598	13662
920.708	13833
920.818	13620
920.928	13685
921.038	13776
921.148	13693
921.258	13354
921.368	13362
921.477	13289
921.587	13285
921.697	13149
921.806	13320
921.916	13190
922.025	12966
922.134	12943
922.244	12844
922.353	13008
922.462	12749
922.571	12772
922.68	12483
922.789	12547
922.898	12570
923.007	12517
923.116	12593
923.224	12525
923.333	12563
923.442	12445
923.55	12384
923.659	12376
923.767	12414
923.876	12399
923.984	12441
924.092	12319
924.201	12414
924.309	12254
924.417	12308
924.525	12243
924.633	12213
924.741	13004
924.849	12022
924.956	12247
925.064	12152
925.172	11969
925.279	11950
925.387	11969
925.494	11950
925.602	12087
925.709	12129
925.816	11923
925.924	12022
926.031	12076
926.138	11996
926.245	12079
926.352	11977
926.459	12053
926.566	12072
926.673	11923
926.779	11817
926.886	11821
926.993	11657
927.099	11532
927.206	11539
927.312	11532
927.419	11676
927.525	11668
927.631	11661
927.737	11551
927.843	11467
927.95	11353
928.056	11459
928.162	11474
928.267	11532
928.373	12068
928.479	11493
928.585	11383
928.69	11376
928.796	11490
928.901	11322
929.007	11227
929.112	11395
929.218	11265
929.323	11242
929.428	11197
929.533	11353
929.638	11147
929.743	11155
929.848	11132
929.953	11075
930.058	11037
930.163	10946
930.267	10885
930.372	11143
930.477	10858
930.581	11060
930.685	10961
930.79	10812
930.894	10843
930.998	10797
931.103	10877
931.207	10577
931.311	10455
931.415	10443
931.519	10234
931.623	10139
