Data from test_V78500241_2404.txt Node
Date: Fri Mar 25 15:26:35 CST 2022
User: usil
Spectrometer: V785-0024
Trigger mode: 0
Integration Time (sec): 4.000000E-1
Scans to average: 1
Nonlinearity correction enabled: false
Boxcar width: 0
Storing dark spectrum: false
XAxis mode: Wavelengths
Number of Pixels in Spectrum: 1024
>>>>>Begin Spectral Data<<<<<
801.071	27199
801.214	27112
801.356	26872
801.499	26876
801.641	26746
801.783	26712
801.926	26708
802.068	26762
802.211	26686
802.353	26674
802.496	26518
802.638	26324
802.78	26259
802.923	26267
803.065	26351
803.208	26317
803.35	26374
803.492	26415
803.635	26564
803.777	26343
803.919	26488
804.061	26811
804.204	26598
804.346	26355
804.488	26526
804.63	26461
804.773	26537
804.915	26621
805.057	26750
805.199	26480
805.341	26549
805.483	26655
805.626	26617
805.768	26537
805.91	26480
806.052	26663
806.194	26609
806.336	26921
806.478	26750
806.62	26583
806.762	26731
806.904	26883
807.046	27039
807.188	27058
807.33	27180
807.472	27127
807.614	27112
807.756	26971
807.898	26933
808.04	26899
808.182	26944
808.324	26899
808.465	27028
808.607	27100
808.749	27317
808.891	27325
809.033	27405
809.174	27367
809.316	27176
809.458	27230
809.6	27214
809.741	27355
809.883	27268
810.025	27511
810.166	27587
810.308	27466
810.45	27424
810.591	27367
810.733	27363
810.875	27245
811.016	27112
811.158	27203
811.299	27241
811.441	27325
811.582	27245
811.724	27351
811.865	27192
812.007	27104
812.148	27180
812.29	27272
812.431	27496
812.573	27545
812.714	27690
812.855	27762
812.997	27781
813.138	27994
813.279	27827
813.421	27770
813.562	27717
813.703	27393
813.845	27504
813.986	27123
814.127	27043
814.268	26864
814.41	26838
814.551	26990
814.692	26906
814.833	26754
814.974	26838
815.115	26849
815.256	26853
815.397	26807
815.539	26815
815.68	26530
815.821	26499
815.962	26682
816.103	26636
816.244	26495
816.385	26488
816.526	26404
816.666	26396
816.807	26153
816.948	26191
817.089	26282
817.23	26210
817.371	26267
817.512	26176
817.653	26058
817.793	26046
817.934	26138
818.075	26046
818.216	26088
818.356	26107
818.497	26084
818.638	25879
818.778	26001
818.919	25875
819.06	26024
819.2	25963
819.341	26084
819.481	26145
819.622	26168
819.762	26423
819.903	26594
820.043	26381
820.184	26214
820.324	26244
820.465	26210
820.605	26183
820.746	26225
820.886	26130
821.026	26233
821.167	26157
821.307	26423
821.447	26134
821.588	26119
821.728	25966
821.868	25868
822.008	25693
822.149	25666
822.289	25582
822.429	25285
822.569	25278
822.709	25392
822.849	25084
822.99	25202
823.13	25164
823.27	25107
823.41	24882
823.55	24825
823.69	24928
823.83	24939
823.97	24852
824.11	24753
824.25	24681
824.389	24684
824.529	24928
824.669	24772
824.809	24848
824.949	24772
825.089	24916
825.228	24730
825.368	24627
825.508	24574
825.648	24608
825.787	24620
825.927	24513
826.067	24547
826.206	24673
826.346	24547
826.485	24601
826.625	24658
826.765	24722
826.904	24738
827.044	24365
827.183	24399
827.323	24311
827.462	24418
827.601	24437
827.741	24327
827.88	24418
828.02	24087
828.159	24327
828.298	24300
828.437	24399
828.577	24277
828.716	24414
828.855	24292
828.994	24049
829.134	23961
829.273	24186
829.412	24041
829.551	23999
829.69	24072
829.829	24136
829.968	24136
830.107	24064
830.246	24125
830.385	24003
830.524	23954
830.663	23817
830.802	23802
830.941	23634
831.08	23589
831.219	23809
831.357	23707
831.496	23859
831.635	23703
831.774	23554
831.913	23543
832.051	23478
832.19	23509
832.329	23490
832.467	23391
832.606	23261
832.744	23311
832.883	23398
833.022	23292
833.16	23322
833.299	23410
833.437	23387
833.576	23459
833.714	23398
833.852	23410
833.991	23448
834.129	23501
834.267	23493
834.406	23349
834.544	23311
834.682	23417
834.821	23395
834.959	23516
835.097	23345
835.235	23425
835.373	23414
835.511	23296
835.65	23318
835.788	23239
835.926	23117
836.064	23010
836.202	23136
836.34	23246
836.478	23318
836.615	23204
836.753	23212
836.891	23337
837.029	23391
837.167	23136
837.305	23174
837.443	23022
837.58	23044
837.718	23151
837.856	23090
837.993	22824
838.131	23113
838.269	22923
838.406	22927
838.544	22896
838.681	22706
838.819	22691
838.956	22565
839.094	22622
839.231	22561
839.369	22721
839.506	22949
839.643	22767
839.781	22622
839.918	22561
840.055	22561
840.193	22478
840.33	22508
840.467	22424
840.604	22478
840.742	22733
840.879	22314
841.016	22322
841.153	22333
841.29	22584
841.427	22531
841.564	22535
841.701	22417
841.838	22504
841.975	22341
842.112	22314
842.249	22322
842.385	22226
842.522	22413
842.659	22211
842.796	22192
842.933	22325
843.069	22242
843.206	22185
843.343	22348
843.479	22268
843.616	22257
843.752	22059
843.889	22120
844.025	22215
844.162	22036
844.298	22070
844.435	22101
844.571	21987
844.708	22055
844.844	22200
844.98	22173
845.117	22090
845.253	21945
845.389	21945
845.525	21789
845.661	21926
845.798	21720
845.934	21755
846.07	21675
846.206	21785
846.342	21892
846.478	21663
846.614	21603
846.75	21462
846.886	21515
847.022	21523
847.158	21599
847.294	21401
847.429	21595
847.565	21496
847.701	21751
847.837	21222
847.972	21180
848.108	21370
848.244	21283
848.379	21291
848.515	21024
848.65	21089
848.786	21089
848.921	21222
849.057	21192
849.192	21142
849.328	21081
849.463	21077
849.598	21127
849.734	21058
849.869	21005
850.004	20838
850.14	20769
850.275	20872
850.41	20655
850.545	20902
850.68	20727
850.815	20788
850.95	20792
851.085	21089
851.22	20872
851.355	20876
851.49	20857
851.625	20883
851.76	20826
851.895	20743
852.03	20815
852.165	20933
852.299	20982
852.434	20910
852.569	20880
852.703	20849
852.838	20906
852.973	21081
853.107	20941
853.242	20815
853.376	20750
853.511	20518
853.645	20708
853.78	20743
853.914	20636
854.048	20564
854.183	20701
854.317	20746
854.451	20800
854.585	20625
854.72	20682
854.854	20804
854.988	20587
855.122	20682
855.256	20480
855.39	20727
855.524	20724
855.658	20678
855.792	20735
855.926	20606
856.06	20697
856.194	20807
856.327	20701
856.461	20621
856.595	20640
856.729	20613
856.862	20689
856.996	20743
857.13	20807
857.263	20743
857.397	20769
857.53	20693
857.664	20754
857.797	20792
857.931	20872
858.064	20762
858.197	20769
858.331	20602
858.464	20693
858.597	20545
858.731	20617
858.864	20629
858.997	20552
859.13	20697
859.263	20765
859.396	20902
859.529	20724
859.662	20655
859.795	20701
859.928	20606
860.061	20887
860.194	20937
860.327	20712
860.46	20708
860.592	20796
860.725	20876
860.858	20842
860.99	20693
861.123	20674
861.256	20587
861.388	20659
861.521	21241
861.653	20556
861.786	20457
861.918	20431
862.05	20629
862.183	20571
862.315	20739
862.447	20655
862.58	20655
862.712	20446
862.844	20298
862.976	20469
863.108	20446
863.24	20693
863.372	20412
863.504	20450
863.636	20393
863.768	20450
863.9	20450
864.032	20355
864.164	20324
864.296	20408
864.428	20526
864.559	20320
864.691	20374
864.823	20374
864.954	20366
865.086	20347
865.217	20328
865.349	20233
865.48	20191
865.612	20355
865.743	20549
865.875	20271
866.006	20271
866.137	20275
866.269	20317
866.4	20240
866.531	20202
866.662	20183
866.793	20256
866.924	20199
867.055	20229
867.186	20332
867.317	20218
867.448	20221
867.579	20092
867.71	20149
867.841	20164
867.972	20336
868.103	20199
868.233	20195
868.364	20263
868.495	20404
868.625	20476
868.756	20575
868.886	20377
869.017	20419
869.147	20545
869.278	20541
869.408	20495
869.539	20484
869.669	20549
869.799	20644
869.929	20731
870.06	20560
870.19	20731
870.32	20640
870.45	20807
870.58	20815
870.71	20956
870.84	21005
870.97	20834
871.1	20918
871.23	21074
871.36	21036
871.489	20937
871.619	21119
871.749	21119
871.879	21154
872.008	21138
872.138	20902
872.267	21154
872.397	21127
872.526	20819
872.656	20796
872.785	20918
872.915	21104
873.044	21272
873.173	21036
873.303	21138
873.432	21192
873.561	21157
873.69	21207
873.819	21157
873.948	21161
874.077	21142
874.206	21138
874.335	21081
874.464	21241
874.593	21340
874.722	21268
874.851	21389
874.979	21370
875.108	21332
875.237	21264
875.365	21195
875.494	21226
875.623	21370
875.751	21389
875.88	21329
876.008	21564
876.136	21431
876.265	21781
876.393	21838
876.521	21755
876.65	21690
876.778	21739
876.906	21739
877.034	21713
877.162	21797
877.29	21701
877.418	21686
877.546	21766
877.674	21739
877.802	21675
877.93	21781
878.058	21580
878.185	21553
878.313	21610
878.441	21682
878.568	21519
878.696	21538
878.824	21648
878.951	21808
879.079	21854
879.206	22029
879.333	21850
879.461	21686
879.588	21778
879.715	21838
879.842	21994
879.97	21861
880.097	21443
880.224	21500
880.351	21713
880.478	21473
880.605	21485
880.732	21492
880.859	21774
880.986	21511
881.112	21595
881.239	21500
881.366	21256
881.493	21218
881.619	21131
881.746	21169
881.872	21043
881.999	21028
882.125	21108
882.252	21051
882.378	21043
882.505	21081
882.631	21036
882.757	20861
882.883	20769
883.01	20792
883.136	20876
883.262	20746
883.388	20632
883.514	20842
883.64	20781
883.766	20701
883.892	20617
884.018	20568
884.143	20731
884.269	20731
884.395	20571
884.52	20469
884.646	20465
884.772	20465
884.897	20385
885.023	20381
885.148	20533
885.274	20644
885.399	20587
885.524	20446
885.65	20461
885.775	20473
885.9	20541
886.025	20526
886.15	20575
886.275	20473
886.4	20473
886.525	20473
886.65	20339
886.775	20400
886.9	20564
887.025	20686
887.149	20317
887.274	20267
887.399	20130
887.523	20240
887.648	20362
887.773	20161
887.897	20358
888.021	20248
888.146	20149
888.27	20412
888.395	20370
888.519	20172
888.643	20339
888.767	20263
888.891	20130
889.015	20005
889.139	20096
889.263	20111
889.387	20084
889.511	20218
889.635	20149
889.759	19947
889.883	19982
890.006	19997
890.13	20100
890.254	20035
890.377	19997
890.501	19818
890.624	19776
890.748	19871
890.871	19655
890.995	19613
891.118	19548
891.241	19635
891.364	19643
891.488	19772
891.611	19689
891.734	19632
891.857	19723
891.98	19681
892.103	19582
892.226	19655
892.349	19616
892.471	19422
892.594	19529
892.717	19529
892.839	19540
892.962	19605
893.085	19666
893.207	19506
893.33	19441
893.452	19518
893.575	19518
893.697	19563
893.819	19685
893.941	19639
894.064	19658
894.186	19567
894.308	19312
894.43	19620
894.552	19723
894.674	19639
894.796	19369
894.918	19559
895.04	19521
895.161	19651
895.283	19578
895.405	19487
895.526	19628
895.648	19472
895.769	19487
895.891	19590
896.012	19662
896.134	19476
896.255	19578
896.376	19491
896.498	19544
896.619	19582
896.74	19525
896.861	19605
896.982	19791
897.103	19928
897.224	19864
897.345	19757
897.466	19670
897.587	19738
897.708	19837
897.828	19715
897.949	19689
898.07	19639
898.19	19681
898.311	19906
898.431	19609
898.552	19719
898.672	19799
898.792	19868
898.913	19727
899.033	19647
899.153	19521
899.273	19396
899.393	19548
899.513	19552
899.633	19529
899.753	19556
899.873	19381
899.993	19620
900.113	19502
900.232	19582
900.352	19396
900.472	19274
900.591	19270
900.711	19312
900.83	19312
900.95	19483
901.069	19480
901.189	19217
901.308	18973
901.427	19000
901.546	18920
901.665	18954
901.784	18966
901.904	18829
902.023	18692
902.141	18456
902.26	18422
902.379	18536
902.498	18517
902.617	18445
902.735	18407
902.854	18391
902.973	18232
903.091	18190
903.21	18121
903.328	18106
903.446	17996
903.565	17878
903.683	17901
903.801	17843
903.919	17939
904.038	17832
904.156	17741
904.274	17714
904.392	17661
904.51	17634
904.627	17687
904.745	17703
904.863	17748
904.981	17486
905.098	17353
905.216	17440
905.334	17379
905.451	17269
905.569	17376
905.686	17368
905.803	17284
905.921	17162
906.038	17223
906.155	17189
906.272	16980
906.389	17018
906.506	16862
906.623	16881
906.74	16995
906.857	16805
906.974	16744
907.091	17052
907.208	17064
907.324	16953
907.441	16744
907.557	16702
907.674	16733
907.79	16561
907.907	16584
908.023	16558
908.139	16691
908.256	16565
908.372	16466
908.488	16440
908.604	16386
908.72	16382
908.836	16314
908.952	16272
909.068	16424
909.184	16394
909.3	16284
909.415	16371
909.531	16329
909.647	16147
909.762	16010
909.878	16017
909.993	15983
910.108	15945
910.224	15968
910.339	15983
910.454	15956
910.57	15793
910.685	15819
910.8	16101
910.915	16101
911.03	15880
911.145	15679
911.259	15656
911.374	15656
911.489	15625
911.604	15519
911.718	15397
911.833	15447
911.947	15268
912.062	15131
912.176	15492
912.291	15351
912.405	15386
912.519	15545
912.633	15606
912.748	15454
912.862	15351
912.976	15287
913.09	15161
913.204	15188
913.318	15260
913.431	15378
913.545	15321
913.659	15370
913.772	15222
913.886	15097
914	15032
914.113	15047
914.226	15116
914.34	15085
914.453	14891
914.566	15017
914.68	14857
914.793	14910
914.906	14701
915.019	14674
915.132	14613
915.245	14575
915.358	14621
915.47	14568
915.583	14587
915.696	14705
915.809	14739
915.921	14769
916.034	14579
916.146	14503
916.259	14575
916.371	14606
916.483	14587
916.595	14492
916.708	14488
916.82	14434
916.932	14492
917.044	14415
917.156	14438
917.268	14233
917.38	14347
917.491	14309
917.603	14244
917.715	14377
917.826	14366
917.938	14157
918.049	14187
918.161	14229
918.272	14423
918.384	14343
918.495	14259
918.606	14069
918.717	14012
918.828	14180
918.939	14065
919.05	14005
919.161	14107
919.272	13925
919.383	13925
919.494	14229
919.604	14256
919.715	14126
919.826	13913
919.936	14043
920.047	14145
920.157	14145
920.267	14210
920.378	14119
920.488	13997
920.598	14126
920.708	14332
920.818	14248
920.928	14149
921.038	14221
921.148	14199
921.258	14058
921.368	13909
921.477	13875
921.587	13746
921.697	13605
921.806	13772
921.916	13689
922.025	13441
922.134	13419
922.244	13453
922.353	13506
922.462	13388
922.571	13240
922.68	13103
922.789	13103
922.898	13091
923.007	13027
923.116	13168
923.224	13099
923.333	13046
923.442	12962
923.55	13038
923.659	13012
923.767	12856
923.876	12829
923.984	13023
924.092	12837
924.201	12875
924.309	12878
924.417	12932
924.525	12802
924.633	12840
924.741	13662
924.849	12623
924.956	12722
925.064	12623
925.172	12540
925.279	12509
925.387	12566
925.494	12528
925.602	12658
925.709	12612
925.816	12448
925.924	12479
926.031	12566
926.138	12483
926.245	12483
926.352	12422
926.459	12452
926.566	12578
926.673	12380
926.779	12338
926.886	12213
926.993	12152
927.099	12102
927.206	12064
927.312	11992
927.419	12182
927.525	12117
927.631	12163
927.737	12095
927.843	11961
927.95	11866
928.056	11897
928.162	12011
928.267	12015
928.373	12623
928.479	12087
928.585	11809
928.69	11965
928.796	11908
928.901	11809
929.007	11532
929.112	11935
929.218	11737
929.323	11733
929.428	11596
929.533	11843
929.638	11608
929.743	11581
929.848	11657
929.953	11657
930.058	11505
930.163	11372
930.267	11463
930.372	11551
930.477	11307
930.581	11562
930.685	11379
930.79	11239
930.894	11254
930.998	11269
931.103	11459
931.207	10999
931.311	10904
931.415	10847
931.519	10702
931.623	10664
