Data from test_V78500241_1180.txt Node
Date: Fri Mar 25 15:18:04 CST 2022
User: usil
Spectrometer: V785-0024
Trigger mode: 0
Integration Time (sec): 4.000000E-1
Scans to average: 1
Nonlinearity correction enabled: false
Boxcar width: 0
Storing dark spectrum: false
XAxis mode: Wavelengths
Number of Pixels in Spectrum: 1024
>>>>>Begin Spectral Data<<<<<
801.071	27846
801.214	27766
801.356	27427
801.499	27488
801.641	27397
801.783	27351
801.926	27249
802.068	27511
802.211	27241
802.353	27176
802.496	27055
802.638	26971
802.78	26864
802.923	26960
803.065	26929
803.208	26963
803.35	27028
803.492	27256
803.635	26963
803.777	27047
803.919	27184
804.061	27332
804.204	27298
804.346	27104
804.488	27047
804.63	27268
804.773	27222
804.915	27252
805.057	27298
805.199	27112
805.341	27359
805.483	27473
805.626	27310
805.768	27119
805.91	27386
806.052	27363
806.194	27211
806.336	27431
806.478	27382
806.62	27386
806.762	27545
806.904	27564
807.046	27892
807.188	27713
807.33	27755
807.472	27739
807.614	27656
807.756	27690
807.898	27523
808.04	27549
808.182	27709
808.324	27549
808.465	27717
808.607	27694
808.749	27869
808.891	28017
809.033	28082
809.174	27987
809.316	27941
809.458	27774
809.6	27880
809.741	28067
809.883	28002
810.025	28211
810.166	28272
810.308	28257
810.45	28177
810.591	28162
810.733	28017
810.875	27945
811.016	27736
811.158	27876
811.299	27956
811.441	28006
811.582	28188
811.724	27956
811.865	27838
812.007	27991
812.148	27850
812.29	27975
812.431	28021
812.573	28299
812.714	28493
812.855	28447
812.997	28535
813.138	28691
813.279	28664
813.421	28485
813.562	28455
813.703	28257
813.845	28124
813.986	28044
814.127	27808
814.268	27526
814.41	27648
814.551	27564
814.692	27690
814.833	27660
814.974	27545
815.115	27671
815.256	27481
815.397	27443
815.539	27473
815.68	27481
815.821	27310
815.962	27374
816.103	27363
816.244	27283
816.385	27313
816.526	27207
816.666	26971
816.807	26842
816.948	27081
817.089	27020
817.23	27055
817.371	26902
817.512	26845
817.653	26925
817.793	26902
817.934	26925
818.075	26864
818.216	26940
818.356	26891
818.497	26769
818.638	26758
818.778	26689
818.919	26632
819.06	26800
819.2	26861
819.341	27001
819.481	26861
819.622	27013
819.762	27321
819.903	27169
820.043	27058
820.184	27081
820.324	27001
820.465	27108
820.605	26929
820.746	27131
820.886	26861
821.026	27119
821.167	26956
821.307	26967
821.447	26880
821.588	26918
821.728	26651
821.868	26590
822.008	26328
822.149	26381
822.289	26347
822.429	26096
822.569	26001
822.709	25955
822.849	25830
822.99	25947
823.13	25879
823.27	25791
823.41	25731
823.55	25594
823.69	25898
823.83	25719
823.97	25632
824.11	25487
824.25	25590
824.389	25559
824.529	25693
824.669	25529
824.809	25788
824.949	25651
825.089	25590
825.228	25700
825.368	25346
825.508	25441
825.648	25441
825.787	25510
825.927	25499
826.067	25362
826.206	25403
826.346	25506
826.485	25434
826.625	25304
826.765	25479
826.904	25460
827.044	25209
827.183	25247
827.323	25259
827.462	25145
827.601	25183
827.741	25148
827.88	25103
828.02	25057
828.159	25171
828.298	25148
828.437	25118
828.577	24966
828.716	25263
828.855	24920
828.994	24909
829.134	24920
829.273	24901
829.412	24837
829.551	24798
829.69	24856
829.829	24916
829.968	24856
830.107	25046
830.246	24913
830.385	24741
830.524	24703
830.663	24650
830.802	24559
830.941	24540
831.08	24445
831.219	24490
831.357	24532
831.496	24703
831.635	24403
831.774	24448
831.913	24494
832.051	24315
832.19	24171
832.329	24270
832.467	24182
832.606	24216
832.744	24053
832.883	24167
833.022	24076
833.16	24201
833.299	24224
833.437	24228
833.576	24144
833.714	24277
833.852	24380
833.991	24148
834.129	24319
834.267	24228
834.406	24114
834.544	24190
834.682	24155
834.821	24205
834.959	24228
835.097	24194
835.235	24201
835.373	24133
835.511	24258
835.65	23984
835.788	24072
835.926	23984
836.064	23870
836.202	23920
836.34	24030
836.478	24148
836.615	24083
836.753	24072
836.891	24235
837.029	24022
837.167	23980
837.305	23897
837.443	24011
837.58	23965
837.718	23939
837.856	23996
837.993	23855
838.131	24076
838.269	23885
838.406	23828
838.544	23745
838.681	23467
838.819	23695
838.956	23387
839.094	23387
839.231	23383
839.369	23562
839.506	23718
839.643	23680
839.781	23429
839.918	23204
840.055	23349
840.193	23334
840.33	23235
840.467	23376
840.604	23421
840.742	23520
840.879	23181
841.016	23280
841.153	23250
841.29	23231
841.427	23212
841.564	23269
841.701	23246
841.838	23132
841.975	23155
842.112	23250
842.249	23170
842.385	22957
842.522	23273
842.659	23132
842.796	23136
842.933	23067
843.069	23037
843.206	22828
843.343	23086
843.479	23048
843.616	23083
843.752	22892
843.889	22908
844.025	23048
844.162	22831
844.298	22900
844.435	22790
844.571	22778
844.708	22801
844.844	22881
844.98	23136
845.117	22911
845.253	22721
845.389	22618
845.525	22656
845.661	22736
845.798	22432
845.934	22664
846.07	22470
846.206	22569
846.342	22748
846.478	22519
846.614	22363
846.75	22287
846.886	22268
847.022	22318
847.158	22299
847.294	22333
847.429	22424
847.565	22329
847.701	22493
847.837	22017
847.972	22101
848.108	22109
848.244	22078
848.379	21888
848.515	21762
848.65	21789
848.786	22010
848.921	21808
849.057	21937
849.192	22048
849.328	21918
849.463	21949
849.598	21808
849.734	21812
849.869	21789
850.004	21599
850.14	21743
850.275	21766
850.41	21583
850.545	21530
850.68	21542
850.815	21660
850.95	21739
851.085	21709
851.22	21800
851.355	21675
851.49	21526
851.625	21561
851.76	21603
851.895	21530
852.03	21599
852.165	21690
852.299	21759
852.434	21652
852.569	21686
852.703	21599
852.838	21675
852.973	21751
853.107	21808
853.242	21545
853.376	21534
853.511	21443
853.645	21313
853.78	21450
853.914	21466
854.048	21428
854.183	21466
854.317	21424
854.451	21717
854.585	21473
854.72	21401
854.854	21656
854.988	21389
855.122	21393
855.256	21382
855.39	21545
855.524	21523
855.658	21576
855.792	21485
855.926	21439
856.06	21530
856.194	21466
856.327	21462
856.461	21359
856.595	21401
856.729	21374
856.862	21526
856.996	21576
857.13	21481
857.263	21576
857.397	21545
857.53	21393
857.664	21534
857.797	21580
857.931	21576
858.064	21526
858.197	21576
858.331	21458
858.464	21431
858.597	21359
858.731	21424
858.864	21355
858.997	21447
859.13	21561
859.263	21473
859.396	21485
859.529	21393
859.662	21332
859.795	21416
859.928	21412
860.061	21713
860.194	21724
860.327	21599
860.46	21447
860.592	21511
860.725	21637
860.858	21519
860.99	21477
861.123	21378
861.256	21466
861.388	21519
861.521	22341
861.653	21321
861.786	21135
861.918	21211
862.05	21298
862.183	21458
862.315	21412
862.447	21504
862.58	21336
862.712	21233
862.844	21188
862.976	21256
863.108	21180
863.24	21591
863.372	21051
863.504	21165
863.636	21142
863.768	21089
863.9	21100
864.032	21108
864.164	21055
864.296	21157
864.428	21359
864.559	21241
864.691	21077
864.823	21135
864.954	21104
865.086	21096
865.217	21051
865.349	20918
865.48	21176
865.612	21058
865.743	21226
865.875	21032
866.006	21001
866.137	21093
866.269	21024
866.4	21013
866.531	21055
866.662	21020
866.793	20963
866.924	21039
867.055	21024
867.186	20967
867.317	20933
867.448	20834
867.579	20963
867.71	20861
867.841	20975
867.972	21112
868.103	20864
868.233	21001
868.364	20956
868.495	21074
868.625	21249
868.756	21313
868.886	21127
869.017	21298
869.147	21355
869.278	21249
869.408	21329
869.539	21252
869.669	21294
869.799	21291
869.929	21355
870.06	21473
870.19	21561
870.32	21454
870.45	21477
870.58	21629
870.71	21667
870.84	21732
870.97	21587
871.1	21675
871.23	21808
871.36	21766
871.489	21705
871.619	21876
871.749	21960
871.879	21915
872.008	21812
872.138	21774
872.267	21739
872.397	21694
872.526	21618
872.656	21671
872.785	21549
872.915	21865
873.044	21884
873.173	21903
873.303	21930
873.432	21869
873.561	21926
873.69	21915
873.819	21865
873.948	21926
874.077	21869
874.206	21816
874.335	21842
874.464	21964
874.593	21880
874.722	21991
874.851	22112
874.979	22082
875.108	22185
875.237	22082
875.365	21983
875.494	22002
875.623	22128
875.751	22044
875.88	22147
876.008	22173
876.136	22223
876.265	22344
876.393	22500
876.521	22481
876.65	22493
876.778	22455
876.906	22421
877.034	22535
877.162	22478
877.29	22291
877.418	22519
877.546	22375
877.674	22493
877.802	22519
877.93	22371
878.058	22310
878.185	22379
878.313	22348
878.441	22394
878.568	22291
878.696	22249
878.824	22409
878.951	22462
879.079	22596
879.206	22740
879.333	22588
879.461	22424
879.588	22531
879.715	22554
879.842	22653
879.97	22405
880.097	22196
880.224	22177
880.351	22215
880.478	22204
880.605	22192
880.732	22139
880.859	22421
880.986	22268
881.112	22295
881.239	22154
881.366	21930
881.493	21789
881.619	21850
881.746	21778
881.872	21804
881.999	21846
882.125	21694
882.252	21770
882.378	21690
882.505	22025
882.631	21504
882.757	21507
882.883	21553
883.01	21606
883.136	21450
883.262	21389
883.388	21344
883.514	21576
883.64	21587
883.766	21408
883.892	21249
884.018	21249
884.143	21500
884.269	21408
884.395	21256
884.52	21161
884.646	21264
884.772	20979
884.897	21070
885.023	21249
885.148	21195
885.274	21298
885.399	21161
885.524	21108
885.65	21180
885.775	21161
885.9	21062
886.025	21218
886.15	21222
886.275	21096
886.4	21036
886.525	21066
886.65	21070
886.775	20960
886.9	21272
887.025	21374
887.149	21070
887.274	20868
887.399	20921
887.523	20944
887.648	20872
887.773	20838
887.897	21089
888.021	20880
888.146	20857
888.27	20929
888.395	20906
888.519	20880
888.643	20979
888.767	20948
888.891	20785
889.015	20686
889.139	20727
889.263	20648
889.387	20887
889.511	20910
889.635	20842
889.759	20686
889.883	20689
890.006	20769
890.13	20727
890.254	20663
890.377	20621
890.501	20434
890.624	20434
890.748	20473
890.871	20511
890.995	20305
891.118	20339
891.241	20294
891.364	20309
891.488	20423
891.611	20381
891.734	20305
891.857	20358
891.98	20225
892.103	20415
892.226	20313
892.349	20259
892.471	20092
892.594	20191
892.717	20168
892.839	20153
892.962	20199
893.085	20233
893.207	20164
893.33	20149
893.452	20138
893.575	20214
893.697	20176
893.819	20332
893.941	20408
894.064	20324
894.186	20199
894.308	20130
894.43	20210
894.552	20225
894.674	20191
894.796	20081
894.918	20126
895.04	20126
895.161	20275
895.283	20149
895.405	20058
895.526	20134
895.648	20199
895.769	20172
895.891	20237
896.012	20233
896.134	20176
896.255	20199
896.376	20168
896.498	20305
896.619	20309
896.74	20161
896.861	20187
896.982	20415
897.103	20636
897.224	20366
897.345	20320
897.466	20343
897.587	20389
897.708	20446
897.828	20438
897.949	20400
898.07	20210
898.19	20313
898.311	20385
898.431	20271
898.552	20252
898.672	20473
898.792	20499
898.913	20366
899.033	20240
899.153	20153
899.273	20084
899.393	20107
899.513	20263
899.633	20088
899.753	20153
899.873	20043
899.993	20054
900.113	20024
900.232	20142
900.352	19936
900.472	19974
900.591	19917
900.711	19963
900.83	19925
900.95	20119
901.069	19951
901.189	19841
901.308	19616
901.427	19400
901.546	19533
901.665	19601
901.784	19495
901.904	19403
902.023	19206
902.141	19118
902.26	18924
902.379	19126
902.498	18966
902.617	18954
902.735	19057
902.854	19004
902.973	18848
903.091	18688
903.21	18650
903.328	18555
903.446	18654
903.565	18597
903.683	18551
903.801	18433
903.919	18384
904.038	18494
904.156	18292
904.274	18334
904.392	18247
904.51	18140
904.627	18102
904.745	18194
904.863	18289
904.981	18213
905.098	17824
905.216	17863
905.334	18026
905.451	17973
905.569	17908
905.686	17935
905.803	17977
905.921	17695
906.038	17878
906.155	17771
906.272	17596
906.389	17630
906.506	17421
906.623	17421
906.74	17425
906.857	17376
906.974	17337
907.091	17471
907.208	17611
907.324	17539
907.441	17322
907.557	17166
907.674	17170
907.79	17246
907.907	17109
908.023	17162
908.139	17143
908.256	17155
908.372	17064
908.488	17109
908.604	16946
908.72	16908
908.836	16862
908.952	16869
909.068	16904
909.184	16911
909.3	16911
909.415	16885
909.531	16790
909.647	16740
909.762	16516
909.878	16580
909.993	16592
910.108	16569
910.224	16554
910.339	16531
910.454	16455
910.57	16348
910.685	16409
910.8	16664
910.915	16668
911.03	16424
911.145	16284
911.259	16211
911.374	16325
911.489	16131
911.604	16059
911.718	15846
911.833	15907
911.947	15953
912.062	15720
912.176	15873
912.291	15915
912.405	15831
912.519	16055
912.633	16021
912.748	15968
912.862	15838
912.976	15793
913.09	15622
913.204	15686
913.318	15690
913.431	15812
913.545	15842
913.659	15808
913.772	15717
913.886	15625
914	15431
914.113	15656
914.226	15618
914.34	15648
914.453	15344
914.566	15504
914.68	15447
914.793	15412
914.906	15222
915.019	15138
915.132	15077
915.245	15051
915.358	15157
915.47	15207
915.583	15123
915.696	15150
915.809	15298
915.921	15298
916.034	15195
916.146	15062
916.259	14941
916.371	15058
916.483	14986
916.595	14948
916.708	15013
916.82	15043
916.932	14910
917.044	14883
917.156	14914
917.268	14823
917.38	14834
917.491	14762
917.603	14792
917.715	14876
917.826	14868
917.938	14644
918.049	14758
918.161	14640
918.272	14826
918.384	14880
918.495	14701
918.606	14514
918.717	14495
918.828	14545
918.939	14632
919.05	14446
919.161	14495
919.272	14400
919.383	14450
919.494	14545
919.604	14826
919.715	14590
919.826	14400
919.936	14549
920.047	14651
920.157	14549
920.267	14651
920.378	14499
920.488	14507
920.598	14632
920.708	14788
920.818	14632
920.928	14564
921.038	14762
921.148	14815
921.258	14385
921.368	14396
921.477	14294
921.587	14309
921.697	14153
921.806	14313
921.916	14084
922.025	13947
922.134	13940
922.244	13875
922.353	13921
922.462	13742
922.571	13719
922.68	13590
922.789	13582
922.898	13556
923.007	13499
923.116	13525
923.224	13491
923.333	13518
923.442	13400
923.55	13312
923.659	13407
923.767	13369
923.876	13289
923.984	13514
924.092	13308
924.201	13327
924.309	13365
924.417	13301
924.525	13194
924.633	13263
924.741	14202
924.849	12996
924.956	13137
925.064	12951
925.172	12993
925.279	12993
925.387	12958
925.494	12989
925.602	13099
925.709	13065
925.816	12875
925.924	12932
926.031	12973
926.138	12817
926.245	12996
926.352	12829
926.459	12848
926.566	13019
926.673	12814
926.779	12715
926.886	12673
926.993	12547
927.099	12582
927.206	12490
927.312	12513
927.419	12559
927.525	12589
927.631	12532
927.737	12372
927.843	12296
927.95	12315
928.056	12296
928.162	12372
928.267	12384
928.373	12867
928.479	12391
928.585	12098
928.69	12327
928.796	12277
928.901	12201
929.007	12129
929.112	12201
929.218	12186
929.323	12197
929.428	12194
929.533	12247
929.638	11950
929.743	12022
929.848	12083
929.953	12026
930.058	11901
930.163	11726
930.267	11809
930.372	11885
930.477	11741
930.581	11901
930.685	11859
930.79	11688
930.894	11718
930.998	11630
931.103	11733
931.207	11353
931.311	11307
931.415	11178
931.519	11090
931.623	10987
