Data from test_V78500241_2609.txt Node
Date: Fri Mar 25 15:28:01 CST 2022
User: usil
Spectrometer: V785-0024
Trigger mode: 0
Integration Time (sec): 4.000000E-1
Scans to average: 1
Nonlinearity correction enabled: false
Boxcar width: 0
Storing dark spectrum: false
XAxis mode: Wavelengths
Number of Pixels in Spectrum: 1024
>>>>>Begin Spectral Data<<<<<
801.071	27089
801.214	27085
801.356	26994
801.499	26883
801.641	26864
801.783	26609
801.926	26804
802.068	26571
802.211	26625
802.353	26530
802.496	26427
802.638	26309
802.78	26343
802.923	26221
803.065	26221
803.208	26347
803.35	26465
803.492	26446
803.635	26613
803.777	26301
803.919	26492
804.061	26899
804.204	26549
804.346	26408
804.488	26484
804.63	26545
804.773	26533
804.915	26404
805.057	26621
805.199	26564
805.341	26640
805.483	26655
805.626	26602
805.768	26560
805.91	26686
806.052	26617
806.194	26571
806.336	26910
806.478	26651
806.62	26560
806.762	26701
806.904	26853
807.046	27146
807.188	27176
807.33	27207
807.472	27104
807.614	27024
807.756	26986
807.898	26864
808.04	26754
808.182	26796
808.324	26887
808.465	26960
808.607	27024
808.749	27249
808.891	27268
809.033	27359
809.174	27298
809.316	27051
809.458	27093
809.6	27154
809.741	27237
809.883	27424
810.025	27462
810.166	27477
810.308	27504
810.45	27553
810.591	27294
810.733	27287
810.875	27150
811.016	27135
811.158	27279
811.299	27367
811.441	27420
811.582	27245
811.724	27310
811.865	27100
812.007	27165
812.148	27036
812.29	27294
812.431	27367
812.573	27439
812.714	27538
812.855	27766
812.997	27709
813.138	27899
813.279	27835
813.421	27564
813.562	27663
813.703	27469
813.845	27237
813.986	27108
814.127	27058
814.268	26914
814.41	26933
814.551	26906
814.692	26902
814.833	26686
814.974	26883
815.115	26887
815.256	26655
815.397	26861
815.539	26689
815.68	26617
815.821	26518
815.962	26644
816.103	26571
816.244	26488
816.385	26522
816.526	26469
816.666	26187
816.807	26088
816.948	26225
817.089	26191
817.23	26218
817.371	26100
817.512	26115
817.653	26161
817.793	26088
817.934	26065
818.075	26035
818.216	26206
818.356	26145
818.497	25974
818.638	25788
818.778	25917
818.919	25936
819.06	25963
819.2	26024
819.341	26138
819.481	26157
819.622	26221
819.762	26465
819.903	26415
820.043	26377
820.184	26191
820.324	26168
820.465	26309
820.605	26221
820.746	26077
820.886	26024
821.026	26081
821.167	26092
821.307	26176
821.447	26058
821.588	26111
821.728	25864
821.868	25700
822.008	25529
822.149	25548
822.289	25681
822.429	25346
822.569	25392
822.709	25194
822.849	25034
822.99	25244
823.13	25042
823.27	25042
823.41	24905
823.55	24677
823.69	24954
823.83	24981
823.97	24764
824.11	24806
824.25	24604
824.389	24783
824.529	24806
824.669	24692
824.809	24867
824.949	24791
825.089	24844
825.228	24817
825.368	24544
825.508	24540
825.648	24597
825.787	24513
825.927	24578
826.067	24673
826.206	24544
826.346	24604
826.485	24776
826.625	24665
826.765	24631
826.904	24669
827.044	24330
827.183	24258
827.323	24376
827.462	24369
827.601	24403
827.741	24384
827.88	24525
828.02	24224
828.159	24308
828.298	24273
828.437	24376
828.577	24194
828.716	24346
828.855	24171
828.994	24076
829.134	23996
829.273	23992
829.412	24003
829.551	23961
829.69	24018
829.829	24022
829.968	24098
830.107	24140
830.246	23999
830.385	23992
830.524	23942
830.663	23851
830.802	23752
830.941	23646
831.08	23592
831.219	23729
831.357	23684
831.496	23942
831.635	23577
831.774	23562
831.913	23520
832.051	23398
832.19	23307
832.329	23436
832.467	23288
832.606	23360
832.744	23223
832.883	23273
833.022	23330
833.16	23349
833.299	23391
833.437	23353
833.576	23356
833.714	23269
833.852	23379
833.991	23452
834.129	23482
834.267	23512
834.406	23436
834.544	23368
834.682	23372
834.821	23292
834.959	23520
835.097	23254
835.235	23376
835.373	23315
835.511	23315
835.65	23414
835.788	23341
835.926	23181
836.064	22915
836.202	22965
836.34	23185
836.478	23326
836.615	23273
836.753	23372
836.891	23379
837.029	23185
837.167	23094
837.305	23109
837.443	23189
837.58	23056
837.718	23178
837.856	23029
837.993	23113
838.131	23037
838.269	22911
838.406	22961
838.544	22809
838.681	22630
838.819	22759
838.956	22447
839.094	22706
839.231	22672
839.369	22778
839.506	23044
839.643	22877
839.781	22440
839.918	22508
840.055	22504
840.193	22584
840.33	22512
840.467	22542
840.604	22618
840.742	22911
840.879	22398
841.016	22554
841.153	22573
841.29	22660
841.427	22455
841.564	22474
841.701	22462
841.838	22363
841.975	22394
842.112	22504
842.249	22432
842.385	22265
842.522	22607
842.659	22451
842.796	22265
842.933	22196
843.069	22226
843.206	22226
843.343	22242
843.479	22310
843.616	22226
843.752	22169
843.889	22051
844.025	22162
844.162	22032
844.298	22029
844.435	22029
844.571	22010
844.708	22044
844.844	22101
844.98	22177
845.117	22200
845.253	21926
845.389	21975
845.525	21968
845.661	22021
845.798	21762
845.934	21743
846.07	21793
846.206	21720
846.342	21850
846.478	21789
846.614	21606
846.75	21408
846.886	21523
847.022	21549
847.158	21534
847.294	21481
847.429	21641
847.565	21424
847.701	21774
847.837	21203
847.972	21176
848.108	21272
848.244	21287
848.379	21157
848.515	21192
848.65	21138
848.786	21138
848.921	21024
849.057	21169
849.192	21226
849.328	21100
849.463	21005
849.598	20975
849.734	21119
849.869	21017
850.004	20845
850.14	20864
850.275	20804
850.41	20842
850.545	20773
850.68	20845
850.815	20861
850.95	20804
851.085	21039
851.22	20929
851.355	20864
851.49	20815
851.625	20880
851.76	20845
851.895	20750
852.03	20849
852.165	20937
852.299	20887
852.434	20986
852.569	20956
852.703	20857
852.838	20918
852.973	20918
853.107	20872
853.242	20743
853.376	20625
853.511	20613
853.645	20625
853.78	20823
853.914	20762
854.048	20693
854.183	20765
854.317	20693
854.451	20849
854.585	20693
854.72	20648
854.854	20758
854.988	20594
855.122	20651
855.256	20575
855.39	20587
855.524	20758
855.658	20880
855.792	20712
855.926	20674
856.06	20853
856.194	20754
856.327	20758
856.461	20712
856.595	20575
856.729	20674
856.862	20918
856.996	20708
857.13	20857
857.263	20902
857.397	20781
857.53	20807
857.664	20826
857.797	20788
857.931	20750
858.064	20773
858.197	20788
858.331	20693
858.464	20617
858.597	20613
858.731	20621
858.864	20735
858.997	20613
859.13	20678
859.263	20659
859.396	20838
859.529	20697
859.662	20606
859.795	20712
859.928	20670
860.061	20762
860.194	20937
860.327	20781
860.46	20708
860.592	20933
860.725	20921
860.858	20746
860.99	20632
861.123	20545
861.256	20533
861.388	20731
861.521	21367
861.653	20575
861.786	20594
861.918	20613
862.05	20579
862.183	20594
862.315	20590
862.447	20689
862.58	20514
862.712	20511
862.844	20358
862.976	20541
863.108	20598
863.24	20971
863.372	20320
863.504	20370
863.636	20286
863.768	20396
863.9	20366
864.032	20358
864.164	20355
864.296	20446
864.428	20446
864.559	20530
864.691	20473
864.823	20362
864.954	20400
865.086	20389
865.217	20400
865.349	20221
865.48	20313
865.612	20495
865.743	20438
865.875	20286
866.006	20168
866.137	20317
866.269	20355
866.4	20275
866.531	20309
866.662	20073
866.793	20294
866.924	20092
867.055	20278
867.186	20286
867.317	20256
867.448	20180
867.579	20183
867.71	20183
867.841	20199
867.972	20309
868.103	20336
868.233	20259
868.364	20404
868.495	20286
868.625	20518
868.756	20587
868.886	20385
869.017	20484
869.147	20644
869.278	20609
869.408	20530
869.539	20461
869.669	20587
869.799	20514
869.929	20606
870.06	20701
870.19	20769
870.32	20891
870.45	20906
870.58	20902
870.71	21043
870.84	20910
870.97	20815
871.1	20876
871.23	21081
871.36	21116
871.489	20986
871.619	21100
871.749	21070
871.879	21032
872.008	21096
872.138	21100
872.267	21146
872.397	20887
872.526	20853
872.656	20971
872.785	20902
872.915	21157
873.044	21135
873.173	21138
873.303	21199
873.432	21127
873.561	21188
873.69	21138
873.819	21047
873.948	21192
874.077	21169
874.206	21013
874.335	21055
874.464	21161
874.593	21256
874.722	21306
874.851	21412
874.979	21393
875.108	21340
875.237	21241
875.365	21272
875.494	21382
875.623	21416
875.751	21302
875.88	21355
876.008	21500
876.136	21492
876.265	21842
876.393	21842
876.521	21835
876.65	21797
876.778	21675
876.906	21610
877.034	21625
877.162	21671
877.29	21648
877.418	21690
877.546	21709
877.674	21755
877.802	21698
877.93	21724
878.058	21812
878.185	21587
878.313	21694
878.441	21606
878.568	21515
878.696	21629
878.824	21606
878.951	21797
879.079	21903
879.206	21880
879.333	21846
879.461	21732
879.588	21903
879.715	21880
879.842	22040
879.97	21861
880.097	21500
880.224	21485
880.351	21564
880.478	21538
880.605	21462
880.732	21473
880.859	21717
880.986	21610
881.112	21561
881.239	21389
881.366	21268
881.493	21207
881.619	21070
881.746	21127
881.872	20967
881.999	21089
882.125	21058
882.252	21154
882.378	21222
882.505	21173
882.631	21013
882.757	20937
882.883	20971
883.01	20788
883.136	20880
883.262	20712
883.388	20731
883.514	20819
883.64	20975
883.766	20842
883.892	20686
884.018	20648
884.143	20777
884.269	20960
884.395	20541
884.52	20480
884.646	20469
884.772	20275
884.897	20381
885.023	20571
885.148	20594
885.274	20621
885.399	20526
885.524	20457
885.65	20568
885.775	20492
885.9	20423
886.025	20678
886.15	20621
886.275	20511
886.4	20518
886.525	20484
886.65	20313
886.775	20415
886.9	20678
887.025	20693
887.149	20396
887.274	20301
887.399	20324
887.523	20248
887.648	20187
887.773	20218
887.897	20267
888.021	20248
888.146	20298
888.27	20275
888.395	20404
888.519	20313
888.643	20294
888.767	20210
888.891	20134
889.015	20130
889.139	20157
889.263	20084
889.387	20278
889.511	20161
889.635	20244
889.759	20046
889.883	20039
890.006	20161
890.13	20149
890.254	19887
890.377	20107
890.501	19940
890.624	19807
890.748	19970
890.871	19772
890.995	19537
891.118	19689
891.241	19689
891.364	19731
891.488	19753
891.611	19658
891.734	19578
891.857	19708
891.98	19662
892.103	19609
892.226	19647
892.349	19662
892.471	19415
892.594	19548
892.717	19529
892.839	19540
892.962	19616
893.085	19635
893.207	19620
893.33	19480
893.452	19422
893.575	19658
893.697	19487
893.819	19666
893.941	19772
894.064	19742
894.186	19453
894.308	19502
894.43	19670
894.552	19689
894.674	19624
894.796	19525
894.918	19502
895.04	19460
895.161	19567
895.283	19552
895.405	19548
895.526	19563
895.648	19578
895.769	19525
895.891	19670
896.012	19647
896.134	19674
896.255	19586
896.376	19476
896.498	19525
896.619	19765
896.74	19586
896.861	19620
896.982	19856
897.103	19940
897.224	19784
897.345	19860
897.466	19689
897.587	19776
897.708	19803
897.828	19894
897.949	19696
898.07	19666
898.19	19731
898.311	19902
898.431	19814
898.552	19685
898.672	19875
898.792	19818
898.913	19852
899.033	19791
899.153	19605
899.273	19449
899.393	19578
899.513	19658
899.633	19499
899.753	19670
899.873	19502
899.993	19620
900.113	19499
900.232	19480
900.352	19521
900.472	19373
900.591	19266
900.711	19392
900.83	19217
900.95	19487
901.069	19354
901.189	19183
901.308	19053
901.427	18989
901.546	18981
901.665	18951
901.784	18882
901.904	18825
902.023	18871
902.141	18551
902.26	18551
902.379	18521
902.498	18486
902.617	18407
902.735	18483
902.854	18445
902.973	18342
903.091	18209
903.21	18121
903.328	18144
903.446	18015
903.565	17973
903.683	17946
903.801	17908
903.919	17904
904.038	17851
904.156	17737
904.274	17752
904.392	17729
904.51	17653
904.627	17668
904.745	17802
904.863	17726
904.981	17551
905.098	17391
905.216	17337
905.334	17421
905.451	17410
905.569	17349
905.686	17444
905.803	17417
905.921	17220
906.038	17235
906.155	17159
906.272	17105
906.389	17166
906.506	16915
906.623	16953
906.74	16854
906.857	16767
906.974	16759
907.091	16938
907.208	17010
907.324	16889
907.441	16839
907.557	16558
907.674	16664
907.79	16565
907.907	16607
908.023	16664
908.139	16596
908.256	16565
908.372	16561
908.488	16554
908.604	16432
908.72	16337
908.836	16356
908.952	16322
909.068	16390
909.184	16535
909.3	16405
909.415	16371
909.531	16306
909.647	16082
909.762	16002
909.878	16013
909.993	16044
910.108	16082
910.224	15983
910.339	16093
910.454	16006
910.57	15857
910.685	15861
910.8	16101
910.915	16063
911.03	15941
911.145	15747
911.259	15713
911.374	15797
911.489	15610
911.604	15561
911.718	15466
911.833	15424
911.947	15458
912.062	15431
912.176	15424
912.291	15648
912.405	15458
912.519	15747
912.633	15606
912.748	15469
912.862	15443
912.976	15256
913.09	15207
913.204	15359
913.318	15283
913.431	15378
913.545	15363
913.659	15344
913.772	15230
913.886	15142
914	15093
914.113	15207
914.226	15233
914.34	15116
914.453	14861
914.566	15089
914.68	14952
914.793	14941
914.906	14705
915.019	14678
915.132	14644
915.245	14693
915.358	14640
915.47	14769
915.583	14693
915.696	14686
915.809	14781
915.921	14876
916.034	14632
916.146	14606
916.259	14594
916.371	14724
916.483	14655
916.595	14579
916.708	14484
916.82	14469
916.932	14499
917.044	14480
917.156	14473
917.268	14355
917.38	14374
917.491	14244
917.603	14431
917.715	14419
917.826	14473
917.938	14301
918.049	14248
918.161	14263
918.272	14389
918.384	14438
918.495	14286
918.606	14202
918.717	14020
918.828	14130
918.939	14218
919.05	14092
919.161	14092
919.272	13852
919.383	13944
919.494	14161
919.604	14362
919.715	14126
919.826	14027
919.936	14046
920.047	14130
920.157	14024
920.267	14324
920.378	14107
920.488	14054
920.598	14267
920.708	14381
920.818	14259
920.928	14077
921.038	14358
921.148	14328
921.258	14065
921.368	13818
921.477	13830
921.587	13868
921.697	13693
921.806	13894
921.916	13693
922.025	13597
922.134	13578
922.244	13480
922.353	13544
922.462	13487
922.571	13320
922.68	13175
922.789	13168
922.898	13236
923.007	13118
923.116	13221
923.224	13194
923.333	13069
923.442	13027
923.55	13015
923.659	12924
923.767	13034
923.876	12966
923.984	12970
924.092	12939
924.201	12954
924.309	12863
924.417	12909
924.525	12817
924.633	12768
924.741	13727
924.849	12677
924.956	12764
925.064	12711
925.172	12506
925.279	12528
925.387	12589
925.494	12601
925.602	12662
925.709	12570
925.816	12475
925.924	12521
926.031	12696
926.138	12479
926.245	12635
926.352	12506
926.459	12521
926.566	12544
926.673	12471
926.779	12296
926.886	12448
926.993	12159
927.099	12175
927.206	12117
927.312	12079
927.419	12327
927.525	12140
927.631	12251
927.737	12064
927.843	11999
927.95	11904
928.056	11916
928.162	11901
928.267	12053
928.373	12544
928.479	12102
928.585	11817
928.69	11870
928.796	12064
928.901	11874
929.007	11710
929.112	11767
929.218	11802
929.323	11676
929.428	11752
929.533	11893
929.638	11661
929.743	11661
929.848	11764
929.953	11695
930.058	11543
930.163	11444
930.267	11436
930.372	11592
930.477	11402
930.581	11680
930.685	11395
930.79	11284
930.894	11315
930.998	11258
931.103	11368
931.207	11086
931.311	10938
931.415	10892
931.519	10774
931.623	10771
