Data from test_V78500241_1665.txt Node
Date: Fri Mar 25 15:21:27 CST 2022
User: usil
Spectrometer: V785-0024
Trigger mode: 0
Integration Time (sec): 4.000000E-1
Scans to average: 1
Nonlinearity correction enabled: false
Boxcar width: 0
Storing dark spectrum: false
XAxis mode: Wavelengths
Number of Pixels in Spectrum: 1024
>>>>>Begin Spectral Data<<<<<
801.071	28017
801.214	27941
801.356	27572
801.499	27633
801.641	27564
801.783	27382
801.926	27606
802.068	27530
802.211	27363
802.353	27511
802.496	27237
802.638	27245
802.78	27233
802.923	27119
803.065	27058
803.208	27207
803.35	27321
803.492	27313
803.635	27351
803.777	27264
803.919	27401
804.061	27591
804.204	27492
804.346	27294
804.488	27256
804.63	27275
804.773	27348
804.915	27374
805.057	27530
805.199	27313
805.341	27485
805.483	27545
805.626	27557
805.768	27420
805.91	27545
806.052	27488
806.194	27507
806.336	27812
806.478	27572
806.62	27663
806.762	27572
806.904	27747
807.046	28013
807.188	27835
807.33	27926
807.472	27975
807.614	27759
807.756	27835
807.898	27819
808.04	27648
808.182	27720
808.324	27709
808.465	27865
808.607	28017
808.749	28253
808.891	28284
809.033	28428
809.174	28078
809.316	28223
809.458	28040
809.6	28021
809.741	28265
809.883	28249
810.025	28489
810.166	28401
810.308	28329
810.45	28363
810.591	28310
810.733	28139
810.875	28318
811.016	28010
811.158	28002
811.299	28382
811.441	28272
811.582	28356
811.724	28162
811.865	28070
812.007	28200
812.148	28097
812.29	28173
812.431	28325
812.573	28478
812.714	28565
812.855	28569
812.997	28774
813.138	28854
813.279	28835
813.421	28656
813.562	28641
813.703	28466
813.845	28371
813.986	28112
814.127	27941
814.268	27812
814.41	27926
814.551	27808
814.692	27914
814.833	27793
814.974	27781
815.115	27835
815.256	27625
815.397	27797
815.539	27724
815.68	27675
815.821	27622
815.962	27694
816.103	27637
816.244	27466
816.385	27469
816.526	27374
816.666	27184
816.807	27112
816.948	27249
817.089	27279
817.23	27188
817.371	27218
817.512	27119
817.653	27062
817.793	27024
817.934	27013
818.075	27062
818.216	27108
818.356	27039
818.497	26982
818.638	26777
818.778	26883
818.919	26823
819.06	26960
819.2	27024
819.341	27005
819.481	27081
819.622	27310
819.762	27363
819.903	27344
820.043	27264
820.184	27207
820.324	27203
820.465	27230
820.605	27123
820.746	27249
820.886	27058
821.026	27173
821.167	27214
821.307	27268
821.447	27058
821.588	27020
821.728	26853
821.868	26796
822.008	26602
822.149	26503
822.289	26598
822.429	26381
822.569	26290
822.709	26370
822.849	26126
822.99	26065
823.13	26027
823.27	26084
823.41	25963
823.55	25868
823.69	25959
823.83	25830
823.97	25966
824.11	25670
824.25	25643
824.389	25772
824.529	25799
824.669	25837
824.809	25940
824.949	25799
825.089	25917
825.228	25807
825.368	25449
825.508	25613
825.648	25674
825.787	25609
825.927	25643
826.067	25647
826.206	25628
826.346	25639
826.485	25620
826.625	25518
826.765	25772
826.904	25567
827.044	25483
827.183	25358
827.323	25339
827.462	25438
827.601	25426
827.741	25327
827.88	25403
828.02	25362
828.159	25289
828.298	25392
828.437	25411
828.577	25278
828.716	25346
828.855	25244
828.994	24962
829.134	25042
829.273	25122
829.412	25034
829.551	25015
829.69	25069
829.829	25065
829.968	25050
830.107	25133
830.246	25080
830.385	24943
830.524	24989
830.663	24852
830.802	24738
830.941	24585
831.08	24593
831.219	24734
831.357	24757
831.496	24848
831.635	24681
831.774	24582
831.913	24559
832.051	24513
832.19	24536
832.329	24353
832.467	24391
832.606	24353
832.744	24247
832.883	24365
833.022	24254
833.16	24388
833.299	24338
833.437	24289
833.576	24410
833.714	24376
833.852	24456
833.991	24475
834.129	24311
834.267	24418
834.406	24471
834.544	24410
834.682	24498
834.821	24418
834.959	24585
835.097	24334
835.235	24460
835.373	24239
835.511	24391
835.65	24273
835.788	24308
835.926	24121
836.064	24087
836.202	24003
836.34	24224
836.478	24281
836.615	24254
836.753	24323
836.891	24213
837.029	24228
837.167	24148
837.305	24133
837.443	24045
837.58	24129
837.718	24216
837.856	24038
837.993	23935
838.131	24148
838.269	23977
838.406	23912
838.544	23946
838.681	23836
838.819	23726
838.956	23505
839.094	23478
839.231	23668
839.369	23653
839.506	23901
839.643	23756
839.781	23547
839.918	23467
840.055	23615
840.193	23596
840.33	23471
840.467	23490
840.604	23402
840.742	23619
840.879	23341
841.016	23223
841.153	23258
841.29	23433
841.427	23467
841.564	23497
841.701	23402
841.838	23322
841.975	23269
842.112	23170
842.249	23296
842.385	23200
842.522	23379
842.659	23239
842.796	23181
842.933	23315
843.069	23136
843.206	23140
843.343	23315
843.479	23151
843.616	23204
843.752	22927
843.889	22968
844.025	23162
844.162	22934
844.298	23064
844.435	22927
844.571	22889
844.708	22980
844.844	23227
844.98	23044
845.117	22999
845.253	22866
845.389	22843
845.525	22805
845.661	22862
845.798	22733
845.934	22713
846.07	22668
846.206	22782
846.342	22774
846.478	22721
846.614	22550
846.75	22462
846.886	22421
847.022	22478
847.158	22527
847.294	22527
847.429	22535
847.565	22481
847.701	22668
847.837	22143
847.972	22135
848.108	22352
848.244	22314
848.379	22040
848.515	22055
848.65	22040
848.786	21892
848.921	21998
849.057	22112
849.192	22120
849.328	22112
849.463	22078
849.598	21945
849.734	21873
849.869	21884
850.004	21991
850.14	21846
850.275	21774
850.41	21720
850.545	21747
850.68	21675
850.815	21819
850.95	21808
851.085	21987
851.22	21880
851.355	21797
851.49	21781
851.625	21774
851.76	21842
851.895	21785
852.03	21648
852.165	21869
852.299	21899
852.434	21926
852.569	21755
852.703	21800
852.838	21823
852.973	21903
853.107	21934
853.242	21728
853.376	21614
853.511	21424
853.645	21561
853.78	21736
853.914	21724
854.048	21481
854.183	21507
854.317	21587
854.451	21831
854.585	21523
854.72	21599
854.854	21743
854.988	21717
855.122	21568
855.256	21420
855.39	21637
855.524	21766
855.658	21622
855.792	21603
855.926	21614
856.06	21633
856.194	21698
856.327	21530
856.461	21561
856.595	21682
856.729	21553
856.862	21778
856.996	21591
857.13	21660
857.263	21705
857.397	21823
857.53	21618
857.664	21644
857.797	21739
857.931	21717
858.064	21667
858.197	21679
858.331	21549
858.464	21690
858.597	21641
858.731	21625
858.864	21564
858.997	21496
859.13	21717
859.263	21576
859.396	21663
859.529	21595
859.662	21549
859.795	21477
859.928	21656
860.061	21778
860.194	21804
860.327	21572
860.46	21519
860.592	21789
860.725	21865
860.858	21705
860.99	21698
861.123	21530
861.256	21492
861.388	21618
861.521	22284
861.653	21492
861.786	21386
861.918	21393
862.05	21374
862.183	21675
862.315	21496
862.447	21564
862.58	21492
862.712	21294
862.844	21233
862.976	21405
863.108	21447
863.24	21728
863.372	21237
863.504	21256
863.636	21336
863.768	21329
863.9	21298
864.032	21214
864.164	21268
864.296	21272
864.428	21416
864.559	21268
864.691	21294
864.823	21241
864.954	21389
865.086	21310
865.217	21089
865.349	21127
865.48	21157
865.612	21192
865.743	21245
865.875	21195
866.006	21176
866.137	21214
866.269	21218
866.4	21123
866.531	21116
866.662	21089
866.793	21108
866.924	21051
867.055	21176
867.186	21218
867.317	21161
867.448	21017
867.579	20990
867.71	21203
867.841	20960
867.972	21207
868.103	21203
868.233	21112
868.364	21138
868.495	21226
868.625	21351
868.756	21545
868.886	21374
869.017	21268
869.147	21401
869.278	21511
869.408	21283
869.539	21401
869.669	21504
869.799	21393
869.929	21511
870.06	21500
870.19	21698
870.32	21667
870.45	21850
870.58	21778
870.71	21797
870.84	21869
870.97	21865
871.1	21747
871.23	21975
871.36	22013
871.489	21876
871.619	21888
871.749	21964
871.879	22025
872.008	22040
872.138	21991
872.267	21869
872.397	21911
872.526	21793
872.656	21728
872.785	21785
872.915	22059
873.044	22074
873.173	21926
873.303	22044
873.432	21953
873.561	22029
873.69	22059
873.819	22040
873.948	22158
874.077	22013
874.206	21873
874.335	22036
874.464	22082
874.593	22226
874.722	22242
874.851	22257
874.979	22223
875.108	22291
875.237	22131
875.365	22116
875.494	22139
875.623	22375
875.751	22112
875.88	22204
876.008	22318
876.136	22356
876.265	22634
876.393	22687
876.521	22748
876.65	22675
876.778	22485
876.906	22634
877.034	22455
877.162	22554
877.29	22615
877.418	22603
877.546	22466
877.674	22512
877.802	22557
877.93	22561
878.058	22725
878.185	22542
878.313	22596
878.441	22394
878.568	22314
878.696	22405
878.824	22573
878.951	22664
879.079	22744
879.206	22877
879.333	22710
879.461	22653
879.588	22713
879.715	22542
879.842	22710
879.97	22664
880.097	22386
880.224	22409
880.351	22325
880.478	22390
880.605	22318
880.732	22329
880.859	22626
880.986	22409
881.112	22405
881.239	22242
881.366	22097
881.493	22166
881.619	21930
881.746	21991
881.872	21861
881.999	21876
882.125	21964
882.252	21895
882.378	21907
882.505	22006
882.631	21956
882.757	21644
882.883	21766
883.01	21633
883.136	21660
883.262	21428
883.388	21545
883.514	21599
883.64	21641
883.766	21500
883.892	21416
884.018	21538
884.143	21599
884.269	21698
884.395	21252
884.52	21233
884.646	21378
884.772	21108
884.897	21203
885.023	21260
885.148	21302
885.274	21504
885.399	21329
885.524	21131
885.65	21165
885.775	21298
885.9	21241
886.025	21412
886.15	21233
886.275	21317
886.4	21131
886.525	21298
886.65	21211
886.775	21192
886.9	21382
887.025	21393
887.149	21272
887.274	21081
887.399	20971
887.523	21070
887.648	20918
887.773	20921
887.897	21096
888.021	21135
888.146	20937
888.27	21135
888.395	21077
888.519	21058
888.643	21074
888.767	21112
888.891	20948
889.015	20861
889.139	20956
889.263	20868
889.387	20963
889.511	20975
889.635	20986
889.759	20895
889.883	20952
890.006	20777
890.13	20956
890.254	20781
890.377	20826
890.501	20636
890.624	20541
890.748	20609
890.871	20530
890.995	20427
891.118	20450
891.241	20275
891.364	20461
891.488	20587
891.611	20431
891.734	20533
891.857	20499
891.98	20492
892.103	20575
892.226	20400
892.349	20469
892.471	20195
892.594	20351
892.717	20465
892.839	20419
892.962	20313
893.085	20400
893.207	20278
893.33	20301
893.452	20240
893.575	20385
893.697	20465
893.819	20522
893.941	20511
894.064	20488
894.186	20290
894.308	20183
894.43	20328
894.552	20552
894.674	20389
894.796	20267
894.918	20339
895.04	20317
895.161	20457
895.283	20313
895.405	20282
895.526	20320
895.648	20336
895.769	20396
895.891	20438
896.012	20290
896.134	20442
896.255	20377
896.376	20298
896.498	20267
896.619	20305
896.74	20343
896.861	20412
896.982	20590
897.103	20686
897.224	20606
897.345	20617
897.466	20495
897.587	20530
897.708	20693
897.828	20526
897.949	20518
898.07	20358
898.19	20499
898.311	20621
898.431	20499
898.552	20492
898.672	20579
898.792	20575
898.913	20507
899.033	20438
899.153	20343
899.273	20202
899.393	20195
899.513	20355
899.633	20271
899.753	20233
899.873	20187
899.993	20343
900.113	20195
900.232	20233
900.352	20126
900.472	20145
900.591	20088
900.711	20199
900.83	19913
900.95	20145
901.069	20107
901.189	19906
901.308	19772
901.427	19575
901.546	19658
901.665	19658
901.784	19670
901.904	19453
902.023	19430
902.141	19335
902.26	19228
902.379	19148
902.498	19164
902.617	19069
902.735	19293
902.854	19148
902.973	18989
903.091	18939
903.21	18878
903.328	18844
903.446	18726
903.565	18646
903.683	18661
903.801	18532
903.919	18658
904.038	18620
904.156	18403
904.274	18517
904.392	18353
904.51	18445
904.627	18254
904.745	18464
904.863	18517
904.981	18102
905.098	18011
905.216	18095
905.334	18095
905.451	18190
905.569	17965
905.686	18053
905.803	17988
905.921	17714
906.038	18007
906.155	17874
906.272	17813
906.389	17809
906.506	17699
906.623	17596
906.74	17627
906.857	17486
906.974	17471
907.091	17554
907.208	17703
907.324	17566
907.441	17520
907.557	17391
907.674	17364
907.79	17212
907.907	17360
908.023	17334
908.139	17231
908.256	17269
908.372	17269
908.488	17227
908.604	16999
908.72	17083
908.836	17064
908.952	16957
909.068	17048
909.184	17143
909.3	17098
909.415	17083
909.531	16995
909.647	16733
909.762	16691
909.878	16736
909.993	16759
910.108	16736
910.224	16683
910.339	16698
910.454	16596
910.57	16519
910.685	16489
910.8	16752
910.915	16645
911.03	16516
911.145	16455
911.259	16280
911.374	16325
911.489	16192
911.604	16120
911.718	16044
911.833	16109
911.947	16074
912.062	15838
912.176	16013
912.291	16006
912.405	16051
912.519	16207
912.633	16246
912.748	16162
912.862	16010
912.976	15918
913.09	15812
913.204	15831
913.318	15949
913.431	15979
913.545	15895
913.659	15964
913.772	15827
913.886	15720
914	15663
914.113	15812
914.226	15888
914.34	15766
914.453	15648
914.566	15667
914.68	15584
914.793	15519
914.906	15428
915.019	15226
915.132	15222
915.245	15272
915.358	15279
915.47	15291
915.583	15252
915.696	15302
915.809	15348
915.921	15348
916.034	15211
916.146	15127
916.259	15233
916.371	15313
916.483	15176
916.595	15081
916.708	15135
916.82	15135
916.932	14982
917.044	15028
917.156	15051
917.268	14857
917.38	15009
917.491	14849
917.603	14990
917.715	15024
917.826	15032
917.938	14849
918.049	14674
918.161	14899
918.272	15062
918.384	15009
918.495	14891
918.606	14731
918.717	14613
918.828	14792
918.939	14663
919.05	14701
919.161	14663
919.272	14450
919.383	14545
919.494	14697
919.604	14921
919.715	14571
919.826	14590
919.936	14629
920.047	14617
920.157	14735
920.267	14895
920.378	14644
920.488	14579
920.598	14807
920.708	14895
920.818	14746
920.928	14777
921.038	14937
921.148	14891
921.258	14632
921.368	14488
921.477	14423
921.587	14374
921.697	14248
921.806	14412
921.916	14168
922.025	14119
922.134	14069
922.244	13951
922.353	14024
922.462	13788
922.571	13837
922.68	13761
922.789	13693
922.898	13651
923.007	13624
923.116	13594
923.224	13655
923.333	13567
923.442	13533
923.55	13533
923.659	13464
923.767	13578
923.876	13362
923.984	13605
924.092	13365
924.201	13453
924.309	13358
924.417	13381
924.525	13316
924.633	13384
924.741	14073
924.849	13114
924.956	13327
925.064	13057
925.172	13012
925.279	13031
925.387	13156
925.494	13023
925.602	13126
925.709	13057
925.816	12993
925.924	13027
926.031	13015
926.138	13046
926.245	13050
926.352	12981
926.459	13034
926.566	13133
926.673	13012
926.779	12852
926.886	12753
926.993	12623
927.099	12639
927.206	12620
927.312	12555
927.419	12608
927.525	12574
927.631	12604
927.737	12467
927.843	12422
927.95	12410
928.056	12460
928.162	12490
928.267	12490
928.373	13061
928.479	12494
928.585	12232
928.69	12361
928.796	12380
928.901	12327
929.007	12224
929.112	12365
929.218	12247
929.323	12152
929.428	12205
929.533	12235
929.638	12140
929.743	12060
929.848	12194
929.953	12087
930.058	11980
930.163	11859
930.267	11863
930.372	12011
930.477	11783
930.581	12087
930.685	11836
930.79	11767
930.894	11775
930.998	11703
931.103	11832
931.207	11535
931.311	11334
931.415	11250
931.519	11181
931.623	11159
