Data from test_V78500241_222.txt Node
Date: Fri Mar 25 15:11:24 CST 2022
User: usil
Spectrometer: V785-0024
Trigger mode: 0
Integration Time (sec): 4.000000E-1
Scans to average: 1
Nonlinearity correction enabled: false
Boxcar width: 0
Storing dark spectrum: false
XAxis mode: Wavelengths
Number of Pixels in Spectrum: 1024
>>>>>Begin Spectral Data<<<<<
801.071	27785
801.214	27679
801.356	27492
801.499	27534
801.641	27298
801.783	27207
801.926	27431
802.068	27359
802.211	27214
802.353	27116
802.496	26994
802.638	26937
802.78	26876
802.923	26914
803.065	26788
803.208	26929
803.35	26925
803.492	26895
803.635	27100
803.777	26895
803.919	27093
804.061	27412
804.204	27074
804.346	26895
804.488	26952
804.63	27070
804.773	26986
804.915	26891
805.057	27104
805.199	27108
805.341	27032
805.483	27047
805.626	27047
805.768	26960
805.91	26975
806.052	27089
806.194	27020
806.336	27173
806.478	27116
806.62	27036
806.762	27249
806.904	27405
807.046	27492
807.188	27416
807.33	27401
807.472	27466
807.614	27412
807.756	27435
807.898	27245
808.04	27188
808.182	27378
808.324	27310
808.465	27264
808.607	27492
808.749	27504
808.891	27743
809.033	27732
809.174	27724
809.316	27682
809.458	27557
809.6	27622
809.741	27682
809.883	27789
810.025	27709
810.166	27850
810.308	27873
810.45	27637
810.591	27774
810.733	27663
810.875	27587
811.016	27386
811.158	27454
811.299	27568
811.441	27778
811.582	27679
811.724	27622
811.865	27496
812.007	27614
812.148	27466
812.29	27488
812.431	27751
812.573	27770
812.714	27930
812.855	28029
812.997	28204
813.138	28314
813.279	28249
813.421	28249
813.562	28150
813.703	27953
813.845	27785
813.986	27545
814.127	27226
814.268	27192
814.41	27310
814.551	27279
814.692	27214
814.833	27089
814.974	27032
815.115	27138
815.256	27013
815.397	26998
815.539	27062
815.68	26925
815.821	26861
815.962	27051
816.103	27104
816.244	26883
816.385	26857
816.526	26781
816.666	26594
816.807	26377
816.948	26530
817.089	26453
817.23	26499
817.371	26343
817.512	26385
817.653	26336
817.793	26385
817.934	26298
818.075	26381
818.216	26571
818.356	26244
818.497	26256
818.638	26126
818.778	26130
818.919	26100
819.06	26225
819.2	26161
819.341	26328
819.481	26320
819.622	26465
819.762	26587
819.903	26583
820.043	26484
820.184	26427
820.324	26381
820.465	26518
820.605	26282
820.746	26427
820.886	26256
821.026	26199
821.167	26438
821.307	26374
821.447	26305
821.588	26187
821.728	26119
821.868	26012
822.008	25746
822.149	25700
822.289	25655
822.429	25525
822.569	25655
822.709	25403
822.849	25255
822.99	25263
823.13	25221
823.27	25133
823.41	25133
823.55	25042
823.69	25038
823.83	25107
823.97	25023
824.11	24848
824.25	24909
824.389	24863
824.529	24962
824.669	24844
824.809	24973
824.949	24996
825.089	24859
825.228	24939
825.368	24726
825.508	24582
825.648	24719
825.787	24764
825.927	24798
826.067	24768
826.206	24574
826.346	24715
826.485	24608
826.625	24700
826.765	24753
826.904	24696
827.044	24563
827.183	24365
827.323	24464
827.462	24475
827.601	24372
827.741	24346
827.88	24365
828.02	24155
828.159	24281
828.298	24395
828.437	24441
828.577	24289
828.716	24327
828.855	24220
828.994	24098
829.134	24190
829.273	24007
829.412	24034
829.551	24136
829.69	24045
829.829	24091
829.968	24163
830.107	24102
830.246	24049
830.385	24034
830.524	23897
830.663	23847
830.802	23847
830.941	23649
831.08	23638
831.219	23786
831.357	23726
831.496	23828
831.635	23695
831.774	23554
831.913	23429
832.051	23459
832.19	23444
832.329	23402
832.467	23315
832.606	23307
832.744	23334
832.883	23223
833.022	23265
833.16	23337
833.299	23402
833.437	23334
833.576	23402
833.714	23425
833.852	23379
833.991	23478
834.129	23410
834.267	23318
834.406	23345
834.544	23459
834.682	23391
834.821	23376
834.959	23433
835.097	23242
835.235	23410
835.373	23353
835.511	23261
835.65	23307
835.788	23239
835.926	23022
836.064	23044
836.202	23033
836.34	23200
836.478	23261
836.615	23208
836.753	23200
836.891	23296
837.029	23307
837.167	23132
837.305	23064
837.443	23044
837.58	23029
837.718	23098
837.856	23102
837.993	23029
838.131	22987
838.269	22828
838.406	22938
838.544	22782
838.681	22607
838.819	22550
838.956	22485
839.094	22428
839.231	22546
839.369	22630
839.506	22915
839.643	22660
839.781	22497
839.918	22344
840.055	22363
840.193	22405
840.33	22333
840.467	22485
840.604	22459
840.742	22615
840.879	22329
841.016	22173
841.153	22192
841.29	22402
841.427	22291
841.564	22375
841.701	22478
841.838	22261
841.975	22211
842.112	22219
842.249	22147
842.385	21998
842.522	22314
842.659	22185
842.796	22226
842.933	22063
843.069	22109
843.206	22105
843.343	22181
843.479	22063
843.616	22074
843.752	21991
843.889	21880
844.025	22105
844.162	21793
844.298	21994
844.435	21800
844.571	21762
844.708	21869
844.844	22006
844.98	21884
845.117	21945
845.253	21755
845.389	21793
845.525	21789
845.661	21736
845.798	21618
845.934	21698
846.07	21492
846.206	21549
846.342	21648
846.478	21610
846.614	21469
846.75	21272
846.886	21237
847.022	21393
847.158	21321
847.294	21272
847.429	21336
847.565	21325
847.701	21561
847.837	21093
847.972	21093
848.108	21184
848.244	21077
848.379	20986
848.515	20861
848.65	20891
848.786	20842
848.921	21039
849.057	20998
849.192	21020
849.328	21009
849.463	20895
849.598	20883
849.734	20720
849.869	20765
850.004	20651
850.14	20720
850.275	20716
850.41	20522
850.545	20621
850.68	20648
850.815	20590
850.95	20594
851.085	20826
851.22	20804
851.355	20632
851.49	20518
851.625	20602
851.76	20594
851.895	20495
852.03	20461
852.165	20556
852.299	20750
852.434	20811
852.569	20621
852.703	20594
852.838	20686
852.973	20781
853.107	20765
853.242	20552
853.376	20355
853.511	20355
853.645	20366
853.78	20579
853.914	20503
854.048	20427
854.183	20358
854.317	20450
854.451	20568
854.585	20503
854.72	20419
854.854	20552
854.988	20332
855.122	20362
855.256	20317
855.39	20450
855.524	20537
855.658	20431
855.792	20511
855.926	20404
856.06	20499
856.194	20526
856.327	20434
856.461	20377
856.595	20393
856.729	20518
856.862	20469
856.996	20476
857.13	20560
857.263	20503
857.397	20598
857.53	20457
857.664	20518
857.797	20579
857.931	20655
858.064	20389
858.197	20415
858.331	20431
858.464	20286
858.597	20339
858.731	20404
858.864	20484
858.997	20290
859.13	20396
859.263	20450
859.396	20541
859.529	20423
859.662	20446
859.795	20313
859.928	20355
860.061	20609
860.194	20469
860.327	20533
860.46	20431
860.592	20503
860.725	20514
860.858	20484
860.99	20461
861.123	20339
861.256	20385
861.388	20469
861.521	21089
861.653	20336
861.786	20138
861.918	20176
862.05	20256
862.183	20286
862.315	20362
862.447	20446
862.58	20351
862.712	20161
862.844	20180
862.976	20202
863.108	20248
863.24	20762
863.372	20195
863.504	20294
863.636	20081
863.768	20195
863.9	20130
864.032	20016
864.164	20096
864.296	20157
864.428	20256
864.559	20278
864.691	20199
864.823	20122
864.954	20145
865.086	20092
865.217	20058
865.349	19826
865.48	20054
865.612	20001
865.743	20157
865.875	20020
866.006	19936
866.137	19936
866.269	19993
866.4	20008
866.531	20012
866.662	19902
866.793	19982
866.924	20046
867.055	19955
867.186	19978
867.317	19947
867.448	19776
867.579	19978
867.71	19928
867.841	19852
867.972	19909
868.103	19917
868.233	19921
868.364	19940
868.495	20100
868.625	20130
868.756	20332
868.886	20119
869.017	20244
869.147	20263
869.278	20339
869.408	20172
869.539	20309
869.669	20298
869.799	20176
869.929	20358
870.06	20404
870.19	20674
870.32	20461
870.45	20594
870.58	20579
870.71	20648
870.84	20830
870.97	20507
871.1	20625
871.23	20792
871.36	20735
871.489	20731
871.619	20697
871.749	20735
871.879	20712
872.008	20883
872.138	20796
872.267	20830
872.397	20701
872.526	20758
872.656	20526
872.785	20632
872.915	20823
873.044	20937
873.173	20731
873.303	20891
873.432	20823
873.561	20933
873.69	20876
873.819	20872
873.948	20944
874.077	20853
874.206	20804
874.335	20830
874.464	20853
874.593	21070
874.722	20982
874.851	21032
874.979	21116
875.108	21032
875.237	21039
875.365	20883
875.494	21024
875.623	21081
875.751	21009
875.88	21066
876.008	21169
876.136	21199
876.265	21515
876.393	21511
876.521	21511
876.65	21580
876.778	21542
876.906	21378
877.034	21443
877.162	21359
877.29	21439
877.418	21538
877.546	21447
877.674	21424
877.802	21515
877.93	21416
878.058	21367
878.185	21348
878.313	21374
878.441	21332
878.568	21249
878.696	21340
878.824	21405
878.951	21538
879.079	21595
879.206	21660
879.333	21671
879.461	21412
879.588	21488
879.715	21530
879.842	21679
879.97	21344
880.097	21237
880.224	21112
880.351	21131
880.478	21195
880.605	21230
880.732	21135
880.859	21416
880.986	21272
881.112	21351
881.239	21146
881.366	20967
881.493	20952
881.619	20788
881.746	20853
881.872	20891
881.999	20845
882.125	20716
882.252	20758
882.378	20777
882.505	20914
882.631	20678
882.757	20594
882.883	20670
883.01	20587
883.136	20564
883.262	20370
883.388	20476
883.514	20518
883.64	20590
883.766	20419
883.892	20358
884.018	20290
884.143	20473
884.269	20629
884.395	20305
884.52	20176
884.646	20351
884.772	20130
884.897	20119
885.023	20134
885.148	20286
885.274	20328
885.399	20298
885.524	20286
885.65	20164
885.775	20138
885.9	20130
886.025	20286
886.15	20332
886.275	20191
886.4	20111
886.525	20202
886.65	20096
886.775	20016
886.9	20256
887.025	20332
887.149	20199
887.274	20020
887.399	20005
887.523	19868
887.648	19928
887.773	19841
887.897	20024
888.021	20046
888.146	19906
888.27	20058
888.395	20001
888.519	19917
888.643	19944
888.767	19974
888.891	19875
889.015	19757
889.139	19879
889.263	19826
889.387	19849
889.511	20020
889.635	19887
889.759	19784
889.883	19727
890.006	19715
890.13	19932
890.254	19731
890.377	19833
890.501	19559
890.624	19487
890.748	19540
890.871	19441
890.995	19343
891.118	19320
891.241	19403
891.364	19350
891.488	19468
891.611	19400
891.734	19373
891.857	19373
891.98	19282
892.103	19308
892.226	19460
892.349	19225
892.471	19118
892.594	19324
892.717	19259
892.839	19282
892.962	19301
893.085	19308
893.207	19251
893.33	19171
893.452	19171
893.575	19282
893.697	19183
893.819	19441
893.941	19472
894.064	19419
894.186	19270
894.308	19156
894.43	19335
894.552	19438
894.674	19327
894.796	19145
894.918	19247
895.04	19301
895.161	19445
895.283	19358
895.405	19164
895.526	19282
895.648	19190
895.769	19301
895.891	19388
896.012	19453
896.134	19350
896.255	19320
896.376	19324
896.498	19266
896.619	19377
896.74	19308
896.861	19415
896.982	19601
897.103	19818
897.224	19548
897.345	19571
897.466	19369
897.587	19662
897.708	19609
897.828	19449
897.949	19400
898.07	19304
898.19	19381
898.311	19525
898.431	19556
898.552	19483
898.672	19613
898.792	19586
898.913	19415
899.033	19354
899.153	19312
899.273	19168
899.393	19240
899.513	19263
899.633	19190
899.753	19160
899.873	19213
899.993	19213
900.113	19228
900.232	19339
900.352	19164
900.472	19099
900.591	19015
900.711	19072
900.83	18947
900.95	19126
901.069	19141
901.189	18993
901.308	18749
901.427	18502
901.546	18604
901.665	18608
901.784	18696
901.904	18582
902.023	18410
902.141	18232
902.26	18144
902.379	18220
902.498	18247
902.617	18091
902.735	18213
902.854	18171
902.973	18095
903.091	17699
903.21	17775
903.328	17790
903.446	17642
903.565	17646
903.683	17661
903.801	17539
903.919	17589
904.038	17642
904.156	17433
904.274	17474
904.392	17299
904.51	17372
904.627	17360
904.745	17425
904.863	17505
904.981	17189
905.098	17098
905.216	17075
905.334	17048
905.451	17029
905.569	17071
905.686	17121
905.803	16999
905.921	16915
906.038	16915
906.155	16934
906.272	16797
906.389	16801
906.506	16558
906.623	16702
906.74	16519
906.857	16493
906.974	16538
907.091	16634
907.208	16672
907.324	16588
907.441	16512
907.557	16394
907.674	16341
907.79	16272
907.907	16238
908.023	16417
908.139	16246
908.256	16291
908.372	16154
908.488	16230
908.604	16074
908.72	15941
908.836	16101
908.952	15991
909.068	16013
909.184	16131
909.3	16051
909.415	16017
909.531	16051
909.647	15888
909.762	15751
909.878	15698
909.993	15751
910.108	15637
910.224	15785
910.339	15766
910.454	15545
910.57	15618
910.685	15511
910.8	15755
910.915	15686
911.03	15599
911.145	15431
911.259	15367
911.374	15370
911.489	15283
911.604	15306
911.718	15112
911.833	15192
911.947	15081
912.062	14921
912.176	15100
912.291	15104
912.405	15013
912.519	15203
912.633	15226
912.748	15222
912.862	14998
912.976	14918
913.09	14830
913.204	14876
913.318	14990
913.431	15077
913.545	15009
913.659	15017
913.772	14937
913.886	14629
914	14823
914.113	14834
914.226	14880
914.34	14823
914.453	14571
914.566	14648
914.68	14571
914.793	14594
914.906	14461
915.019	14305
915.132	14328
915.245	14362
915.358	14438
915.47	14396
915.583	14385
915.696	14347
915.809	14480
915.921	14465
916.034	14278
916.146	14259
916.259	14073
916.371	14374
916.483	14324
916.595	14161
916.708	14138
916.82	14229
916.932	14130
917.044	14107
917.156	14172
917.268	14024
917.38	14031
917.491	14050
917.603	14027
917.715	14050
917.826	14077
917.938	14012
918.049	13940
918.161	14008
918.272	14145
918.384	14123
918.495	13951
918.606	13909
918.717	13826
918.828	13879
918.939	13784
919.05	13784
919.161	13807
919.272	13597
919.383	13628
919.494	13852
919.604	13989
919.715	13791
919.826	13624
919.936	13746
920.047	13811
920.157	13780
920.267	14016
920.378	13868
920.488	13643
920.598	14043
920.708	14107
920.818	13837
920.928	13944
921.038	13993
921.148	14046
921.258	13685
921.368	13803
921.477	13567
921.587	13457
921.697	13419
921.806	13464
921.916	13312
922.025	13190
922.134	13244
922.244	13107
922.353	13255
922.462	13061
922.571	13023
922.68	12840
922.789	12791
922.898	12787
923.007	12791
923.116	12810
923.224	12783
923.333	12768
923.442	12711
923.55	12563
923.659	12635
923.767	12745
923.876	12631
923.984	12749
924.092	12574
924.201	12703
924.309	12623
924.417	12494
924.525	12448
924.633	12597
924.741	13266
924.849	12281
924.956	12498
925.064	12247
925.172	12197
925.279	12277
925.387	12304
925.494	12292
925.602	12384
925.709	12285
925.816	12140
925.924	12262
926.031	12228
926.138	12273
926.245	12254
926.352	12072
926.459	12247
926.566	12292
926.673	12194
926.779	11950
926.886	12011
926.993	11832
927.099	11843
927.206	11786
927.312	11802
927.419	11916
927.525	11813
927.631	11889
927.737	11745
927.843	11748
927.95	11577
928.056	11699
928.162	11710
928.267	11733
928.373	12315
928.479	11752
928.585	11501
928.69	11592
928.796	11642
928.901	11558
929.007	11433
929.112	11592
929.218	11455
929.323	11459
929.428	11360
929.533	11558
929.638	11337
929.743	11322
929.848	11463
929.953	11379
930.058	11326
930.163	11162
930.267	11105
930.372	11193
930.477	11143
930.581	11296
930.685	11193
930.79	11018
930.894	11025
930.998	11033
931.103	11128
931.207	10725
931.311	10767
931.415	10645
931.519	10413
931.623	10386
