Data from test_V78500241_1415.txt Node
Date: Fri Mar 25 15:19:42 CST 2022
User: usil
Spectrometer: V785-0024
Trigger mode: 0
Integration Time (sec): 4.000000E-1
Scans to average: 1
Nonlinearity correction enabled: false
Boxcar width: 0
Storing dark spectrum: false
XAxis mode: Wavelengths
Number of Pixels in Spectrum: 1024
>>>>>Begin Spectral Data<<<<<
801.071	28177
801.214	28109
801.356	27819
801.499	27671
801.641	27606
801.783	27720
801.926	27500
802.068	27572
802.211	27504
802.353	27675
802.496	27283
802.638	27226
802.78	27287
802.923	27374
803.065	27241
803.208	27233
803.35	27298
803.492	27378
803.635	27504
803.777	27363
803.919	27671
804.061	27648
804.204	27481
804.346	27405
804.488	27378
804.63	27500
804.773	27443
804.915	27507
805.057	27637
805.199	27389
805.341	27587
805.483	27698
805.626	27618
805.768	27515
805.91	27549
806.052	27663
806.194	27610
806.336	27804
806.478	27633
806.62	27717
806.762	27774
806.904	27918
807.046	28128
807.188	27998
807.33	28101
807.472	28124
807.614	27975
807.756	28055
807.898	27899
808.04	28067
808.182	27816
808.324	27914
808.465	27941
808.607	28287
808.749	28421
808.891	28367
809.033	28603
809.174	28310
809.316	28276
809.458	28173
809.6	28188
809.741	28398
809.883	28519
810.025	28683
810.166	28557
810.308	28641
810.45	28546
810.591	28569
810.733	28466
810.875	28265
811.016	28246
811.158	28120
811.299	28276
811.441	28500
811.582	28379
811.724	28344
811.865	28177
812.007	28333
812.148	28367
812.29	28291
812.431	28363
812.573	28725
812.714	28740
812.855	28740
812.997	28938
813.138	28953
813.279	28877
813.421	28919
813.562	28873
813.703	28630
813.845	28474
813.986	28394
814.127	28192
814.268	28173
814.41	28048
814.551	28082
814.692	28074
814.833	27979
814.974	28013
815.115	27934
815.256	27835
815.397	28017
815.539	27876
815.68	27846
815.821	27622
815.962	27884
816.103	27835
816.244	27633
816.385	27618
816.526	27618
816.666	27462
816.807	27222
816.948	27336
817.089	27306
817.23	27321
817.371	27306
817.512	27287
817.653	27298
817.793	27142
817.934	27310
818.075	27249
818.216	27329
818.356	27195
818.497	27127
818.638	27077
818.778	27032
818.919	27108
819.06	27047
819.2	27230
819.341	27268
819.481	27336
819.622	27427
819.762	27515
819.903	27507
820.043	27488
820.184	27549
820.324	27348
820.465	27416
820.605	27416
820.746	27386
820.886	27348
821.026	27344
821.167	27344
821.307	27306
821.447	27325
821.588	27420
821.728	27154
821.868	26876
822.008	26921
822.149	26804
822.289	26796
822.429	26419
822.569	26484
822.709	26381
822.849	26313
822.99	26267
823.13	26157
823.27	26252
823.41	26168
823.55	26058
823.69	26168
823.83	26134
823.97	26088
824.11	25974
824.25	25784
824.389	25902
824.529	26126
824.669	25966
824.809	26126
824.949	25974
825.089	25940
825.228	25944
825.368	25898
825.508	25871
825.648	25879
825.787	25856
825.927	25837
826.067	25742
826.206	25776
826.346	25966
826.485	25871
826.625	25700
826.765	25921
826.904	25795
827.044	25506
827.183	25578
827.323	25518
827.462	25597
827.601	25552
827.741	25460
827.88	25506
828.02	25255
828.159	25449
828.298	25525
828.437	25567
828.577	25415
828.716	25613
828.855	25426
828.994	25072
829.134	25202
829.273	25152
829.412	25209
829.551	25160
829.69	25308
829.829	25069
829.968	25206
830.107	25278
830.246	25213
830.385	25053
830.524	25072
830.663	24924
830.802	24894
830.941	24894
831.08	24810
831.219	24817
831.357	24882
831.496	25038
831.635	24749
831.774	24886
831.913	24768
832.051	24528
832.19	24540
832.329	24566
832.467	24448
832.606	24346
832.744	24464
832.883	24414
833.022	24365
833.16	24544
833.299	24467
833.437	24471
833.576	24483
833.714	24547
833.852	24555
833.991	24601
834.129	24464
834.267	24582
834.406	24467
834.544	24536
834.682	24467
834.821	24528
834.959	24753
835.097	24452
835.235	24509
835.373	24441
835.511	24559
835.65	24384
835.788	24490
835.926	24178
836.064	24155
836.202	24140
836.34	24353
836.478	24414
836.615	24277
836.753	24327
836.891	24414
837.029	24403
837.167	24407
837.305	24194
837.443	24224
837.58	24114
837.718	24254
837.856	24308
837.993	24110
838.131	24068
838.269	24178
838.406	24129
838.544	24041
838.681	23908
838.819	23828
838.956	23756
839.094	23691
839.231	23870
839.369	23878
839.506	24091
839.643	23958
839.781	23653
839.918	23539
840.055	23748
840.193	23630
840.33	23436
840.467	23516
840.604	23661
840.742	23748
840.879	23417
841.016	23531
841.153	23429
841.29	23630
841.427	23634
841.564	23642
841.701	23421
841.838	23512
841.975	23463
842.112	23318
842.249	23372
842.385	23459
842.522	23459
842.659	23303
842.796	23235
842.933	23368
843.069	23299
843.206	23277
843.343	23364
843.479	23345
843.616	23471
843.752	23189
843.889	23048
844.025	23159
844.162	23117
844.298	23140
844.435	23109
844.571	23102
844.708	23052
844.844	23280
844.98	23242
845.117	23193
845.253	22987
845.389	23029
845.525	22847
845.661	22862
845.798	22744
845.934	22991
846.07	22683
846.206	22965
846.342	22908
846.478	22774
846.614	22554
846.75	22622
846.886	22508
847.022	22607
847.158	22580
847.294	22554
847.429	22557
847.565	22470
847.701	22812
847.837	22341
847.972	22200
848.108	22375
848.244	22291
848.379	22169
848.515	22223
848.65	22105
848.786	22162
848.921	22268
849.057	22120
849.192	22230
849.328	22276
849.463	22158
849.598	22124
849.734	21987
849.869	21945
850.004	21918
850.14	21937
850.275	21876
850.41	21895
850.545	21842
850.68	21884
850.815	21972
850.95	21846
851.085	21964
851.22	22036
851.355	21835
851.49	21968
851.625	21899
851.76	21838
851.895	21823
852.03	21823
852.165	21846
852.299	21994
852.434	22059
852.569	21930
852.703	21949
852.838	21968
852.973	22059
853.107	22101
853.242	21873
853.376	21739
853.511	21739
853.645	21720
853.78	21846
853.914	21766
854.048	21610
854.183	21736
854.317	21667
854.451	21998
854.585	21637
854.72	21736
854.854	21869
854.988	21599
855.122	21739
855.256	21656
855.39	21675
855.524	21899
855.658	21781
855.792	21785
855.926	21663
856.06	21770
856.194	21800
856.327	21747
856.461	21587
856.595	21530
856.729	21633
856.862	21759
856.996	21682
857.13	21827
857.263	21876
857.397	21739
857.53	21705
857.664	21713
857.797	21766
857.931	21797
858.064	21648
858.197	21835
858.331	21595
858.464	21644
858.597	21663
858.731	21755
858.864	21671
858.997	21728
859.13	21629
859.263	21850
859.396	21800
859.529	21690
859.662	21755
859.795	21557
859.928	21766
860.061	21755
860.194	21884
860.327	21797
860.46	21759
860.592	21808
860.725	21873
860.858	21903
860.99	21793
861.123	21625
861.256	21778
861.388	21724
861.521	22230
861.653	21557
861.786	21644
861.918	21656
862.05	21595
862.183	21694
862.315	21652
862.447	21774
862.58	21698
862.712	21374
862.844	21393
862.976	21412
863.108	21507
863.24	21789
863.372	21450
863.504	21405
863.636	21313
863.768	21454
863.9	21401
864.032	21431
864.164	21382
864.296	21458
864.428	21583
864.559	21568
864.691	21542
864.823	21424
864.954	21374
865.086	21431
865.217	21351
865.349	21260
865.48	21321
865.612	21199
865.743	21386
865.875	21351
866.006	21294
866.137	21329
866.269	21370
866.4	21336
866.531	21306
866.662	21192
866.793	21298
866.924	21203
867.055	21275
867.186	21173
867.317	21306
867.448	21192
867.579	21233
867.71	21108
867.841	21230
867.972	21051
868.103	21157
868.233	21317
868.364	21222
868.495	21367
868.625	21412
868.756	21428
868.886	21454
869.017	21462
869.147	21618
869.278	21564
869.408	21606
869.539	21454
869.669	21443
869.799	21526
869.929	21603
870.06	21603
870.19	21762
870.32	21819
870.45	21812
870.58	21800
870.71	22017
870.84	21857
870.97	21865
871.1	21895
871.23	22002
871.36	22006
871.489	21861
871.619	22017
871.749	21991
871.879	22253
872.008	22112
872.138	22040
872.267	22211
872.397	21880
872.526	21835
872.656	21899
872.785	21831
872.915	22124
873.044	22238
873.173	22006
873.303	22169
873.432	22086
873.561	22215
873.69	22082
873.819	22143
873.948	22097
874.077	22185
874.206	22006
874.335	22021
874.464	22143
874.593	22303
874.722	22318
874.851	22295
874.979	22204
875.108	22432
875.237	22333
875.365	22242
875.494	22291
875.623	22356
875.751	22344
875.88	22310
876.008	22436
876.136	22432
876.265	22694
876.393	22843
876.521	22706
876.65	22717
876.778	22721
876.906	22607
877.034	22546
877.162	22672
877.29	22664
877.418	22634
877.546	22592
877.674	22611
877.802	22717
877.93	22584
878.058	22656
878.185	22603
878.313	22474
878.441	22630
878.568	22470
878.696	22580
878.824	22736
878.951	22702
879.079	22812
879.206	22866
879.333	22748
879.461	22679
879.588	22691
879.715	22805
879.842	22930
879.97	22725
880.097	22443
880.224	22481
880.351	22527
880.478	22398
880.605	22322
880.732	22360
880.859	22702
880.986	22561
881.112	22462
881.239	22386
881.366	22242
881.493	22166
881.619	22116
881.746	22078
881.872	21991
881.999	22029
882.125	22029
882.252	22097
882.378	22021
882.505	22097
882.631	21960
882.757	21759
882.883	21907
883.01	21842
883.136	21694
883.262	21530
883.388	21568
883.514	21846
883.64	21709
883.766	21755
883.892	21424
884.018	21587
884.143	21610
884.269	21850
884.395	21523
884.52	21233
884.646	21325
884.772	21176
884.897	21195
885.023	21382
885.148	21504
885.274	21408
885.399	21488
885.524	21359
885.65	21447
885.775	21344
885.9	21313
886.025	21462
886.15	21576
886.275	21340
886.4	21355
886.525	21302
886.65	21157
886.775	21260
886.9	21344
887.025	21481
887.149	21332
887.274	21127
887.399	21020
887.523	21157
887.648	21207
887.773	21077
887.897	21233
888.021	21119
888.146	21051
888.27	21169
888.395	21192
888.519	21211
888.643	21104
888.767	21161
888.891	21039
889.015	20872
889.139	20998
889.263	20800
889.387	21051
889.511	21192
889.635	20998
889.759	20864
889.883	20883
890.006	20895
890.13	20990
890.254	20785
890.377	20914
890.501	20743
890.624	20701
890.748	20708
890.871	20549
890.995	20442
891.118	20518
891.241	20492
891.364	20499
891.488	20545
891.611	20476
891.734	20469
891.857	20526
891.98	20469
892.103	20431
892.226	20526
892.349	20530
892.471	20374
892.594	20427
892.717	20362
892.839	20385
892.962	20442
893.085	20545
893.207	20351
893.33	20248
893.452	20366
893.575	20362
893.697	20267
893.819	20530
893.941	20575
894.064	20457
894.186	20294
894.308	20275
894.43	20476
894.552	20518
894.674	20492
894.796	20400
894.918	20362
895.04	20324
895.161	20358
895.283	20374
895.405	20172
895.526	20408
895.648	20385
895.769	20362
895.891	20427
896.012	20419
896.134	20427
896.255	20454
896.376	20332
896.498	20324
896.619	20404
896.74	20351
896.861	20404
896.982	20632
897.103	20765
897.224	20617
897.345	20720
897.466	20522
897.587	20636
897.708	20781
897.828	20571
897.949	20648
898.07	20381
898.19	20537
898.311	20708
898.431	20530
898.552	20640
898.672	20629
898.792	20720
898.913	20640
899.033	20579
899.153	20514
899.273	20412
899.393	20301
899.513	20431
899.633	20351
899.753	20290
899.873	20336
899.993	20377
900.113	20374
900.232	20339
900.352	20240
900.472	20142
900.591	20138
900.711	20161
900.83	20122
900.95	20286
901.069	20157
901.189	20012
901.308	19738
901.427	19731
901.546	19689
901.665	19784
901.784	19811
901.904	19655
902.023	19518
902.141	19304
902.26	19274
902.379	19232
902.498	19278
902.617	19057
902.735	19152
902.854	19202
902.973	19091
903.091	18882
903.21	18867
903.328	18856
903.446	18772
903.565	18715
903.683	18722
903.801	18544
903.919	18555
904.038	18635
904.156	18547
904.274	18475
904.392	18437
904.51	18353
904.627	18346
904.745	18426
904.863	18456
904.981	18437
905.098	18174
905.216	18041
905.334	18171
905.451	18152
905.569	18133
905.686	18041
905.803	18064
905.921	17863
906.038	18034
906.155	17901
906.272	17752
906.389	17851
906.506	17630
906.623	17611
906.74	17615
906.857	17509
906.974	17589
907.091	17649
907.208	17771
907.324	17699
907.441	17520
907.557	17345
907.674	17307
907.79	17391
907.907	17452
908.023	17303
908.139	17360
908.256	17360
908.372	17242
908.488	17315
908.604	17151
908.72	17109
908.836	17014
908.952	17132
909.068	17029
909.184	17170
909.3	17064
909.415	17098
909.531	17090
909.647	16774
909.762	16744
909.878	16759
909.993	16793
910.108	16729
910.224	16736
910.339	16763
910.454	16653
910.57	16637
910.685	16497
910.8	16759
910.915	16717
911.03	16596
911.145	16417
911.259	16379
911.374	16379
911.489	16268
911.604	16234
911.718	16078
911.833	16120
911.947	15964
912.062	15861
912.176	16036
912.291	16051
912.405	16135
912.519	16242
912.633	16325
912.748	16200
912.862	16135
912.976	15934
913.09	15850
913.204	15903
913.318	15876
913.431	16059
913.545	15903
913.659	16097
913.772	15918
913.886	15778
914	15766
914.113	15812
914.226	15895
914.34	15720
914.453	15603
914.566	15751
914.68	15610
914.793	15584
914.906	15351
915.019	15317
915.132	15363
915.245	15249
915.358	15355
915.47	15317
915.583	15450
915.696	15348
915.809	15401
915.921	15492
916.034	15291
916.146	15184
916.259	15313
916.371	15302
916.483	15211
916.595	15165
916.708	15146
916.82	15047
916.932	15089
917.044	15207
917.156	15058
917.268	14994
917.38	14944
917.491	14982
917.603	14975
917.715	15020
917.826	14967
917.938	14861
918.049	14918
918.161	15020
918.272	15005
918.384	14986
918.495	14849
918.606	14720
918.717	14689
918.828	14750
918.939	14887
919.05	14644
919.161	14667
919.272	14556
919.383	14537
919.494	14686
919.604	14861
919.715	14727
919.826	14674
919.936	14686
920.047	14693
920.157	14663
920.267	14868
920.378	14720
920.488	14670
920.598	14796
920.708	15013
920.818	14826
920.928	14777
921.038	14952
921.148	14925
921.258	14663
921.368	14492
921.477	14495
921.587	14442
921.697	14240
921.806	14431
921.916	14278
922.025	14111
922.134	14020
922.244	14012
922.353	14096
922.462	13936
922.571	13871
922.68	13689
922.789	13655
922.898	13811
923.007	13658
923.116	13719
923.224	13639
923.333	13712
923.442	13518
923.55	13506
923.659	13529
923.767	13544
923.876	13518
923.984	13559
924.092	13441
924.201	13415
924.309	13350
924.417	13327
924.525	13312
924.633	13308
924.741	14153
924.849	13183
924.956	13324
925.064	13160
925.172	13149
925.279	13110
925.387	13152
925.494	13057
925.602	13236
925.709	13095
925.816	13012
925.924	13099
926.031	13164
926.138	13050
926.245	13027
926.352	13000
926.459	13050
926.566	13069
926.673	12871
926.779	12856
926.886	12795
926.993	12741
927.099	12692
927.206	12555
927.312	12662
927.419	12623
927.525	12738
927.631	12738
927.737	12563
927.843	12448
927.95	12407
928.056	12445
928.162	12601
928.267	12433
928.373	13164
928.479	12475
928.585	12235
928.69	12445
928.796	12544
928.901	12388
929.007	12209
929.112	12330
929.218	12247
929.323	12292
929.428	12224
929.533	12323
929.638	12194
929.743	12182
929.848	12224
929.953	12087
930.058	12057
930.163	11882
930.267	11908
930.372	11904
930.477	11863
930.581	12114
930.685	11893
930.79	11710
930.894	11790
930.998	11767
931.103	11779
931.207	11501
931.311	11391
931.415	11311
931.519	11216
931.623	11178
