Data from test_V78500241_1854.txt Node
Date: Fri Mar 25 15:22:45 CST 2022
User: usil
Spectrometer: V785-0024
Trigger mode: 0
Integration Time (sec): 4.000000E-1
Scans to average: 1
Nonlinearity correction enabled: false
Boxcar width: 0
Storing dark spectrum: false
XAxis mode: Wavelengths
Number of Pixels in Spectrum: 1024
>>>>>Begin Spectral Data<<<<<
801.071	27770
801.214	27728
801.356	27583
801.499	27348
801.641	27317
801.783	27336
801.926	27355
802.068	27325
802.211	27264
802.353	27249
802.496	27123
802.638	27032
802.78	27024
802.923	27024
803.065	26937
803.208	26948
803.35	27039
803.492	27268
803.635	27195
803.777	27051
803.919	27287
804.061	27504
804.204	27222
804.346	27096
804.488	27195
804.63	27249
804.773	27032
804.915	27226
805.057	27348
805.199	27279
805.341	27279
805.483	27389
805.626	27306
805.768	27310
805.91	27321
806.052	27393
806.194	27249
806.336	27405
806.478	27435
806.62	27393
806.762	27401
806.904	27488
807.046	27941
807.188	27755
807.33	27701
807.472	27774
807.614	27622
807.756	27854
807.898	27614
808.04	27515
808.182	27633
808.324	27656
808.465	27633
808.607	27854
808.749	28017
808.891	27998
809.033	28006
809.174	27922
809.316	27766
809.458	27937
809.6	28002
809.741	27972
809.883	28173
810.025	28181
810.166	28306
810.308	28128
810.45	28253
810.591	28124
810.733	28082
810.875	28006
811.016	27747
811.158	27907
811.299	27949
811.441	28093
811.582	28090
811.724	27914
811.865	27835
812.007	27903
812.148	27922
812.29	28013
812.431	28093
812.573	28287
812.714	28329
812.855	28573
812.997	28634
813.138	28755
813.279	28630
813.421	28615
813.562	28451
813.703	28386
813.845	28268
813.986	27854
814.127	27793
814.268	27610
814.41	27694
814.551	27553
814.692	27667
814.833	27713
814.974	27618
815.115	27709
815.256	27523
815.397	27591
815.539	27583
815.68	27374
815.821	27462
815.962	27454
816.103	27466
816.244	27325
816.385	27351
816.526	27310
816.666	26960
816.807	26967
816.948	26975
817.089	27081
817.23	27020
817.371	26967
817.512	26853
817.653	26956
817.793	26963
817.934	26777
818.075	26990
818.216	26899
818.356	26895
818.497	26838
818.638	26708
818.778	26758
818.919	26632
819.06	26773
819.2	26883
819.341	26940
819.481	26891
819.622	27096
819.762	27275
819.903	27138
820.043	27138
820.184	27089
820.324	27096
820.465	27062
820.605	26982
820.746	27077
820.886	26921
821.026	26971
821.167	26895
821.307	27119
821.447	26910
821.588	26819
821.728	26773
821.868	26594
822.008	26400
822.149	26374
822.289	26480
822.429	26149
822.569	26008
822.709	26084
822.849	26024
822.99	25837
823.13	25993
823.27	25807
823.41	25693
823.55	25552
823.69	25708
823.83	25696
823.97	25677
824.11	25518
824.25	25632
824.389	25479
824.529	25670
824.669	25537
824.809	25681
824.949	25651
825.089	25616
825.228	25548
825.368	25358
825.508	25434
825.648	25388
825.787	25487
825.927	25510
826.067	25525
826.206	25339
826.346	25529
826.485	25533
826.625	25324
826.765	25609
826.904	25647
827.044	25255
827.183	25187
827.323	25168
827.462	25137
827.601	25266
827.741	25076
827.88	25194
828.02	25122
828.159	25179
828.298	25183
828.437	25126
828.577	25145
828.716	25217
828.855	25046
828.994	24810
829.134	24890
829.273	24894
829.412	24916
829.551	24719
829.69	24741
829.829	25008
829.968	24916
830.107	24924
830.246	24779
830.385	24703
830.524	24821
830.663	24658
830.802	24494
830.941	24460
831.08	24433
831.219	24544
831.357	24578
831.496	24776
831.635	24422
831.774	24327
831.913	24422
832.051	24273
832.19	24361
832.329	24114
832.467	24235
832.606	24079
832.744	24072
832.883	24148
833.022	24129
833.16	24125
833.299	24262
833.437	24182
833.576	24224
833.714	24194
833.852	24330
833.991	24273
834.129	24414
834.267	24277
834.406	24235
834.544	24426
834.682	24270
834.821	24262
834.959	24418
835.097	24133
835.235	24350
835.373	24228
835.511	24296
835.65	24079
835.788	24079
835.926	24015
836.064	23885
836.202	23931
836.34	24072
836.478	24220
836.615	24018
836.753	24064
836.891	24178
837.029	24053
837.167	23950
837.305	23980
837.443	23866
837.58	23790
837.718	23950
837.856	23874
837.993	23802
838.131	23878
838.269	23802
838.406	23817
838.544	23752
838.681	23585
838.819	23554
838.956	23531
839.094	23410
839.231	23303
839.369	23554
839.506	23748
839.643	23611
839.781	23482
839.918	23315
840.055	23337
840.193	23398
840.33	23284
840.467	23311
840.604	23353
840.742	23516
840.879	23166
841.016	23265
841.153	23079
841.29	23345
841.427	23303
841.564	23345
841.701	23261
841.838	23303
841.975	23200
842.112	23265
842.249	23041
842.385	23162
842.522	23242
842.659	23006
842.796	22995
842.933	23090
843.069	23098
843.206	23025
843.343	23102
843.479	23109
843.616	23094
843.752	22881
843.889	22786
844.025	23041
844.162	22786
844.298	22873
844.435	22877
844.571	22793
844.708	22725
844.844	22957
844.98	23143
845.117	22908
845.253	22862
845.389	22679
845.525	22668
845.661	22744
845.798	22577
845.934	22603
846.07	22634
846.206	22664
846.342	22664
846.478	22443
846.614	22455
846.75	22268
846.886	22287
847.022	22375
847.158	22390
847.294	22390
847.429	22253
847.565	22367
847.701	22527
847.837	22010
847.972	21956
848.108	22059
848.244	21983
848.379	21991
848.515	21835
848.65	21808
848.786	21907
848.921	21895
849.057	21998
849.192	22010
849.328	21937
849.463	21797
849.598	21869
849.734	21766
849.869	21762
850.004	21595
850.14	21675
850.275	21652
850.41	21580
850.545	21656
850.68	21523
850.815	21793
850.95	21709
851.085	21865
851.22	21747
851.355	21599
851.49	21660
851.625	21603
851.76	21603
851.895	21656
852.03	21591
852.165	21515
852.299	21720
852.434	21778
852.569	21709
852.703	21648
852.838	21682
852.973	21751
853.107	21759
853.242	21690
853.376	21519
853.511	21306
853.645	21439
853.78	21542
853.914	21466
854.048	21393
854.183	21454
854.317	21641
854.451	21709
854.585	21450
854.72	21572
854.854	21580
854.988	21504
855.122	21492
855.256	21287
855.39	21469
855.524	21538
855.658	21488
855.792	21450
855.926	21534
856.06	21557
856.194	21557
856.327	21492
856.461	21393
856.595	21507
856.729	21549
856.862	21572
856.996	21443
857.13	21515
857.263	21473
857.397	21568
857.53	21481
857.664	21557
857.797	21530
857.931	21652
858.064	21534
858.197	21625
858.331	21439
858.464	21348
858.597	21325
858.731	21458
858.864	21439
858.997	21367
859.13	21458
859.263	21412
859.396	21477
859.529	21420
859.662	21443
859.795	21496
859.928	21553
860.061	21526
860.194	21804
860.327	21458
860.46	21405
860.592	21599
860.725	21553
860.858	21614
860.99	21424
861.123	21382
861.256	21542
861.388	21458
861.521	22143
861.653	21359
861.786	21199
861.918	21416
862.05	21355
862.183	21325
862.315	21428
862.447	21454
862.58	21313
862.712	21104
862.844	21176
862.976	21291
863.108	21359
863.24	21542
863.372	21100
863.504	21230
863.636	21093
863.768	21230
863.9	21192
864.032	21192
864.164	21123
864.296	21180
864.428	21184
864.559	21184
864.691	21195
864.823	21218
864.954	21230
865.086	21203
865.217	21142
865.349	20990
865.48	21009
865.612	21226
865.743	21066
865.875	21157
866.006	21203
866.137	21119
866.269	20971
866.4	21055
866.531	21142
866.662	20883
866.793	20929
866.924	20971
867.055	21005
867.186	20956
867.317	21020
867.448	20883
867.579	21020
867.71	20960
867.841	20925
867.972	21089
868.103	21085
868.233	21051
868.364	21028
868.495	21077
868.625	21272
868.756	21256
868.886	21268
869.017	21233
869.147	21188
869.278	21351
869.408	21230
869.539	21226
869.669	21420
869.799	21302
869.929	21332
870.06	21393
870.19	21610
870.32	21599
870.45	21591
870.58	21701
870.71	21641
870.84	21564
870.97	21633
871.1	21663
871.23	21766
871.36	21789
871.489	21785
871.619	21785
871.749	21785
871.879	21949
872.008	21960
872.138	21949
872.267	21873
872.397	21701
872.526	21663
872.656	21747
872.785	21667
872.915	21876
873.044	21918
873.173	21930
873.303	21937
873.432	21911
873.561	21915
873.69	21937
873.819	21812
873.948	21998
874.077	21823
874.206	21778
874.335	21865
874.464	22029
874.593	22013
874.722	21998
874.851	22131
874.979	22150
875.108	22086
875.237	21994
875.365	22063
875.494	22116
875.623	22204
875.751	22051
875.88	22090
876.008	22299
876.136	22287
876.265	22523
876.393	22588
876.521	22577
876.65	22588
876.778	22523
876.906	22493
877.034	22462
877.162	22459
877.29	22341
877.418	22455
877.546	22428
877.674	22440
877.802	22371
877.93	22367
878.058	22405
878.185	22325
878.313	22314
878.441	22405
878.568	22253
878.696	22249
878.824	22459
878.951	22592
879.079	22653
879.206	22649
879.333	22660
879.461	22516
879.588	22504
879.715	22630
879.842	22736
879.97	22554
880.097	22226
880.224	22238
880.351	22360
880.478	22280
880.605	22169
880.732	22276
880.859	22546
880.986	22257
881.112	22291
881.239	22131
881.366	21972
881.493	21926
881.619	21838
881.746	21880
881.872	21785
881.999	21736
882.125	21812
882.252	21915
882.378	21831
882.505	21892
882.631	21679
882.757	21549
882.883	21785
883.01	21732
883.136	21466
883.262	21477
883.388	21389
883.514	21603
883.64	21526
883.766	21466
883.892	21256
884.018	21363
884.143	21538
884.269	21492
884.395	21214
884.52	21138
884.646	21146
884.772	21154
884.897	20998
885.023	21161
885.148	21367
885.274	21332
885.399	21211
885.524	21256
885.65	21176
885.775	21066
885.9	21138
886.025	21329
886.15	21199
886.275	21165
886.4	21005
886.525	21146
886.65	21058
886.775	21100
886.9	21317
887.025	21416
887.149	21108
887.274	20921
887.399	20994
887.523	20982
887.648	20925
887.773	20925
887.897	21055
888.021	20994
888.146	20712
888.27	21013
888.395	20941
888.519	21119
888.643	20937
888.767	20857
888.891	20830
889.015	20705
889.139	20815
889.263	20781
889.387	20956
889.511	21081
889.635	20880
889.759	20750
889.883	20697
890.006	20785
890.13	20819
890.254	20667
890.377	20705
890.501	20480
890.624	20526
890.748	20583
890.871	20381
890.995	20324
891.118	20161
891.241	20240
891.364	20377
891.488	20446
891.611	20419
891.734	20313
891.857	20282
891.98	20343
892.103	20362
892.226	20355
892.349	20248
892.471	20012
892.594	20195
892.717	20278
892.839	20027
892.962	20267
893.085	20240
893.207	20157
893.33	20005
893.452	20134
893.575	20404
893.697	20275
893.819	20434
893.941	20469
894.064	20377
894.186	20134
894.308	20214
894.43	20351
894.552	20320
894.674	20282
894.796	20081
894.918	20180
895.04	20176
895.161	20385
895.283	20183
895.405	20119
895.526	20199
895.648	20161
895.769	20221
895.891	20153
896.012	20225
896.134	20195
896.255	20202
896.376	20153
896.498	20115
896.619	20229
896.74	20088
896.861	20328
896.982	20419
897.103	20568
897.224	20545
897.345	20503
897.466	20400
897.587	20423
897.708	20484
897.828	20396
897.949	20320
898.07	20142
898.19	20366
898.311	20457
898.431	20385
898.552	20301
898.672	20514
898.792	20423
898.913	20446
899.033	20252
899.153	20153
899.273	20043
899.393	20115
899.513	20202
899.633	20202
899.753	20130
899.873	20081
899.993	20130
900.113	20100
900.232	20191
900.352	20020
900.472	20039
900.591	19887
900.711	19898
900.83	19902
900.95	20008
901.069	19913
901.189	19776
901.308	19597
901.427	19582
901.546	19502
901.665	19601
901.784	19499
901.904	19430
902.023	19358
902.141	19053
902.26	18962
902.379	19137
902.498	19038
902.617	19012
902.735	19084
902.854	18966
902.973	19031
903.091	18738
903.21	18719
903.328	18650
903.446	18532
903.565	18490
903.683	18547
903.801	18350
903.919	18448
904.038	18467
904.156	18361
904.274	18361
904.392	18228
904.51	18148
904.627	18308
904.745	18292
904.863	18426
904.981	18079
905.098	18003
905.216	17950
905.334	17927
905.451	17904
905.569	17958
905.686	18019
905.803	17961
905.921	17745
906.038	17897
906.155	17756
906.272	17615
906.389	17543
906.506	17417
906.623	17505
906.74	17478
906.857	17387
906.974	17315
907.091	17543
907.208	17596
907.324	17505
907.441	17273
907.557	17231
907.674	17303
907.79	17052
907.907	17288
908.023	17273
908.139	17178
908.256	17170
908.372	17056
908.488	17064
908.604	16991
908.72	16809
908.836	16873
908.952	16885
909.068	16911
909.184	17037
909.3	16820
909.415	16911
909.531	16957
909.647	16664
909.762	16710
909.878	16569
909.993	16645
910.108	16641
910.224	16531
910.339	16626
910.454	16489
910.57	16504
910.685	16337
910.8	16565
910.915	16607
911.03	16409
911.145	16295
911.259	16249
911.374	16215
911.489	16196
911.604	16101
911.718	16002
911.833	15926
911.947	15789
912.062	15720
912.176	15991
912.291	15968
912.405	16017
912.519	16101
912.633	16048
912.748	15953
912.862	15869
912.976	15888
913.09	15580
913.204	15690
913.318	15698
913.431	15994
913.545	15808
913.659	15861
913.772	15694
913.886	15614
914	15603
914.113	15705
914.226	15717
914.34	15652
914.453	15507
914.566	15618
914.68	15523
914.793	15488
914.906	15173
915.019	15260
915.132	15150
915.245	15119
915.358	15104
915.47	15104
915.583	15154
915.696	15165
915.809	15233
915.921	15329
916.034	15138
916.146	15077
916.259	15112
916.371	15195
916.483	15142
916.595	15032
916.708	15051
916.82	14994
916.932	14963
917.044	14914
917.156	14883
917.268	14811
917.38	14781
917.491	14739
917.603	14769
917.715	14849
917.826	14887
917.938	14788
918.049	14689
918.161	14811
918.272	14845
918.384	14834
918.495	14834
918.606	14682
918.717	14552
918.828	14667
918.939	14621
919.05	14552
919.161	14568
919.272	14393
919.383	14393
919.494	14579
919.604	14735
919.715	14587
919.826	14427
919.936	14511
920.047	14629
920.157	14560
920.267	14792
920.378	14427
920.488	14446
920.598	14712
920.708	14819
920.818	14682
920.928	14610
921.038	14807
921.148	14804
921.258	14530
921.368	14362
921.477	14320
921.587	14138
921.697	14290
921.806	14221
921.916	14069
922.025	13947
922.134	13986
922.244	13875
922.353	13940
922.462	13803
922.571	13731
922.68	13571
922.789	13540
922.898	13468
923.007	13544
923.116	13620
923.224	13563
923.333	13639
923.442	13438
923.55	13362
923.659	13358
923.767	13472
923.876	13297
923.984	13480
924.092	13282
924.201	13225
924.309	13293
924.417	13430
924.525	13118
924.633	13236
924.741	14214
924.849	13053
924.956	13118
925.064	13008
925.172	12863
925.279	12875
925.387	12878
925.494	13038
925.602	13103
925.709	12977
925.816	12810
925.924	12844
926.031	12962
926.138	12863
926.245	12848
926.352	12817
926.459	12958
926.566	12924
926.673	12848
926.779	12757
926.886	12753
926.993	12570
927.099	12601
927.206	12494
927.312	12460
927.419	12585
927.525	12582
927.631	12452
927.737	12490
927.843	12391
927.95	12311
928.056	12384
928.162	12422
928.267	12407
928.373	12890
928.479	12464
928.585	12152
928.69	12327
928.796	12372
928.901	12171
929.007	12152
929.112	12213
929.218	12182
929.323	12060
929.428	12026
929.533	12220
929.638	12144
929.743	12003
929.848	12022
929.953	12083
930.058	11912
930.163	11756
930.267	11798
930.372	11923
930.477	11672
930.581	12007
930.685	11828
930.79	11627
930.894	11710
930.998	11638
931.103	11767
931.207	11360
931.311	11337
931.415	11242
931.519	11048
931.623	10995
