Data from test_V78500241_965.txt Node
Date: Fri Mar 25 15:16:34 CST 2022
User: usil
Spectrometer: V785-0024
Trigger mode: 0
Integration Time (sec): 4.000000E-1
Scans to average: 1
Nonlinearity correction enabled: false
Boxcar width: 0
Storing dark spectrum: false
XAxis mode: Wavelengths
Number of Pixels in Spectrum: 1024
>>>>>Begin Spectral Data<<<<<
801.071	28055
801.214	27983
801.356	27747
801.499	27629
801.641	27450
801.783	27549
801.926	27492
802.068	27481
802.211	27462
802.353	27336
802.496	27226
802.638	27211
802.78	27260
802.923	27279
803.065	27142
803.208	27150
803.35	27116
803.492	27332
803.635	27515
803.777	27363
803.919	27507
804.061	27701
804.204	27359
804.346	27435
804.488	27279
804.63	27431
804.773	27218
804.915	27405
805.057	27545
805.199	27344
805.341	27564
805.483	27519
805.626	27507
805.768	27397
805.91	27530
806.052	27466
806.194	27317
806.336	27743
806.478	27679
806.62	27606
806.762	27663
806.904	27739
807.046	28097
807.188	28055
807.33	27945
807.472	28006
807.614	27994
807.756	27895
807.898	27926
808.04	27873
808.182	27914
808.324	27941
808.465	27869
808.607	28070
808.749	28249
808.891	28306
809.033	28276
809.174	28253
809.316	28055
809.458	28306
809.6	28162
809.741	28192
809.883	28344
810.025	28497
810.166	28523
810.308	28447
810.45	28481
810.591	28375
810.733	28207
810.875	28295
811.016	28177
811.158	28048
811.299	28409
811.441	28333
811.582	28295
811.724	28131
811.865	28131
812.007	28074
812.148	28204
812.29	28185
812.431	28352
812.573	28542
812.714	28786
812.855	28740
812.997	28908
813.138	28957
813.279	28831
813.421	28923
813.562	28748
813.703	28599
813.845	28382
813.986	28207
814.127	27987
814.268	27941
814.41	27945
814.551	27998
814.692	28029
814.833	27842
814.974	27793
815.115	27850
815.256	27720
815.397	27713
815.539	27736
815.68	27705
815.821	27686
815.962	27724
816.103	27759
816.244	27538
816.385	27538
816.526	27576
816.666	27268
816.807	27192
816.948	27203
817.089	27332
817.23	27317
817.371	27310
817.512	27283
817.653	27150
817.793	27207
817.934	27264
818.075	27336
818.216	27180
818.356	27154
818.497	27184
818.638	27009
818.778	26971
818.919	27036
819.06	26944
819.2	26971
819.341	27165
819.481	27256
819.622	27256
819.762	27557
819.903	27466
820.043	27599
820.184	27412
820.324	27374
820.465	27310
820.605	27416
820.746	27298
820.886	27180
821.026	27260
821.167	27180
821.307	27370
821.447	27195
821.588	27085
821.728	26998
821.868	26834
822.008	26636
822.149	26632
822.289	26701
822.429	26499
822.569	26328
822.709	26309
822.849	26126
822.99	26088
823.13	26111
823.27	26157
823.41	25974
823.55	25890
823.69	26077
823.83	26122
823.97	26020
824.11	25807
824.25	25772
824.389	25845
824.529	26210
824.669	25860
824.809	26020
824.949	25944
825.089	25997
825.228	25951
825.368	25757
825.508	25772
825.648	25696
825.787	25849
825.927	25803
826.067	25624
826.206	25727
826.346	25753
826.485	25826
826.625	25765
826.765	25849
826.904	25852
827.044	25578
827.183	25624
827.323	25476
827.462	25483
827.601	25594
827.741	25506
827.88	25571
828.02	25335
828.159	25411
828.298	25434
828.437	25540
828.577	25415
828.716	25544
828.855	25594
828.994	25350
829.134	25168
829.273	25263
829.412	25141
829.551	25084
829.69	25053
829.829	25148
829.968	25209
830.107	25301
830.246	25061
830.385	24996
830.524	25053
830.663	25023
830.802	24798
830.941	24863
831.08	24745
831.219	24791
831.357	24932
831.496	25027
831.635	24806
831.774	24749
831.913	24654
832.051	24563
832.19	24623
832.329	24692
832.467	24391
832.606	24433
832.744	24460
832.883	24407
833.022	24509
833.16	24509
833.299	24540
833.437	24540
833.576	24738
833.714	24498
833.852	24563
833.991	24589
834.129	24604
834.267	24620
834.406	24578
834.544	24631
834.682	24650
834.821	24566
834.959	24722
835.097	24407
835.235	24555
835.373	24509
835.511	24540
835.65	24357
835.788	24403
835.926	24262
836.064	24197
836.202	24201
836.34	24426
836.478	24384
836.615	24388
836.753	24391
836.891	24369
837.029	24319
837.167	24388
837.305	24384
837.443	24243
837.58	24296
837.718	24395
837.856	24327
837.993	24178
838.131	24197
838.269	24057
838.406	24190
838.544	24178
838.681	23847
838.819	23851
838.956	23775
839.094	23634
839.231	23790
839.369	23786
839.506	23992
839.643	23988
839.781	23653
839.918	23653
840.055	23752
840.193	23646
840.33	23726
840.467	23615
840.604	23737
840.742	23961
840.879	23646
841.016	23547
841.153	23516
841.29	23748
841.427	23547
841.564	23638
841.701	23615
841.838	23505
841.975	23493
842.112	23474
842.249	23376
842.385	23425
842.522	23608
842.659	23391
842.796	23341
842.933	23372
843.069	23326
843.206	23376
843.343	23330
843.479	23493
843.616	23269
843.752	23185
843.889	23162
844.025	23204
844.162	23128
844.298	23193
844.435	23170
844.571	23064
844.708	23220
844.844	23269
844.98	23216
845.117	23162
845.253	23105
845.389	23109
845.525	23033
845.661	23033
845.798	22923
845.934	22869
846.07	22904
846.206	22828
846.342	23052
846.478	22869
846.614	22725
846.75	22596
846.886	22538
847.022	22611
847.158	22713
847.294	22675
847.429	22634
847.565	22573
847.701	22820
847.837	22284
847.972	22337
848.108	22504
848.244	22428
848.379	22219
848.515	22162
848.65	22192
848.786	22249
848.921	22158
849.057	22333
849.192	22219
849.328	22253
849.463	22173
849.598	22124
849.734	22013
849.869	22017
850.004	21926
850.14	22078
850.275	21975
850.41	21953
850.545	21911
850.68	21861
850.815	21979
850.95	21907
851.085	22021
851.22	22120
851.355	22055
851.49	21930
851.625	21949
851.76	21838
851.895	21823
852.03	21876
852.165	21994
852.299	21960
852.434	22036
852.569	21930
852.703	21972
852.838	22112
852.973	21964
853.107	22021
853.242	21998
853.376	21831
853.511	21736
853.645	21736
853.78	22006
853.914	21682
854.048	21770
854.183	21804
854.317	21739
854.451	21960
854.585	21770
854.72	21759
854.854	21968
854.988	21751
855.122	21736
855.256	21675
855.39	21759
855.524	21937
855.658	21899
855.792	21759
855.926	21739
856.06	21793
856.194	21918
856.327	21861
856.461	21743
856.595	21690
856.729	21770
856.862	21994
856.996	21762
857.13	21804
857.263	21934
857.397	21812
857.53	21827
857.664	21922
857.797	21800
857.931	21960
858.064	21739
858.197	21941
858.331	21610
858.464	21812
858.597	21572
858.731	21797
858.864	21720
858.997	21701
859.13	21876
859.263	21831
859.396	21949
859.529	21766
859.662	21698
859.795	21644
859.928	21739
860.061	21880
860.194	21964
860.327	21816
860.46	21823
860.592	21873
860.725	21968
860.858	21934
860.99	21781
861.123	21682
861.256	21728
861.388	21747
861.521	22489
861.653	21755
861.786	21568
861.918	21587
862.05	21682
862.183	21846
862.315	21682
862.447	21819
862.58	21690
862.712	21504
862.844	21431
862.976	21618
863.108	21530
863.24	21743
863.372	21431
863.504	21469
863.636	21500
863.768	21447
863.9	21477
864.032	21450
864.164	21401
864.296	21458
864.428	21545
864.559	21393
864.691	21599
864.823	21447
864.954	21428
865.086	21492
865.217	21272
865.349	21325
865.48	21359
865.612	21355
865.743	21412
865.875	21424
866.006	21466
866.137	21428
866.269	21374
866.4	21355
866.531	21294
866.662	21241
866.793	21249
866.924	21256
867.055	21348
867.186	21199
867.317	21268
867.448	21131
867.579	21329
867.71	21268
867.841	21116
867.972	21439
868.103	21310
868.233	21252
868.364	21306
868.495	21370
868.625	21553
868.756	21637
868.886	21507
869.017	21561
869.147	21576
869.278	21766
869.408	21625
869.539	21572
869.669	21652
869.799	21622
869.929	21625
870.06	21603
870.19	21907
870.32	21812
870.45	21778
870.58	21956
870.71	22150
870.84	22074
870.97	21956
871.1	21972
871.23	21983
871.36	22063
871.489	22025
871.619	22048
871.749	22150
871.879	22105
872.008	22291
872.138	22067
872.267	22185
872.397	22078
872.526	21964
872.656	21956
872.785	21975
872.915	21953
873.044	22230
873.173	22177
873.303	22242
873.432	22219
873.561	22200
873.69	22147
873.819	22169
873.948	22242
874.077	22150
874.206	22048
874.335	22101
874.464	22246
874.593	22481
874.722	22196
874.851	22440
874.979	22379
875.108	22287
875.237	22382
875.365	22310
875.494	22303
875.623	22363
875.751	22390
875.88	22314
876.008	22493
876.136	22634
876.265	22618
876.393	22816
876.521	22774
876.65	22763
876.778	22793
876.906	22725
877.034	22748
877.162	22675
877.29	22683
877.418	22889
877.546	22588
877.674	22729
877.802	22755
877.93	22630
878.058	22698
878.185	22634
878.313	22577
878.441	22630
878.568	22489
878.696	22557
878.824	22733
878.951	22740
879.079	22812
879.206	23037
879.333	22778
879.461	22694
879.588	22839
879.715	22938
879.842	22942
879.97	22721
880.097	22607
880.224	22516
880.351	22508
880.478	22519
880.605	22523
880.732	22573
880.859	22683
880.986	22660
881.112	22508
881.239	22402
881.366	22295
881.493	22215
881.619	22120
881.746	22086
881.872	22074
881.999	22025
882.125	22051
882.252	22150
882.378	22086
882.505	22196
882.631	21899
882.757	21884
882.883	21911
883.01	21800
883.136	21686
883.262	21572
883.388	21576
883.514	21736
883.64	21816
883.766	21690
883.892	21519
884.018	21458
884.143	21713
884.269	21831
884.395	21458
884.52	21382
884.646	21431
884.772	21378
884.897	21275
885.023	21389
885.148	21500
885.274	21587
885.399	21530
885.524	21408
885.65	21378
885.775	21450
885.9	21336
886.025	21488
886.15	21401
886.275	21329
886.4	21249
886.525	21458
886.65	21313
886.775	21340
886.9	21614
887.025	21698
887.149	21279
887.274	21226
887.399	21272
887.523	21192
887.648	21077
887.773	21199
887.897	21218
888.021	21241
888.146	21096
888.27	21272
888.395	21283
888.519	21165
888.643	21135
888.767	21192
888.891	21085
889.015	20998
889.139	21077
889.263	21039
889.387	21176
889.511	21245
889.635	21093
889.759	20937
889.883	21020
890.006	21036
890.13	21032
890.254	20811
890.377	20998
890.501	20864
890.624	20689
890.748	20724
890.871	20674
890.995	20499
891.118	20587
891.241	20541
891.364	20640
891.488	20583
891.611	20636
891.734	20518
891.857	20530
891.98	20632
892.103	20640
892.226	20530
892.349	20533
892.471	20385
892.594	20427
892.717	20503
892.839	20438
892.962	20419
893.085	20473
893.207	20476
893.33	20381
893.452	20511
893.575	20419
893.697	20480
893.819	20575
893.941	20640
894.064	20545
894.186	20294
894.308	20389
894.43	20484
894.552	20640
894.674	20503
894.796	20298
894.918	20301
895.04	20282
895.161	20377
895.283	20374
895.405	20469
895.526	20457
895.648	20358
895.769	20244
895.891	20492
896.012	20541
896.134	20579
896.255	20473
896.376	20412
896.498	20415
896.619	20408
896.74	20492
896.861	20473
896.982	20655
897.103	20902
897.224	20743
897.345	20689
897.466	20613
897.587	20579
897.708	20910
897.828	20590
897.949	20499
898.07	20423
898.19	20514
898.311	20708
898.431	20571
898.552	20594
898.672	20598
898.792	20743
898.913	20644
899.033	20526
899.153	20396
899.273	20305
899.393	20454
899.513	20374
899.633	20465
899.753	20434
899.873	20324
899.993	20457
900.113	20267
900.232	20355
900.352	20214
900.472	20138
900.591	20157
900.711	20195
900.83	20149
900.95	20298
901.069	20298
901.189	20084
901.308	19696
901.427	19647
901.546	19761
901.665	19655
901.784	19677
901.904	19502
902.023	19510
902.141	19282
902.26	19274
902.379	19381
902.498	19289
902.617	19236
902.735	19183
902.854	19247
902.973	19225
903.091	18985
903.21	18897
903.328	18905
903.446	18821
903.565	18688
903.683	18753
903.801	18684
903.919	18642
904.038	18627
904.156	18498
904.274	18525
904.392	18544
904.51	18475
904.627	18467
904.745	18380
904.863	18544
904.981	18254
905.098	18220
905.216	18121
905.334	18174
905.451	18205
905.569	18125
905.686	18152
905.803	18114
905.921	17999
906.038	18011
906.155	17935
906.272	17893
906.389	17813
906.506	17668
906.623	17805
906.74	17638
906.857	17649
906.974	17558
907.091	17722
907.208	17760
907.324	17653
907.441	17627
907.557	17554
907.674	17395
907.79	17292
907.907	17288
908.023	17376
908.139	17448
908.256	17258
908.372	17280
908.488	17315
908.604	17048
908.72	17109
908.836	17022
908.952	17067
909.068	17178
909.184	17235
909.3	17162
909.415	17140
909.531	17151
909.647	16831
909.762	16740
909.878	16839
909.993	16793
910.108	16835
910.224	16679
910.339	16630
910.454	16786
910.57	16675
910.685	16561
910.8	16854
910.915	16740
911.03	16649
911.145	16489
911.259	16405
911.374	16379
911.489	16310
911.604	16246
911.718	16226
911.833	16105
911.947	16150
912.062	15941
912.176	16223
912.291	16215
912.405	16105
912.519	16356
912.633	16265
912.748	16238
912.862	16158
912.976	16040
913.09	15937
913.204	15975
913.318	15987
913.431	16002
913.545	16090
913.659	16048
913.772	15964
913.886	15751
914	15709
914.113	15850
914.226	15831
914.34	15778
914.453	15648
914.566	15781
914.68	15644
914.793	15595
914.906	15500
915.019	15469
915.132	15344
915.245	15336
915.358	15443
915.47	15370
915.583	15351
915.696	15332
915.809	15412
915.921	15507
916.034	15378
916.146	15283
916.259	15298
916.371	15298
916.483	15321
916.595	15222
916.708	15108
916.82	15195
916.932	15138
917.044	15176
917.156	15100
917.268	14921
917.38	15093
917.491	14963
917.603	14876
917.715	15020
917.826	15104
917.938	14921
918.049	14765
918.161	14910
918.272	15036
918.384	14990
918.495	14941
918.606	14765
918.717	14792
918.828	14842
918.939	14834
919.05	14640
919.161	14560
919.272	14514
919.383	14514
919.494	14739
919.604	14986
919.715	14781
919.826	14670
919.936	14701
920.047	14750
920.157	14686
920.267	14800
920.378	14735
920.488	14606
920.598	14925
920.708	15032
920.818	14830
920.928	14902
921.038	14925
921.148	14944
921.258	14629
921.368	14571
921.477	14503
921.587	14469
921.697	14305
921.806	14415
921.916	14339
922.025	14115
922.134	14039
922.244	14054
922.353	14145
922.462	14020
922.571	13921
922.68	13719
922.789	13712
922.898	13677
923.007	13689
923.116	13814
923.224	13670
923.333	13658
923.442	13521
923.55	13537
923.659	13567
923.767	13586
923.876	13354
923.984	13624
924.092	13518
924.201	13426
924.309	13480
924.417	13415
924.525	13384
924.633	13354
924.741	14328
924.849	13225
924.956	13373
925.064	13209
925.172	13129
925.279	13099
925.387	13114
925.494	13152
925.602	13236
925.709	13118
925.816	13065
925.924	13156
926.031	13107
926.138	13149
926.245	13107
926.352	12993
926.459	13084
926.566	13099
926.673	12996
926.779	12856
926.886	12901
926.993	12692
927.099	12738
927.206	12601
927.312	12585
927.419	12650
927.525	12681
927.631	12741
927.737	12536
927.843	12540
927.95	12475
928.056	12532
928.162	12574
928.267	12601
928.373	13107
928.479	12589
928.585	12384
928.69	12494
928.796	12471
928.901	12384
929.007	12216
929.112	12369
929.218	12338
929.323	12270
929.428	12209
929.533	12365
929.638	12136
929.743	12216
929.848	12216
929.953	12171
930.058	12060
930.163	11942
930.267	11931
930.372	12083
930.477	11847
930.581	12060
930.685	11980
930.79	11832
930.894	11794
930.998	11790
931.103	11893
931.207	11581
931.311	11512
931.415	11429
931.519	11208
931.623	11162
