Data from test_V78500241_2386.txt Node
Date: Fri Mar 25 15:26:28 CST 2022
User: usil
Spectrometer: V785-0024
Trigger mode: 0
Integration Time (sec): 4.000000E-1
Scans to average: 1
Nonlinearity correction enabled: false
Boxcar width: 0
Storing dark spectrum: false
XAxis mode: Wavelengths
Number of Pixels in Spectrum: 1024
>>>>>Begin Spectral Data<<<<<
801.071	27382
801.214	27157
801.356	26963
801.499	27013
801.641	26758
801.783	26864
801.926	27047
802.068	26807
802.211	26712
802.353	26792
802.496	26609
802.638	26507
802.78	26465
802.923	26298
803.065	26328
803.208	26476
803.35	26617
803.492	26453
803.635	26655
803.777	26606
803.919	26640
804.061	26963
804.204	26598
804.346	26537
804.488	26518
804.63	26663
804.773	26522
804.915	26705
805.057	26746
805.199	26712
805.341	26754
805.483	26823
805.626	26648
805.768	26746
805.91	26781
806.052	26861
806.194	26834
806.336	26910
806.478	26769
806.62	26804
806.762	26902
806.904	26975
807.046	27287
807.188	27294
807.33	27264
807.472	27180
807.614	27154
807.756	27237
807.898	26979
808.04	27138
808.182	27001
808.324	26998
808.465	27150
808.607	27245
808.749	27310
808.891	27439
809.033	27580
809.174	27526
809.316	27435
809.458	27302
809.6	27427
809.741	27534
809.883	27500
810.025	27507
810.166	27667
810.308	27724
810.45	27705
810.591	27545
810.733	27618
810.875	27427
811.016	27325
811.158	27180
811.299	27302
811.441	27572
811.582	27485
811.724	27557
811.865	27393
812.007	27298
812.148	27420
812.29	27462
812.431	27523
812.573	27728
812.714	27816
812.855	27892
812.997	27960
813.138	28169
813.279	28048
813.421	27842
813.562	27918
813.703	27641
813.845	27553
813.986	27344
814.127	27184
814.268	27085
814.41	27074
814.551	27001
814.692	27218
814.833	26918
814.974	26940
815.115	27047
815.256	26906
815.397	26758
815.539	26982
815.68	26876
815.821	26925
815.962	26910
816.103	26883
816.244	26670
816.385	26552
816.526	26602
816.666	26465
816.807	26278
816.948	26412
817.089	26419
817.23	26404
817.371	26317
817.512	26214
817.653	26366
817.793	26221
817.934	26309
818.075	26377
818.216	26336
818.356	26199
818.497	26233
818.638	26039
818.778	25993
818.919	26157
819.06	26005
819.2	26240
819.341	26343
819.481	26355
819.622	26499
819.762	26697
819.903	26507
820.043	26476
820.184	26404
820.324	26469
820.465	26461
820.605	26408
820.746	26419
820.886	26237
821.026	26396
821.167	26404
821.307	26408
821.447	26301
821.588	26183
821.728	26031
821.868	25947
822.008	25746
822.149	25932
822.289	25898
822.429	25514
822.569	25381
822.709	25354
822.849	25362
822.99	25244
823.13	25232
823.27	25194
823.41	25202
823.55	24875
823.69	25110
823.83	25346
823.97	25057
824.11	24901
824.25	24894
824.389	24871
824.529	24890
824.669	25046
824.809	24989
824.949	24970
825.089	25023
825.228	24951
825.368	24749
825.508	24612
825.648	24795
825.787	24848
825.927	24875
826.067	24802
826.206	24863
826.346	24802
826.485	24840
826.625	24837
826.765	24951
826.904	24863
827.044	24650
827.183	24540
827.323	24464
827.462	24304
827.601	24437
827.741	24513
827.88	24426
828.02	24365
828.159	24490
828.298	24540
828.437	24585
828.577	24353
828.716	24563
828.855	24384
828.994	24098
829.134	24171
829.273	24194
829.412	24296
829.551	24053
829.69	24178
829.829	24163
829.968	24232
830.107	24399
830.246	24133
830.385	24182
830.524	24087
830.663	24076
830.802	23980
830.941	23927
831.08	23802
831.219	23813
831.357	23863
831.496	23939
831.635	23695
831.774	23775
831.913	23680
832.051	23722
832.19	23589
832.329	23547
832.467	23505
832.606	23444
832.744	23471
832.883	23531
833.022	23501
833.16	23482
833.299	23535
833.437	23497
833.576	23611
833.714	23627
833.852	23623
833.991	23573
834.129	23623
834.267	23581
834.406	23619
834.544	23638
834.682	23634
834.821	23577
834.959	23684
835.097	23551
835.235	23604
835.373	23570
835.511	23573
835.65	23391
835.788	23341
835.926	23269
836.064	23254
836.202	23284
836.34	23387
836.478	23497
836.615	23250
836.753	23296
836.891	23440
837.029	23417
837.167	23345
837.305	23254
837.443	23246
837.58	23277
837.718	23246
837.856	23364
837.993	23227
838.131	23105
838.269	23204
838.406	23151
838.544	23067
838.681	22968
838.819	22824
838.956	22656
839.094	22706
839.231	22721
839.369	22877
839.506	23060
839.643	22854
839.781	22694
839.918	22634
840.055	22687
840.193	22603
840.33	22702
840.467	22634
840.604	22664
840.742	22908
840.879	22516
841.016	22569
841.153	22523
841.29	22733
841.427	22470
841.564	22691
841.701	22618
841.838	22504
841.975	22527
842.112	22466
842.249	22394
842.385	22268
842.522	22481
842.659	22386
842.796	22459
842.933	22314
843.069	22417
843.206	22375
843.343	22394
843.479	22382
843.616	22421
843.752	22181
843.889	22169
844.025	22204
844.162	22166
844.298	22284
844.435	22086
844.571	22109
844.708	22120
844.844	22356
844.98	22249
845.117	22173
845.253	22078
845.389	21983
845.525	22063
845.661	22025
845.798	21774
845.934	21945
846.07	21823
846.206	21941
846.342	21949
846.478	21869
846.614	21660
846.75	21610
846.886	21603
847.022	21656
847.158	21732
847.294	21614
847.429	21690
847.565	21553
847.701	21884
847.837	21454
847.972	21291
848.108	21458
848.244	21481
848.379	21291
848.515	21249
848.65	21245
848.786	21203
848.921	21211
849.057	21214
849.192	21203
849.328	21268
849.463	21192
849.598	21131
849.734	21157
849.869	21089
850.004	21051
850.14	20975
850.275	21077
850.41	20857
850.545	20910
850.68	20864
850.815	21055
850.95	21001
851.085	21112
851.22	21127
851.355	20948
851.49	20986
851.625	20941
851.76	20979
851.895	20887
852.03	20975
852.165	20982
852.299	21055
852.434	21096
852.569	20929
852.703	20994
852.838	20963
852.973	21169
853.107	21169
853.242	20861
853.376	20777
853.511	20693
853.645	20781
853.78	20830
853.914	20777
854.048	20804
854.183	20754
854.317	20819
854.451	20994
854.585	20861
854.72	20925
854.854	20963
854.988	20773
855.122	20739
855.256	20651
855.39	20880
855.524	20842
855.658	20929
855.792	20815
855.926	20857
856.06	20834
856.194	20891
856.327	20800
856.461	20769
856.595	20838
856.729	20754
856.862	20914
856.996	20933
857.13	20937
857.263	21009
857.397	20937
857.53	20842
857.664	20895
857.797	20781
857.931	20952
858.064	20872
858.197	20975
858.331	20743
858.464	20906
858.597	20701
858.731	20743
858.864	20807
858.997	20670
859.13	20804
859.263	20887
859.396	20876
859.529	20720
859.662	20796
859.795	20918
859.928	20765
860.061	20883
860.194	20975
860.327	20769
860.46	20842
860.592	20902
860.725	20963
860.858	20872
860.99	20739
861.123	20682
861.256	20743
861.388	20838
861.521	21355
861.653	20640
861.786	20674
861.918	20625
862.05	20659
862.183	20727
862.315	20701
862.447	20769
862.58	20743
862.712	20606
862.844	20476
862.976	20609
863.108	20518
863.24	21020
863.372	20488
863.504	20511
863.636	20648
863.768	20541
863.9	20606
864.032	20389
864.164	20537
864.296	20583
864.428	20629
864.559	20663
864.691	20667
864.823	20556
864.954	20507
865.086	20537
865.217	20511
865.349	20370
865.48	20473
865.612	20393
865.743	20484
865.875	20454
866.006	20377
866.137	20419
866.269	20446
866.4	20427
866.531	20370
866.662	20275
866.793	20404
866.924	20332
867.055	20412
867.186	20507
867.317	20408
867.448	20301
867.579	20324
867.71	20313
867.841	20282
867.972	20320
868.103	20278
868.233	20317
868.364	20396
868.495	20461
868.625	20526
868.756	20815
868.886	20571
869.017	20674
869.147	20674
869.278	20838
869.408	20568
869.539	20549
869.669	20693
869.799	20564
869.929	20788
870.06	20602
870.19	20990
870.32	20845
870.45	20838
870.58	20891
870.71	21058
870.84	21119
870.97	20925
871.1	21058
871.23	21165
871.36	21135
871.489	21123
871.619	21211
871.749	21135
871.879	21237
872.008	21401
872.138	21294
872.267	21138
872.397	21039
872.526	21043
872.656	21051
872.785	21032
872.915	21184
873.044	21298
873.173	21142
873.303	21146
873.432	21351
873.561	21173
873.69	21195
873.819	21321
873.948	21252
874.077	21195
874.206	21268
874.335	21165
874.464	21332
874.593	21462
874.722	21488
874.851	21447
874.979	21500
875.108	21477
875.237	21340
875.365	21321
875.494	21416
875.623	21515
875.751	21355
875.88	21492
876.008	21564
876.136	21610
876.265	21854
876.393	21998
876.521	21915
876.65	21994
876.778	21964
876.906	21838
877.034	21899
877.162	21857
877.29	21717
877.418	21808
877.546	21781
877.674	21804
877.802	21876
877.93	21842
878.058	21766
878.185	21743
878.313	21755
878.441	21747
878.568	21591
878.696	21831
878.824	21850
878.951	21857
879.079	21934
879.206	22051
879.333	21949
879.461	21873
879.588	21968
879.715	21998
879.842	22044
879.97	21953
880.097	21603
880.224	21770
880.351	21675
880.478	21641
880.605	21663
880.732	21660
880.859	21903
880.986	21660
881.112	21755
881.239	21568
881.366	21351
881.493	21306
881.619	21268
881.746	21283
881.872	21237
881.999	21279
882.125	21207
882.252	21260
882.378	21230
882.505	21393
882.631	21161
882.757	21077
882.883	21074
883.01	20914
883.136	20941
883.262	20872
883.388	20682
883.514	20883
883.64	20929
883.766	20887
883.892	20689
884.018	20777
884.143	20948
884.269	20845
884.395	20720
884.52	20640
884.646	20552
884.772	20712
884.897	20541
885.023	20648
885.148	20625
885.274	20716
885.399	20674
885.524	20598
885.65	20701
885.775	20678
885.9	20629
886.025	20606
886.15	20655
886.275	20556
886.4	20530
886.525	20587
886.65	20415
886.775	20393
886.9	20640
887.025	20948
887.149	20522
887.274	20400
887.399	20381
887.523	20423
887.648	20313
887.773	20267
887.897	20396
888.021	20358
888.146	20294
888.27	20556
888.395	20503
888.519	20275
888.643	20343
888.767	20495
888.891	20301
889.015	20130
889.139	20328
889.263	20149
889.387	20358
889.511	20518
889.635	20317
889.759	20096
889.883	20153
890.006	20149
890.13	20267
890.254	20214
890.377	20195
890.501	19974
890.624	19894
890.748	20119
890.871	19852
890.995	19693
891.118	19658
891.241	19837
891.364	19753
891.488	19719
891.611	19662
891.734	19750
891.857	19849
891.98	19757
892.103	19811
892.226	19719
892.349	19784
892.471	19609
892.594	19647
892.717	19693
892.839	19624
892.962	19712
893.085	19727
893.207	19696
893.33	19597
893.452	19624
893.575	19635
893.697	19635
893.819	19887
893.941	19864
894.064	19681
894.186	19651
894.308	19559
894.43	19761
894.552	19742
894.674	19765
894.796	19647
894.918	19533
895.04	19605
895.161	19784
895.283	19563
895.405	19472
895.526	19685
895.648	19788
895.769	19674
895.891	19677
896.012	19753
896.134	19715
896.255	19651
896.376	19628
896.498	19628
896.619	19708
896.74	19635
896.861	19795
896.982	19909
897.103	20065
897.224	19894
897.345	19864
897.466	19909
897.587	19871
897.708	19963
897.828	20005
897.949	19826
898.07	19719
898.19	19879
898.311	19875
898.431	19921
898.552	19890
898.672	19913
898.792	20020
898.913	19898
899.033	19799
899.153	19670
899.273	19628
899.393	19624
899.513	19738
899.633	19670
899.753	19700
899.873	19582
899.993	19670
900.113	19529
900.232	19552
900.352	19529
900.472	19460
900.591	19426
900.711	19396
900.83	19499
900.95	19540
901.069	19582
901.189	19411
901.308	19065
901.427	19069
901.546	19133
901.665	19133
901.784	19057
901.904	18795
902.023	18840
902.141	18582
902.26	18464
902.379	18677
902.498	18608
902.617	18517
902.735	18639
902.854	18593
902.973	18475
903.091	18357
903.21	18216
903.328	18224
903.446	18095
903.565	18174
903.683	18034
903.801	17904
903.919	18045
904.038	18079
904.156	17745
904.274	17992
904.392	17832
904.51	17794
904.627	17790
904.745	17916
904.863	17923
904.981	17600
905.098	17482
905.216	17482
905.334	17554
905.451	17516
905.569	17436
905.686	17509
905.803	17455
905.921	17277
906.038	17395
906.155	17353
906.272	17166
906.389	17162
906.506	17060
906.623	17143
906.74	16984
906.857	16892
906.974	17022
907.091	17098
907.208	17159
907.324	17060
907.441	17022
907.557	16752
907.674	16748
907.79	16694
907.907	16675
908.023	16816
908.139	16721
908.256	16672
908.372	16630
908.488	16535
908.604	16481
908.72	16440
908.836	16493
908.952	16432
909.068	16569
909.184	16455
909.3	16436
909.415	16607
909.531	16573
909.647	16147
909.762	16147
909.878	16150
909.993	16166
910.108	16234
910.224	16181
910.339	16166
910.454	15949
910.57	15926
910.685	15907
910.8	16177
910.915	16116
911.03	15895
911.145	15743
911.259	15717
911.374	15816
911.489	15652
911.604	15675
911.718	15507
911.833	15447
911.947	15439
912.062	15313
912.176	15477
912.291	15515
912.405	15492
912.519	15663
912.633	15675
912.748	15523
912.862	15530
912.976	15348
913.09	15176
913.204	15268
913.318	15256
913.431	15473
913.545	15431
913.659	15473
913.772	15264
913.886	15188
914	15154
914.113	15237
914.226	15264
914.34	15176
914.453	14979
914.566	15173
914.68	15009
914.793	14963
914.906	14857
915.019	14750
915.132	14731
915.245	14632
915.358	14701
915.47	14777
915.583	14705
915.696	14754
915.809	14853
915.921	14899
916.034	14708
916.146	14560
916.259	14670
916.371	14800
916.483	14724
916.595	14640
916.708	14659
916.82	14522
916.932	14480
917.044	14434
917.156	14499
917.268	14518
917.38	14488
917.491	14301
917.603	14473
917.715	14473
917.826	14560
917.938	14324
918.049	14259
918.161	14347
918.272	14495
918.384	14461
918.495	14396
918.606	14202
918.717	14191
918.828	14206
918.939	14225
919.05	14138
919.161	14130
919.272	13993
919.383	13997
919.494	14237
919.604	14423
919.715	14244
919.826	14202
919.936	14145
920.047	14271
920.157	14187
920.267	14366
920.378	14176
920.488	14039
920.598	14339
920.708	14469
920.818	14351
920.928	14206
921.038	14396
921.148	14328
921.258	14168
921.368	14027
921.477	13875
921.587	13898
921.697	13750
921.806	13837
921.916	13811
922.025	13556
922.134	13620
922.244	13419
922.353	13529
922.462	13491
922.571	13312
922.68	13236
922.789	13069
922.898	13202
923.007	13107
923.116	13225
923.224	13164
923.333	13206
923.442	13103
923.55	13015
923.659	13038
923.767	13042
923.876	12977
923.984	13046
924.092	12951
924.201	12901
924.309	12920
924.417	13008
924.525	12916
924.633	12844
924.741	13761
924.849	12654
924.956	12753
925.064	12669
925.172	12574
925.279	12608
925.387	12700
925.494	12654
925.602	12741
925.709	12665
925.816	12471
925.924	12563
926.031	12696
926.138	12498
926.245	12612
926.352	12464
926.459	12642
926.566	12688
926.673	12509
926.779	12399
926.886	12338
926.993	12239
927.099	12178
927.206	12197
927.312	12144
927.419	12197
927.525	12197
927.631	12224
927.737	12117
927.843	12019
927.95	11958
928.056	12079
928.162	12072
928.267	12106
928.373	12703
928.479	12121
928.585	11958
928.69	11973
928.796	11996
928.901	11893
929.007	11733
929.112	11813
929.218	11904
929.323	11855
929.428	11733
929.533	11954
929.638	11707
929.743	11737
929.848	11794
929.953	11802
930.058	11668
930.163	11421
930.267	11406
930.372	11684
930.477	11334
930.581	11688
930.685	11554
930.79	11391
930.894	11383
930.998	11398
931.103	11463
931.207	11102
931.311	11029
931.415	10930
931.519	10748
931.623	10740
