Data from test_V78500241_2047.txt Node
Date: Fri Mar 25 15:24:06 CST 2022
User: usil
Spectrometer: V785-0024
Trigger mode: 0
Integration Time (sec): 4.000000E-1
Scans to average: 1
Nonlinearity correction enabled: false
Boxcar width: 0
Storing dark spectrum: false
XAxis mode: Wavelengths
Number of Pixels in Spectrum: 1024
>>>>>Begin Spectral Data<<<<<
801.071	27876
801.214	27903
801.356	27564
801.499	27420
801.641	27291
801.783	27329
801.926	27458
802.068	27093
802.211	27249
802.353	27237
802.496	27077
802.638	27066
802.78	26979
802.923	26895
803.065	26979
803.208	26971
803.35	27058
803.492	27020
803.635	27131
803.777	26952
803.919	27192
804.061	27420
804.204	27180
804.346	27096
804.488	27024
804.63	27131
804.773	27131
804.915	27207
805.057	27367
805.199	27108
805.341	27317
805.483	27374
805.626	27382
805.768	27081
805.91	27344
806.052	27370
806.194	27291
806.336	27492
806.478	27348
806.62	27382
806.762	27405
806.904	27526
807.046	27762
807.188	27701
807.33	27656
807.472	27797
807.614	27713
807.756	27701
807.898	27717
808.04	27526
808.182	27709
808.324	27675
808.465	27564
808.607	27903
808.749	27998
808.891	28059
809.033	28116
809.174	27842
809.316	27831
809.458	27968
809.6	27964
809.741	28086
809.883	28101
810.025	28196
810.166	28325
810.308	28299
810.45	28116
810.591	28006
810.733	27975
810.875	27835
811.016	27770
811.158	27831
811.299	28013
811.441	28116
811.582	28086
811.724	27991
811.865	27964
812.007	27835
812.148	27911
812.29	28074
812.431	28147
812.573	28211
812.714	28409
812.855	28356
812.997	28478
813.138	28744
813.279	28440
813.421	28523
813.562	28500
813.703	28379
813.845	28196
813.986	27926
814.127	27690
814.268	27652
814.41	27663
814.551	27679
814.692	27720
814.833	27610
814.974	27652
815.115	27504
815.256	27500
815.397	27587
815.539	27485
815.68	27389
815.821	27260
815.962	27401
816.103	27329
816.244	27245
816.385	27359
816.526	27283
816.666	27074
816.807	26807
816.948	27005
817.089	27020
817.23	27005
817.371	27013
817.512	26940
817.653	26849
817.793	26739
817.934	26906
818.075	26777
818.216	26948
818.356	26876
818.497	26708
818.638	26750
818.778	26731
818.919	26488
819.06	26743
819.2	26838
819.341	26823
819.481	26940
819.622	27055
819.762	27214
819.903	27165
820.043	27055
820.184	27062
820.324	26952
820.465	26998
820.605	27039
820.746	27039
820.886	26842
821.026	27039
821.167	26960
821.307	26845
821.447	26899
821.588	26967
821.728	26716
821.868	26488
822.008	26438
822.149	26324
822.289	26233
822.429	26046
822.569	26191
822.709	26115
822.849	25868
822.99	26005
823.13	25795
823.27	25826
823.41	25734
823.55	25655
823.69	25658
823.83	25681
823.97	25708
824.11	25556
824.25	25422
824.389	25689
824.529	25628
824.669	25537
824.809	25723
824.949	25586
825.089	25727
825.228	25559
825.368	25293
825.508	25384
825.648	25415
825.787	25270
825.927	25559
826.067	25316
826.206	25293
826.346	25445
826.485	25400
826.625	25369
826.765	25388
826.904	25472
827.044	25225
827.183	25225
827.323	25095
827.462	25194
827.601	25194
827.741	25057
827.88	25156
828.02	24996
828.159	25091
828.298	25194
828.437	25228
828.577	25107
828.716	25148
828.855	25065
828.994	24791
829.134	24768
829.273	24894
829.412	24909
829.551	24722
829.69	24992
829.829	24795
829.968	24810
830.107	24852
830.246	24787
830.385	24715
830.524	24703
830.663	24563
830.802	24601
830.941	24486
831.08	24403
831.219	24521
831.357	24403
831.496	24582
831.635	24452
831.774	24281
831.913	24243
832.051	24254
832.19	24304
832.329	24232
832.467	24194
832.606	24095
832.744	24152
832.883	24144
833.022	23897
833.16	24068
833.299	24068
833.437	24015
833.576	24167
833.714	24258
833.852	24213
833.991	24262
834.129	24220
834.267	24163
834.406	24072
834.544	24125
834.682	24098
834.821	24190
834.959	24395
835.097	24057
835.235	24308
835.373	24205
835.511	24136
835.65	23980
835.788	23996
835.926	23942
836.064	23840
836.202	23794
836.34	24003
836.478	24117
836.615	23904
836.753	23923
836.891	24072
837.029	24064
837.167	23920
837.305	23893
837.443	23859
837.58	23912
837.718	23840
837.856	23863
837.993	23790
838.131	23847
838.269	23756
838.406	23733
838.544	23570
838.681	23474
838.819	23433
838.956	23318
839.094	23349
839.231	23337
839.369	23516
839.506	23691
839.643	23524
839.781	23341
839.918	23239
840.055	23227
840.193	23151
840.33	23193
840.467	23208
840.604	23299
840.742	23547
840.879	23041
841.016	23220
841.153	23124
841.29	23318
841.427	23216
841.564	23155
841.701	23147
841.838	23071
841.975	23083
842.112	23151
842.249	23090
842.385	22782
842.522	23288
842.659	22930
842.796	22911
842.933	22934
843.069	22919
843.206	22866
843.343	22965
843.479	22995
843.616	22999
843.752	22847
843.889	22805
844.025	22961
844.162	22729
844.298	22763
844.435	22626
844.571	22702
844.708	22862
844.844	22900
844.98	22885
845.117	22904
845.253	22622
845.389	22580
845.525	22675
845.661	22542
845.798	22405
845.934	22535
846.07	22409
846.206	22432
846.342	22580
846.478	22512
846.614	22341
846.75	22249
846.886	22318
847.022	22261
847.158	22280
847.294	22242
847.429	22318
847.565	22238
847.701	22462
847.837	21838
847.972	21835
848.108	22063
848.244	21953
848.379	21854
848.515	21720
848.65	21812
848.786	21762
848.921	21869
849.057	21907
849.192	21899
849.328	21766
849.463	21884
849.598	21789
849.734	21732
849.869	21690
850.004	21526
850.14	21709
850.275	21622
850.41	21481
850.545	21447
850.68	21397
850.815	21663
850.95	21641
851.085	21720
851.22	21709
851.355	21481
851.49	21625
851.625	21447
851.76	21599
851.895	21591
852.03	21572
852.165	21507
852.299	21580
852.434	21732
852.569	21511
852.703	21557
852.838	21698
852.973	21713
853.107	21728
853.242	21450
853.376	21359
853.511	21336
853.645	21374
853.78	21504
853.914	21488
854.048	21397
854.183	21291
854.317	21428
854.451	21595
854.585	21435
854.72	21424
854.854	21492
854.988	21340
855.122	21405
855.256	21287
855.39	21401
855.524	21401
855.658	21420
855.792	21447
855.926	21523
856.06	21466
856.194	21488
856.327	21325
856.461	21302
856.595	21336
856.729	21367
856.862	21420
856.996	21443
857.13	21401
857.263	21492
857.397	21408
857.53	21481
857.664	21420
857.797	21454
857.931	21542
858.064	21382
858.197	21572
858.331	21424
858.464	21420
858.597	21256
858.731	21340
858.864	21268
858.997	21367
859.13	21443
859.263	21443
859.396	21485
859.529	21443
859.662	21321
859.795	21351
859.928	21374
860.061	21511
860.194	21561
860.327	21321
860.46	21363
860.592	21595
860.725	21591
860.858	21454
860.99	21492
861.123	21408
861.256	21325
861.388	21351
861.521	22063
861.653	21325
861.786	21142
861.918	21211
862.05	21291
862.183	21199
862.315	21279
862.447	21329
862.58	21374
862.712	21104
862.844	21032
862.976	21062
863.108	21100
863.24	21317
863.372	20979
863.504	21173
863.636	21058
863.768	21180
863.9	21005
864.032	21017
864.164	21074
864.296	21123
864.428	21192
864.559	21100
864.691	21058
864.823	21150
864.954	21100
865.086	20979
865.217	21005
865.349	20845
865.48	21123
865.612	21013
865.743	21081
865.875	21039
866.006	21051
866.137	20944
866.269	21009
866.4	20883
866.531	20956
866.662	20906
866.793	20994
866.924	20914
867.055	20906
867.186	20960
867.317	20899
867.448	20861
867.579	20864
867.71	20800
867.841	20724
867.972	20887
868.103	20918
868.233	20979
868.364	20994
868.495	20944
868.625	21138
868.756	21264
868.886	21116
869.017	21119
869.147	21306
869.278	21287
869.408	21291
869.539	21165
869.669	21214
869.799	21176
869.929	21268
870.06	21340
870.19	21530
870.32	21492
870.45	21507
870.58	21424
870.71	21686
870.84	21625
870.97	21610
871.1	21553
871.23	21724
871.36	21660
871.489	21724
871.619	21698
871.749	21667
871.879	21762
872.008	21857
872.138	21865
872.267	21633
872.397	21542
872.526	21580
872.656	21644
872.785	21595
872.915	21808
873.044	21842
873.173	21838
873.303	21926
873.432	21686
873.561	21964
873.69	21785
873.819	21793
873.948	21869
874.077	21774
874.206	21728
874.335	21797
874.464	21937
874.593	22021
874.722	21975
874.851	21994
874.979	21983
875.108	22021
875.237	22002
875.365	21922
875.494	21899
875.623	22093
875.751	21911
875.88	22021
876.008	22150
876.136	22238
876.265	22280
876.393	22512
876.521	22481
876.65	22573
876.778	22436
876.906	22474
877.034	22417
877.162	22341
877.29	22207
877.418	22314
877.546	22417
877.674	22325
877.802	22341
877.93	22432
878.058	22314
878.185	22344
878.313	22348
878.441	22394
878.568	22219
878.696	22314
878.824	22322
878.951	22402
879.079	22470
879.206	22660
879.333	22424
879.461	22459
879.588	22424
879.715	22440
879.842	22557
879.97	22322
880.097	22116
880.224	22261
880.351	22306
880.478	22242
880.605	22177
880.732	22143
880.859	22325
880.986	22318
881.112	22131
881.239	22093
881.366	22059
881.493	21717
881.619	21766
881.746	21793
881.872	21686
881.999	21781
882.125	21637
882.252	21827
882.378	21766
882.505	21800
882.631	21591
882.757	21488
882.883	21557
883.01	21545
883.136	21462
883.262	21214
883.388	21256
883.514	21428
883.64	21443
883.766	21351
883.892	21222
884.018	21154
884.143	21374
884.269	21424
884.395	21157
884.52	21074
884.646	21112
884.772	20971
884.897	20975
885.023	20918
885.148	21108
885.274	21249
885.399	21146
885.524	21062
885.65	21176
885.775	21127
885.9	21005
886.025	21089
886.15	21298
886.275	20933
886.4	20975
886.525	21066
886.65	21070
886.775	21032
886.9	21199
887.025	21321
887.149	21001
887.274	20891
887.399	20750
887.523	20899
887.648	20823
887.773	20720
887.897	20872
888.021	20998
888.146	20834
888.27	20967
888.395	20921
888.519	20849
888.643	20857
888.767	20971
888.891	20853
889.015	20613
889.139	20762
889.263	20686
889.387	20724
889.511	20861
889.635	20701
889.759	20629
889.883	20629
890.006	20450
890.13	20743
890.254	20568
890.377	20518
890.501	20499
890.624	20320
890.748	20587
890.871	20324
890.995	20278
891.118	20153
891.241	20202
891.364	20240
891.488	20404
891.611	20183
891.734	20187
891.857	20237
891.98	20267
892.103	20278
892.226	20267
892.349	20039
892.471	19982
892.594	20084
892.717	20107
892.839	20054
892.962	20199
893.085	20130
893.207	20096
893.33	20043
893.452	20149
893.575	20088
893.697	20058
893.819	20244
893.941	20290
894.064	20233
894.186	20145
894.308	20027
894.43	20214
894.552	20183
894.674	20267
894.796	20043
894.918	20122
895.04	20046
895.161	20202
895.283	20164
895.405	20119
895.526	20084
895.648	19974
895.769	20069
895.891	20218
896.012	20214
896.134	20233
896.255	20020
896.376	20111
896.498	20138
896.619	20145
896.74	20142
896.861	20145
896.982	20590
897.103	20541
897.224	20351
897.345	20275
897.466	20252
897.587	20259
897.708	20469
897.828	20362
897.949	20210
898.07	20199
898.19	20271
898.311	20457
898.431	20210
898.552	20343
898.672	20343
898.792	20476
898.913	20393
899.033	20218
899.153	20046
899.273	19970
899.393	20122
899.513	20016
899.633	20062
899.753	20031
899.873	19989
899.993	20107
900.113	20050
900.232	20115
900.352	19936
900.472	19849
900.591	19841
900.711	19894
900.83	19795
900.95	19925
901.069	19974
901.189	19693
901.308	19540
901.427	19460
901.546	19518
901.665	19468
901.784	19396
901.904	19339
902.023	19278
902.141	18981
902.26	18981
902.379	19023
902.498	19027
902.617	18981
902.735	18905
902.854	18962
902.973	18913
903.091	18673
903.21	18696
903.328	18661
903.446	18544
903.565	18456
903.683	18498
903.801	18418
903.919	18361
904.038	18376
904.156	18228
904.274	18258
904.392	18140
904.51	18194
904.627	18209
904.745	18281
904.863	18201
904.981	18060
905.098	17885
905.216	17817
905.334	17847
905.451	17866
905.569	17885
905.686	17874
905.803	17870
905.921	17707
906.038	17646
906.155	17722
906.272	17665
906.389	17562
906.506	17562
906.623	17497
906.74	17395
906.857	17280
906.974	17269
907.091	17501
907.208	17535
907.324	17474
907.441	17311
907.557	17166
907.674	17117
907.79	17067
907.907	17113
908.023	17197
908.139	17071
908.256	17041
908.372	17075
908.488	17105
908.604	16869
908.72	16744
908.836	16889
908.952	16873
909.068	16797
909.184	16995
909.3	16816
909.415	16866
909.531	16854
909.647	16630
909.762	16577
909.878	16493
909.993	16542
910.108	16481
910.224	16508
910.339	16542
910.454	16443
910.57	16196
910.685	16310
910.8	16569
910.915	16500
911.03	16284
911.145	16246
911.259	16120
911.374	16124
911.489	16048
911.604	15918
911.718	15956
911.833	15854
911.947	15690
912.062	15800
912.176	15819
912.291	15869
912.405	15831
912.519	16101
912.633	16032
912.748	16002
912.862	15903
912.976	15728
913.09	15526
913.204	15739
913.318	15736
913.431	15800
913.545	15778
913.659	15812
913.772	15629
913.886	15553
914	15496
914.113	15606
914.226	15690
914.34	15641
914.453	15351
914.566	15584
914.68	15435
914.793	15389
914.906	15165
915.019	15081
915.132	15070
915.245	15062
915.358	15108
915.47	15161
915.583	15135
915.696	15233
915.809	15256
915.921	15252
916.034	15024
916.146	15066
916.259	15013
916.371	15017
916.483	15020
916.595	14990
916.708	14937
916.82	14982
916.932	14868
917.044	14887
917.156	14883
917.268	14838
917.38	14849
917.491	14724
917.603	14689
917.715	14830
917.826	14902
917.938	14739
918.049	14629
918.161	14701
918.272	14750
918.384	14777
918.495	14636
918.606	14530
918.717	14503
918.828	14556
918.939	14564
919.05	14480
919.161	14431
919.272	14282
919.383	14412
919.494	14636
919.604	14754
919.715	14446
919.826	14366
919.936	14408
920.047	14606
920.157	14507
920.267	14659
920.378	14518
920.488	14499
920.598	14689
920.708	14773
920.818	14629
920.928	14663
921.038	14746
921.148	14606
921.258	14351
921.368	14313
921.477	14225
921.587	14153
921.697	14115
921.806	14233
921.916	13989
922.025	13856
922.134	13921
922.244	13803
922.353	13898
922.462	13643
922.571	13723
922.68	13601
922.789	13460
922.898	13426
923.007	13381
923.116	13510
923.224	13575
923.333	13540
923.442	13293
923.55	13278
923.659	13365
923.767	13384
923.876	13228
923.984	13327
924.092	13282
924.201	13232
924.309	13183
924.417	13225
924.525	13168
924.633	13206
924.741	13883
924.849	12993
924.956	13149
925.064	12958
925.172	12886
925.279	12947
925.387	12977
925.494	12913
925.602	13084
925.709	12996
925.816	12878
925.924	12856
926.031	12970
926.138	12897
926.245	12878
926.352	12738
926.459	12928
926.566	12840
926.673	12783
926.779	12688
926.886	12574
926.993	12498
927.099	12414
927.206	12460
927.312	12338
927.419	12517
927.525	12441
927.631	12486
927.737	12391
927.843	12342
927.95	12182
928.056	12395
928.162	12319
928.267	12357
928.373	12954
928.479	12467
928.585	12163
928.69	12159
928.796	12319
928.901	12235
929.007	12015
929.112	12155
929.218	12114
929.323	12095
929.428	11999
929.533	12175
929.638	12026
929.743	12022
929.848	12022
929.953	11931
930.058	11870
930.163	11748
930.267	11729
930.372	11832
930.477	11646
930.581	11897
930.685	11745
930.79	11505
930.894	11615
930.998	11570
931.103	11680
931.207	11455
931.311	11261
931.415	11174
931.519	10980
931.623	10919
