Data from test_V78500241_3234.txt Node
Date: Fri Mar 25 15:32:22 CST 2022
User: usil
Spectrometer: V785-0024
Trigger mode: 0
Integration Time (sec): 4.000000E-1
Scans to average: 1
Nonlinearity correction enabled: false
Boxcar width: 0
Storing dark spectrum: false
XAxis mode: Wavelengths
Number of Pixels in Spectrum: 1024
>>>>>Begin Spectral Data<<<<<
801.071	27165
801.214	27203
801.356	26918
801.499	26960
801.641	26785
801.783	26712
801.926	26819
802.068	26788
802.211	26724
802.353	26609
802.496	26377
802.638	26381
802.78	26412
802.923	26248
803.065	26374
803.208	26301
803.35	26271
803.492	26412
803.635	26511
803.777	26404
803.919	26461
804.061	26765
804.204	26518
804.346	26537
804.488	26419
804.63	26621
804.773	26385
804.915	26423
805.057	26598
805.199	26465
805.341	26632
805.483	26667
805.626	26564
805.768	26549
805.91	26617
806.052	26583
806.194	26461
806.336	26682
806.478	26701
806.62	26587
806.762	26720
806.904	26758
807.046	27157
807.188	27047
807.33	27108
807.472	27077
807.614	27051
807.756	26986
807.898	26811
808.04	26773
808.182	26826
808.324	26956
808.465	26944
808.607	27047
808.749	27214
808.891	27241
809.033	27279
809.174	27279
809.316	27188
809.458	27268
809.6	27123
809.741	27321
809.883	27397
810.025	27344
810.166	27496
810.308	27427
810.45	27332
810.591	27447
810.733	27329
810.875	27237
811.016	27154
811.158	27203
811.299	27462
811.441	27450
811.582	27245
811.724	27211
811.865	27252
812.007	27100
812.148	27066
812.29	27275
812.431	27435
812.573	27603
812.714	27583
812.855	27675
812.997	27747
813.138	27934
813.279	27979
813.421	27698
813.562	27648
813.703	27427
813.845	27386
813.986	27199
814.127	26975
814.268	26952
814.41	26940
814.551	26933
814.692	26998
814.833	26857
814.974	26838
815.115	26826
815.256	26762
815.397	26632
815.539	26853
815.68	26530
815.821	26370
815.962	26594
816.103	26632
816.244	26507
816.385	26381
816.526	26571
816.666	26301
816.807	26111
816.948	26161
817.089	26229
817.23	26164
817.371	26172
817.512	26149
817.653	25997
817.793	25951
817.934	26008
818.075	26046
818.216	26275
818.356	26153
818.497	25989
818.638	25814
818.778	25811
818.919	25811
819.06	25868
819.2	26043
819.341	26119
819.481	25986
819.622	26218
819.762	26469
819.903	26434
820.043	26244
820.184	26210
820.324	26240
820.465	26427
820.605	26157
820.746	26157
820.886	25974
821.026	26248
821.167	26157
821.307	26122
821.447	26069
821.588	26073
821.728	25830
821.868	25807
822.008	25548
822.149	25674
822.289	25616
822.429	25324
822.569	25141
822.709	25198
822.849	25232
822.99	25198
823.13	25206
823.27	25061
823.41	24875
823.55	24829
823.69	24859
823.83	24951
823.97	24791
824.11	24696
824.25	24669
824.389	24658
824.529	24837
824.669	24707
824.809	24730
824.949	24722
825.089	24882
825.228	24627
825.368	24559
825.508	24589
825.648	24665
825.787	24623
825.927	24650
826.067	24551
826.206	24681
826.346	24669
826.485	24551
826.625	24654
826.765	24711
826.904	24688
827.044	24551
827.183	24334
827.323	24243
827.462	24281
827.601	24384
827.741	24315
827.88	24391
828.02	24098
828.159	24243
828.298	24418
828.437	24361
828.577	24319
828.716	24445
828.855	24186
828.994	23935
829.134	24041
829.273	23939
829.412	24015
829.551	23935
829.69	23999
829.829	24083
829.968	24083
830.107	24079
830.246	24049
830.385	24038
830.524	23935
830.663	23649
830.802	23798
830.941	23642
831.08	23539
831.219	23672
831.357	23783
831.496	23851
831.635	23585
831.774	23539
831.913	23520
832.051	23417
832.19	23269
832.329	23455
832.467	23246
832.606	23254
832.744	23113
832.883	23254
833.022	23311
833.16	23284
833.299	23368
833.437	23395
833.576	23467
833.714	23444
833.852	23376
833.991	23444
834.129	23356
834.267	23478
834.406	23482
834.544	23383
834.682	23379
834.821	23360
834.959	23512
835.097	23356
835.235	23535
835.373	23269
835.511	23410
835.65	23208
835.788	23216
835.926	23166
836.064	22965
836.202	23098
836.34	23280
836.478	23444
836.615	23181
836.753	23193
836.891	23421
837.029	23212
837.167	23143
837.305	23109
837.443	23181
837.58	23079
837.718	23181
837.856	23166
837.993	23090
838.131	23109
838.269	22938
838.406	23014
838.544	22858
838.681	22763
838.819	22706
838.956	22637
839.094	22557
839.231	22698
839.369	22702
839.506	22843
839.643	22748
839.781	22599
839.918	22493
840.055	22622
840.193	22653
840.33	22554
840.467	22523
840.604	22535
840.742	22828
840.879	22310
841.016	22451
841.153	22413
841.29	22569
841.427	22485
841.564	22474
841.701	22519
841.838	22447
841.975	22322
842.112	22440
842.249	22329
842.385	22455
842.522	22459
842.659	22348
842.796	22169
842.933	22226
843.069	22276
843.206	22150
843.343	22371
843.479	22223
843.616	22261
843.752	22120
843.889	21941
844.025	22139
844.162	22051
844.298	21972
844.435	21945
844.571	22010
844.708	22040
844.844	22112
844.98	22272
845.117	22093
845.253	21968
845.389	21930
845.525	21873
845.661	21755
845.798	21766
845.934	21911
846.07	21713
846.206	21823
846.342	21865
846.478	21591
846.614	21663
846.75	21424
846.886	21386
847.022	21637
847.158	21428
847.294	21504
847.429	21530
847.565	21405
847.701	21694
847.837	21344
847.972	21165
848.108	21302
848.244	21283
848.379	21264
848.515	21036
848.65	21093
848.786	21077
848.921	21127
849.057	21272
849.192	21154
849.328	21043
849.463	21116
849.598	21108
849.734	21070
849.869	20998
850.004	20880
850.14	20864
850.275	20891
850.41	20792
850.545	20758
850.68	20845
850.815	20914
850.95	20769
851.085	21005
851.22	21039
851.355	20990
851.49	20834
851.625	20659
851.76	20902
851.895	20765
852.03	20720
852.165	20765
852.299	20921
852.434	20914
852.569	20998
852.703	20902
852.838	20929
852.973	21066
853.107	21017
853.242	20777
853.376	20549
853.511	20609
853.645	20648
853.78	20842
853.914	20632
854.048	20792
854.183	20663
854.317	20655
854.451	20925
854.585	20655
854.72	20697
854.854	20743
854.988	20609
855.122	20769
855.256	20518
855.39	20678
855.524	20667
855.658	20754
855.792	20777
855.926	20731
856.06	20727
856.194	20792
856.327	20556
856.461	20648
856.595	20564
856.729	20606
856.862	20716
856.996	20708
857.13	20777
857.263	20731
857.397	20857
857.53	20674
857.664	20716
857.797	20750
857.931	20735
858.064	20705
858.197	20845
858.331	20686
858.464	20556
858.597	20651
858.731	20621
858.864	20629
858.997	20674
859.13	20788
859.263	20686
859.396	20777
859.529	20758
859.662	20727
859.795	20712
859.928	20735
860.061	20796
860.194	20876
860.327	20708
860.46	20735
860.592	20838
860.725	20765
860.858	20800
860.99	20609
861.123	20579
861.256	20716
861.388	20682
861.521	21135
861.653	20617
861.786	20351
861.918	20537
862.05	20678
862.183	20625
862.315	20568
862.447	20705
862.58	20621
862.712	20465
862.844	20347
862.976	20564
863.108	20400
863.24	20788
863.372	20343
863.504	20457
863.636	20473
863.768	20381
863.9	20465
864.032	20339
864.164	20362
864.296	20518
864.428	20537
864.559	20537
864.691	20438
864.823	20476
864.954	20446
865.086	20400
865.217	20298
865.349	20240
865.48	20332
865.612	20244
865.743	20499
865.875	20278
866.006	20290
866.137	20320
866.269	20370
866.4	20324
866.531	20305
866.662	20305
866.793	20267
866.924	20362
867.055	20263
867.186	20358
867.317	20324
867.448	20225
867.579	20195
867.71	20278
867.841	20134
867.972	20206
868.103	20259
868.233	20305
868.364	20267
868.495	20290
868.625	20480
868.756	20625
868.886	20385
869.017	20446
869.147	20609
869.278	20674
869.408	20632
869.539	20541
869.669	20556
869.799	20552
869.929	20617
870.06	20674
870.19	20891
870.32	20811
870.45	20819
870.58	20963
870.71	21028
870.84	21013
870.97	20857
871.1	20960
871.23	21165
871.36	21108
871.489	21104
871.619	21074
871.749	21131
871.879	21081
872.008	21268
872.138	21100
872.267	21096
872.397	21017
872.526	20918
872.656	20986
872.785	20906
872.915	21157
873.044	21237
873.173	21146
873.303	21150
873.432	21207
873.561	21241
873.69	21192
873.819	21154
873.948	21241
874.077	21051
874.206	21013
874.335	21062
874.464	21230
874.593	21370
874.722	21252
874.851	21306
874.979	21351
875.108	21382
875.237	21408
875.365	21138
875.494	21306
875.623	21386
875.751	21321
875.88	21412
876.008	21519
876.136	21610
876.265	21606
876.393	21915
876.521	21778
876.65	21880
876.778	21762
876.906	21823
877.034	21732
877.162	21759
877.29	21614
877.418	21679
877.546	21694
877.674	21652
877.802	21717
877.93	21705
878.058	21679
878.185	21553
878.313	21694
878.441	21633
878.568	21538
878.696	21629
878.824	21663
878.951	21728
879.079	21953
879.206	21915
879.333	21819
879.461	21694
879.588	21827
879.715	21838
879.842	21987
879.97	21690
880.097	21629
880.224	21663
880.351	21641
880.478	21466
880.605	21450
880.732	21618
880.859	21709
880.986	21561
881.112	21507
881.239	21397
881.366	21192
881.493	21108
881.619	21104
881.746	21169
881.872	21074
881.999	21116
882.125	21138
882.252	21211
882.378	21043
882.505	21237
882.631	21036
882.757	20834
882.883	20941
883.01	20861
883.136	20849
883.262	20636
883.388	20762
883.514	20845
883.64	20804
883.766	20655
883.892	20705
884.018	20560
884.143	20804
884.269	20861
884.395	20537
884.52	20446
884.646	20564
884.772	20309
884.897	20278
885.023	20640
885.148	20564
885.274	20712
885.399	20629
885.524	20427
885.65	20503
885.775	20606
885.9	20503
886.025	20552
886.15	20530
886.275	20484
886.4	20267
886.525	20461
886.65	20393
886.775	20423
886.9	20476
887.025	20590
887.149	20370
887.274	20374
887.399	20229
887.523	20347
887.648	20218
887.773	20164
887.897	20290
888.021	20214
888.146	20271
888.27	20320
888.395	20355
888.519	20301
888.643	20290
888.767	20278
888.891	20172
889.015	20050
889.139	20218
889.263	20001
889.387	20206
889.511	20267
889.635	20263
889.759	20096
889.883	20077
890.006	20077
890.13	20161
890.254	20084
890.377	19986
890.501	19693
890.624	19909
890.748	19921
890.871	19712
890.995	19632
891.118	19670
891.241	19723
891.364	19639
891.488	19715
891.611	19639
891.734	19765
891.857	19788
891.98	19651
892.103	19616
892.226	19635
892.349	19681
892.471	19472
892.594	19559
892.717	19540
892.839	19525
892.962	19537
893.085	19514
893.207	19582
893.33	19411
893.452	19449
893.575	19567
893.697	19529
893.819	19685
893.941	19849
894.064	19704
894.186	19510
894.308	19460
894.43	19655
894.552	19757
894.674	19635
894.796	19441
894.918	19624
895.04	19548
895.161	19681
895.283	19586
895.405	19419
895.526	19605
895.648	19537
895.769	19514
895.891	19578
896.012	19689
896.134	19685
896.255	19590
896.376	19552
896.498	19586
896.619	19502
896.74	19495
896.861	19552
896.982	19849
897.103	19997
897.224	19879
897.345	19860
897.466	19811
897.587	19780
897.708	19887
897.828	19822
897.949	19761
898.07	19559
898.19	19708
898.311	19845
898.431	19807
898.552	19795
898.672	19890
898.792	19826
898.913	19814
899.033	19700
899.153	19655
899.273	19514
899.393	19559
899.513	19457
899.633	19556
899.753	19597
899.873	19487
899.993	19590
900.113	19533
900.232	19514
900.352	19537
900.472	19350
900.591	19247
900.711	19324
900.83	19331
900.95	19453
901.069	19457
901.189	19118
901.308	19084
901.427	18890
901.546	18954
901.665	18993
901.784	18928
901.904	18760
902.023	18757
902.141	18570
902.26	18445
902.379	18479
902.498	18536
902.617	18372
902.735	18433
902.854	18486
902.973	18308
903.091	18129
903.21	18152
903.328	18041
903.446	18079
903.565	18003
903.683	17935
903.801	17885
903.919	17893
904.038	17859
904.156	17771
904.274	17802
904.392	17600
904.51	17687
904.627	17665
904.745	17756
904.863	17729
904.981	17570
905.098	17509
905.216	17345
905.334	17425
905.451	17284
905.569	17307
905.686	17334
905.803	17395
905.921	17170
906.038	17303
906.155	17258
906.272	17102
906.389	17140
906.506	16889
906.623	16965
906.74	16843
906.857	16725
906.974	16725
907.091	16972
907.208	17079
907.324	16919
907.441	16835
907.557	16710
907.674	16588
907.79	16546
907.907	16694
908.023	16618
908.139	16740
908.256	16675
908.372	16481
908.488	16577
908.604	16394
908.72	16318
908.836	16367
908.952	16287
909.068	16303
909.184	16424
909.3	16325
909.415	16417
909.531	16306
909.647	16055
909.762	16040
909.878	16105
909.993	16131
910.108	16101
910.224	16086
910.339	16147
910.454	15819
910.57	15903
910.685	15781
910.8	15983
910.915	16013
911.03	15949
911.145	15648
911.259	15720
911.374	15622
911.489	15663
911.604	15599
911.718	15374
911.833	15393
911.947	15306
912.062	15268
912.176	15450
912.291	15488
912.405	15500
912.519	15576
912.633	15724
912.748	15469
912.862	15523
912.976	15211
913.09	15085
913.204	15199
913.318	15211
913.431	15389
913.545	15302
913.659	15279
913.772	15252
913.886	15173
914	14967
914.113	15055
914.226	15222
914.34	15093
914.453	14902
914.566	15176
914.68	14948
914.793	14883
914.906	14712
915.019	14716
915.132	14613
915.245	14682
915.358	14701
915.47	14670
915.583	14716
915.696	14659
915.809	14838
915.921	14807
916.034	14598
916.146	14644
916.259	14552
916.371	14640
916.483	14571
916.595	14556
916.708	14560
916.82	14549
916.932	14530
917.044	14503
917.156	14473
917.268	14492
917.38	14450
917.491	14374
917.603	14298
917.715	14381
917.826	14427
917.938	14294
918.049	14180
918.161	14294
918.272	14393
918.384	14347
918.495	14202
918.606	14187
918.717	14111
918.828	14115
918.939	14153
919.05	14111
919.161	14027
919.272	13947
919.383	13970
919.494	14024
919.604	14290
919.715	14081
919.826	14016
919.936	14115
920.047	14153
920.157	14115
920.267	14301
920.378	14164
920.488	14126
920.598	14385
920.708	14408
920.818	14202
920.928	14176
921.038	14370
921.148	14305
921.258	14024
921.368	13936
921.477	13814
921.587	13871
921.697	13727
921.806	13791
921.916	13643
922.025	13605
922.134	13472
922.244	13411
922.353	13556
922.462	13346
922.571	13381
922.68	13179
922.789	13084
922.898	13072
923.007	13099
923.116	13137
923.224	13133
923.333	13076
923.442	13042
923.55	12875
923.659	12981
923.767	13084
923.876	12913
923.984	12935
924.092	12878
924.201	12779
924.309	12867
924.417	12837
924.525	12745
924.633	12795
924.741	13685
924.849	12570
924.956	12760
925.064	12604
925.172	12528
925.279	12532
925.387	12574
925.494	12616
925.602	12760
925.709	12612
925.816	12498
925.924	12509
926.031	12635
926.138	12563
926.245	12563
926.352	12467
926.459	12593
926.566	12578
926.673	12403
926.779	12342
926.886	12369
926.993	12239
927.099	12155
927.206	12091
927.312	12144
927.419	12140
927.525	12178
927.631	12205
927.737	12045
927.843	12019
927.95	11961
928.056	11946
928.162	11954
928.267	12034
928.373	12696
928.479	12072
928.585	11726
928.69	12030
928.796	11980
928.901	11904
929.007	11726
929.112	11840
929.218	11809
929.323	11840
929.428	11703
929.533	11843
929.638	11718
929.743	11657
929.848	11752
929.953	11699
930.058	11661
930.163	11448
930.267	11417
930.372	11551
930.477	11349
930.581	11619
930.685	11452
930.79	11356
930.894	11376
930.998	11376
931.103	11364
931.207	11113
931.311	11056
931.415	11006
931.519	10771
931.623	10683
