Data from test_V78500241_3190.txt Node
Date: Fri Mar 25 15:32:04 CST 2022
User: usil
Spectrometer: V785-0024
Trigger mode: 0
Integration Time (sec): 4.000000E-1
Scans to average: 1
Nonlinearity correction enabled: false
Boxcar width: 0
Storing dark spectrum: false
XAxis mode: Wavelengths
Number of Pixels in Spectrum: 1024
>>>>>Begin Spectral Data<<<<<
801.071	27001
801.214	27055
801.356	26587
801.499	26549
801.641	26495
801.783	26423
801.926	26480
802.068	26286
802.211	26229
802.353	26301
802.496	26183
802.638	26103
802.78	25982
802.923	25993
803.065	25963
803.208	25902
803.35	25970
803.492	26153
803.635	26180
803.777	26024
803.919	26286
804.061	26518
804.204	26221
804.346	25986
804.488	26122
804.63	26168
804.773	26096
804.915	26164
805.057	26263
805.199	26115
805.341	26191
805.483	26221
805.626	26339
805.768	26195
805.91	26290
806.052	26347
806.194	26191
806.336	26503
806.478	26237
806.62	26282
806.762	26328
806.904	26434
807.046	26731
807.188	26674
807.33	26731
807.472	26727
807.614	26564
807.756	26739
807.898	26507
808.04	26431
808.182	26328
808.324	26457
808.465	26583
808.607	26819
808.749	26743
808.891	26933
809.033	26944
809.174	26948
809.316	26667
809.458	26788
809.6	26765
809.741	26891
809.883	26872
810.025	27108
810.166	27032
810.308	27001
810.45	26933
810.591	26990
810.733	26800
810.875	26857
811.016	26712
811.158	26651
811.299	26872
811.441	27085
811.582	26937
811.724	26948
811.865	26640
812.007	26800
812.148	26739
812.29	26861
812.431	26937
812.573	27104
812.714	27157
812.855	27336
812.997	27450
813.138	27606
813.279	27340
813.421	27260
813.562	27241
813.703	27112
813.845	26921
813.986	26743
814.127	26617
814.268	26530
814.41	26385
814.551	26381
814.692	26526
814.833	26275
814.974	26434
815.115	26400
815.256	26347
815.397	26370
815.539	26248
815.68	26202
815.821	26206
815.962	26210
816.103	26187
816.244	26157
816.385	26024
816.526	26016
816.666	25826
816.807	25609
816.948	25799
817.089	25795
817.23	25830
817.371	25784
817.512	25685
817.653	25700
817.793	25647
817.934	25784
818.075	25689
818.216	25803
818.356	25693
818.497	25639
818.638	25419
818.778	25518
818.919	25540
819.06	25479
819.2	25761
819.341	25666
819.481	25597
819.622	25849
819.762	26050
819.903	25913
820.043	25875
820.184	25807
820.324	25830
820.465	25856
820.605	25769
820.746	25803
820.886	25723
821.026	25723
821.167	25769
821.307	25830
821.447	25765
821.588	25556
821.728	25597
821.868	25282
822.008	25228
822.149	25129
822.289	25187
822.429	24951
822.569	24798
822.709	24882
822.849	24635
822.99	24597
823.13	24582
823.27	24502
823.41	24422
823.55	24437
823.69	24475
823.83	24479
823.97	24388
824.11	24251
824.25	24220
824.389	24315
824.529	24388
824.669	24201
824.809	24422
824.949	24315
825.089	24445
825.228	24369
825.368	24125
825.508	24133
825.648	24254
825.787	24171
825.927	24129
826.067	24155
826.206	24114
826.346	24167
826.485	24148
826.625	24148
826.765	24277
826.904	24251
827.044	23908
827.183	24038
827.323	23931
827.462	23961
827.601	23878
827.741	23931
827.88	23828
828.02	23828
828.159	23920
828.298	23874
828.437	23798
828.577	23840
828.716	24003
828.855	23783
828.994	23596
829.134	23395
829.273	23649
829.412	23501
829.551	23452
829.69	23653
829.829	23558
829.968	23741
830.107	23535
830.246	23627
830.385	23410
830.524	23425
830.663	23474
830.802	23356
830.941	23174
831.08	23170
831.219	23372
831.357	23296
831.496	23516
831.635	23185
831.774	23022
831.913	23048
832.051	23033
832.19	22953
832.329	23052
832.467	22759
832.606	22702
832.744	22877
832.883	22839
833.022	22774
833.16	22828
833.299	22885
833.437	22919
833.576	22980
833.714	22961
833.852	22900
833.991	22961
834.129	22972
834.267	22831
834.406	23025
834.544	22934
834.682	22949
834.821	23010
834.959	23052
835.097	22934
835.235	22972
835.373	22972
835.511	22984
835.65	22820
835.788	22778
835.926	22653
836.064	22538
836.202	22660
836.34	22805
836.478	22824
836.615	22759
836.753	22793
836.891	22774
837.029	22736
837.167	22672
837.305	22687
837.443	22683
837.58	22653
837.718	22759
837.856	22618
837.993	22596
838.131	22733
838.269	22398
838.406	22500
838.544	22459
838.681	22424
838.819	22226
838.956	22131
839.094	22234
839.231	22230
839.369	22234
839.506	22535
839.643	22344
839.781	22025
839.918	21960
840.055	22143
840.193	22158
840.33	22032
840.467	22078
840.604	22021
840.742	22382
840.879	22029
841.016	22048
841.153	22010
841.29	22032
841.427	22036
841.564	22086
841.701	22059
841.838	22006
841.975	21831
842.112	22021
842.249	22017
842.385	21789
842.522	21964
842.659	21850
842.796	21892
842.933	21762
843.069	21751
843.206	21861
843.343	21793
843.479	21876
843.616	21774
843.752	21690
843.889	21542
844.025	21857
844.162	21492
844.298	21663
844.435	21610
844.571	21545
844.708	21564
844.844	21876
844.98	21838
845.117	21644
845.253	21557
845.389	21378
845.525	21492
845.661	21492
845.798	21336
845.934	21443
846.07	21340
846.206	21336
846.342	21370
846.478	21275
846.614	21062
846.75	21100
846.886	21043
847.022	21252
847.158	21024
847.294	21184
847.429	21112
847.565	21135
847.701	21367
847.837	20777
847.972	20708
848.108	20952
848.244	20849
848.379	20727
848.515	20655
848.65	20655
848.786	20735
848.921	20777
849.057	20720
849.192	20758
849.328	20689
849.463	20583
849.598	20526
849.734	20518
849.869	20575
850.004	20427
850.14	20423
850.275	20499
850.41	20389
850.545	20385
850.68	20431
850.815	20419
850.95	20473
851.085	20560
851.22	20511
851.355	20438
851.49	20343
851.625	20438
851.76	20480
851.895	20206
852.03	20298
852.165	20362
852.299	20465
852.434	20495
852.569	20473
852.703	20499
852.838	20457
852.973	20507
853.107	20465
853.242	20339
853.376	20168
853.511	20244
853.645	20172
853.78	20294
853.914	20298
854.048	20248
854.183	20172
854.317	20263
854.451	20457
854.585	20347
854.72	20206
854.854	20396
854.988	20256
855.122	20290
855.256	20176
855.39	20252
855.524	20332
855.658	20389
855.792	20339
855.926	20286
856.06	20294
856.194	20328
856.327	20191
856.461	20252
856.595	20244
856.729	20248
856.862	20290
856.996	20252
857.13	20320
857.263	20419
857.397	20339
857.53	20237
857.664	20358
857.797	20328
857.931	20339
858.064	20183
858.197	20240
858.331	20301
858.464	20240
858.597	20119
858.731	20199
858.864	20305
858.997	20191
859.13	20305
859.263	20259
859.396	20415
859.529	20149
859.662	20214
859.795	20240
859.928	20298
860.061	20446
860.194	20457
860.327	20328
860.46	20374
860.592	20381
860.725	20419
860.858	20454
860.99	20218
861.123	20195
861.256	20221
861.388	20119
861.521	20845
861.653	20145
861.786	19970
861.918	20084
862.05	20149
862.183	20164
862.315	20248
862.447	20233
862.58	20157
862.712	20024
862.844	19852
862.976	20027
863.108	20046
863.24	20206
863.372	19997
863.504	19967
863.636	19947
863.768	20077
863.9	19936
864.032	19795
864.164	19902
864.296	19978
864.428	20069
864.559	20103
864.691	20050
864.823	20058
864.954	20024
865.086	19997
865.217	19887
865.349	19902
865.48	19788
865.612	19871
865.743	20062
865.875	19894
866.006	19814
866.137	19986
866.269	19993
866.4	19909
866.531	19803
866.662	19856
866.793	19849
866.924	19955
867.055	19837
867.186	19772
867.317	19833
867.448	19696
867.579	19769
867.71	19632
867.841	19700
867.972	19830
868.103	19852
868.233	19887
868.364	19932
868.495	19986
868.625	20001
868.756	20130
868.886	19982
869.017	20180
869.147	20081
869.278	20180
869.408	20126
869.539	20271
869.669	20130
869.799	20149
869.929	20130
870.06	20126
870.19	20374
870.32	20438
870.45	20275
870.58	20617
870.71	20579
870.84	20511
870.97	20313
871.1	20446
871.23	20682
871.36	20720
871.489	20590
871.619	20598
871.749	20701
871.879	20792
872.008	20872
872.138	20739
872.267	20632
872.397	20594
872.526	20522
872.656	20518
872.785	20526
872.915	20640
873.044	20750
873.173	20746
873.303	20724
873.432	20750
873.561	20724
873.69	20838
873.819	20724
873.948	20716
874.077	20739
874.206	20602
874.335	20773
874.464	20857
874.593	20982
874.722	20800
874.851	20975
874.979	21013
875.108	21051
875.237	20998
875.365	20796
875.494	20906
875.623	21055
875.751	20872
875.88	20880
876.008	21161
876.136	21218
876.265	21382
876.393	21344
876.521	21397
876.65	21359
876.778	21355
876.906	21226
877.034	21272
877.162	21283
877.29	21214
877.418	21363
877.546	21351
877.674	21188
877.802	21363
877.93	21256
878.058	21325
878.185	21074
878.313	21302
878.441	21245
878.568	21142
878.696	21256
878.824	21275
878.951	21275
879.079	21492
879.206	21572
879.333	21359
879.461	21367
879.588	21488
879.715	21576
879.842	21568
879.97	21481
880.097	21116
880.224	21146
880.351	21135
880.478	21055
880.605	21180
880.732	21146
880.859	21367
880.986	21108
881.112	21169
881.239	21009
881.366	20838
881.493	20853
881.619	20693
881.746	20686
881.872	20621
881.999	20640
882.125	20651
882.252	20731
882.378	20670
882.505	20826
882.631	20632
882.757	20442
882.883	20545
883.01	20495
883.136	20267
883.262	20176
883.388	20218
883.514	20533
883.64	20552
883.766	20419
883.892	20263
884.018	20305
884.143	20385
884.269	20518
884.395	20237
884.52	20084
884.646	20062
884.772	20054
884.897	20005
885.023	20119
885.148	20176
885.274	20107
885.399	20183
885.524	20126
885.65	20119
885.775	20218
885.9	20046
886.025	20100
886.15	20077
886.275	20043
886.4	19875
886.525	20020
886.65	20065
886.775	19986
886.9	20157
887.025	20328
887.149	20065
887.274	19860
887.399	19917
887.523	19818
887.648	19883
887.773	19772
887.897	19898
888.021	19925
888.146	19959
888.27	19970
888.395	19917
888.519	19959
888.643	19875
888.767	19875
888.891	19746
889.015	19624
889.139	19719
889.263	19548
889.387	19883
889.511	19788
889.635	19738
889.759	19662
889.883	19643
890.006	19685
890.13	19704
890.254	19594
890.377	19540
890.501	19415
890.624	19358
890.748	19571
890.871	19392
890.995	19335
891.118	19061
891.241	19244
891.364	19274
891.488	19434
891.611	19221
891.734	19251
891.857	19384
891.98	19247
892.103	19339
892.226	19247
892.349	19148
892.471	19065
892.594	19251
892.717	19164
892.839	19152
892.962	19236
893.085	19206
893.207	19152
893.33	18981
893.452	19209
893.575	19247
893.697	19168
893.819	19232
893.941	19411
894.064	19373
894.186	19221
894.308	19152
894.43	19285
894.552	19343
894.674	19331
894.796	19061
894.918	19228
895.04	19160
895.161	19293
895.283	19217
895.405	19175
895.526	19095
895.648	19050
895.769	19217
895.891	19263
896.012	19327
896.134	19339
896.255	19247
896.376	19217
896.498	19282
896.619	19190
896.74	19308
896.861	19217
896.982	19506
897.103	19727
897.224	19533
897.345	19369
897.466	19392
897.587	19415
897.708	19582
897.828	19502
897.949	19392
898.07	19320
898.19	19255
898.311	19548
898.431	19354
898.552	19460
898.672	19556
898.792	19495
898.913	19457
899.033	19255
899.153	19228
899.273	19198
899.393	19217
899.513	19213
899.633	19179
899.753	19194
899.873	19080
899.993	19183
900.113	19263
900.232	19164
900.352	19152
900.472	18924
900.591	18943
900.711	19015
900.83	18901
900.95	19141
901.069	19202
901.189	18901
901.308	18692
901.427	18513
901.546	18566
901.665	18578
901.784	18642
901.904	18517
902.023	18384
902.141	18102
902.26	18163
902.379	18197
902.498	18144
902.617	18072
902.735	18174
902.854	18034
902.973	18053
903.091	17714
903.21	17726
903.328	17630
903.446	17691
903.565	17600
903.683	17604
903.801	17474
903.919	17535
904.038	17596
904.156	17414
904.274	17474
904.392	17368
904.51	17337
904.627	17292
904.745	17398
904.863	17387
904.981	17140
905.098	17109
905.216	17056
905.334	17025
905.451	17067
905.569	17033
905.686	17094
905.803	17185
905.921	16885
906.038	16889
906.155	16927
906.272	16759
906.389	16774
906.506	16500
906.623	16637
906.74	16622
906.857	16512
906.974	16493
907.091	16558
907.208	16630
907.324	16706
907.441	16447
907.557	16325
907.674	16337
907.79	16291
907.907	16322
908.023	16325
908.139	16337
908.256	16329
908.372	16185
908.488	16207
908.604	16116
908.72	16055
908.836	16048
908.952	16032
909.068	16109
909.184	16116
909.3	16090
909.415	15975
909.531	16017
909.647	15816
909.762	15797
909.878	15770
909.993	15842
910.108	15766
910.224	15679
910.339	15797
910.454	15584
910.57	15576
910.685	15492
910.8	15656
910.915	15755
911.03	15648
911.145	15492
911.259	15367
911.374	15420
911.489	15272
911.604	15245
911.718	15070
911.833	15154
911.947	14994
912.062	14986
912.176	15131
912.291	15256
912.405	15176
912.519	15245
912.633	15329
912.748	15169
912.862	15001
912.976	14967
913.09	14876
913.204	14952
913.318	14956
913.431	14986
913.545	15039
913.659	14975
913.772	14921
913.886	14739
914	14697
914.113	14902
914.226	14864
914.34	14826
914.453	14697
914.566	14739
914.68	14708
914.793	14636
914.906	14431
915.019	14423
915.132	14351
915.245	14427
915.358	14412
915.47	14358
915.583	14404
915.696	14408
915.809	14499
915.921	14446
916.034	14290
916.146	14282
916.259	14248
916.371	14446
916.483	14275
916.595	14282
916.708	14374
916.82	14237
916.932	14130
917.044	14225
917.156	14123
917.268	14088
917.38	14126
917.491	14058
917.603	14073
917.715	14130
917.826	14183
917.938	13997
918.049	13913
918.161	13970
918.272	14115
918.384	14134
918.495	13982
918.606	13784
918.717	13864
918.828	13799
918.939	13845
919.05	13803
919.161	13761
919.272	13616
919.383	13674
919.494	13909
919.604	14016
919.715	13898
919.826	13704
919.936	13746
920.047	13826
920.157	13757
920.267	14039
920.378	13811
920.488	13841
920.598	13970
920.708	14115
920.818	13902
920.928	13944
921.038	14157
921.148	13993
921.258	13791
921.368	13681
921.477	13605
921.587	13411
921.697	13449
921.806	13529
921.916	13354
922.025	13187
922.134	13240
922.244	13133
922.353	13149
922.462	13156
922.571	13091
922.68	12867
922.789	12894
922.898	12985
923.007	12814
923.116	12833
923.224	12859
923.333	12886
923.442	12707
923.55	12745
923.659	12722
923.767	12764
923.876	12627
923.984	12715
924.092	12521
924.201	12684
924.309	12684
924.417	12639
924.525	12490
924.633	12604
924.741	13476
924.849	12361
924.956	12589
925.064	12327
925.172	12315
925.279	12266
925.387	12330
925.494	12258
925.602	12361
925.709	12296
925.816	12247
925.924	12315
926.031	12372
926.138	12289
926.245	12361
926.352	12140
926.459	12353
926.566	12228
926.673	12232
926.779	12129
926.886	12091
926.993	12019
927.099	11935
927.206	11920
927.312	11878
927.419	11863
927.525	11984
927.631	11988
927.737	11805
927.843	11718
927.95	11630
928.056	11695
928.162	11786
928.267	11847
928.373	12403
928.479	11802
928.585	11615
928.69	11646
928.796	11726
928.901	11680
929.007	11448
929.112	11551
929.218	11448
929.323	11554
929.428	11471
929.533	11737
929.638	11444
929.743	11387
929.848	11436
929.953	11387
930.058	11269
930.163	11216
930.267	11140
930.372	11261
930.477	11159
930.581	11379
930.685	11239
930.79	11079
930.894	11102
930.998	11083
931.103	11204
931.207	10793
931.311	10733
931.415	10645
931.519	10481
931.623	10367
