Data from test_V78500241_2503.txt Node
Date: Fri Mar 25 15:27:17 CST 2022
User: usil
Spectrometer: V785-0024
Trigger mode: 0
Integration Time (sec): 4.000000E-1
Scans to average: 1
Nonlinearity correction enabled: false
Boxcar width: 0
Storing dark spectrum: false
XAxis mode: Wavelengths
Number of Pixels in Spectrum: 1024
>>>>>Begin Spectral Data<<<<<
801.071	27070
801.214	27237
801.356	26986
801.499	26960
801.641	26765
801.783	26686
801.926	26769
802.068	26796
802.211	26526
802.353	26583
802.496	26427
802.638	26393
802.78	26434
802.923	26305
803.065	26240
803.208	26275
803.35	26301
803.492	26579
803.635	26552
803.777	26431
803.919	26511
804.061	26838
804.204	26453
804.346	26427
804.488	26465
804.63	26473
804.773	26381
804.915	26514
805.057	26571
805.199	26503
805.341	26575
805.483	26640
805.626	26564
805.768	26446
805.91	26762
806.052	26571
806.194	26450
806.336	26880
806.478	26606
806.62	26499
806.762	26735
806.904	26815
807.046	27009
807.188	26994
807.33	27070
807.472	27188
807.614	27062
807.756	26986
807.898	26921
808.04	26902
808.182	26830
808.324	26910
808.465	26925
808.607	27013
808.749	27180
808.891	27195
809.033	27264
809.174	27279
809.316	27138
809.458	27252
809.6	27264
809.741	27279
809.883	27332
810.025	27439
810.166	27504
810.308	27549
810.45	27488
810.591	27424
810.733	27173
810.875	27241
811.016	27112
811.158	27081
811.299	27351
811.441	27386
811.582	27454
811.724	27302
811.865	27237
812.007	27150
812.148	27222
812.29	27237
812.431	27370
812.573	27526
812.714	27542
812.855	27751
812.997	27686
813.138	27869
813.279	27732
813.421	27652
813.562	27557
813.703	27473
813.845	27500
813.986	27161
814.127	26952
814.268	26845
814.41	26914
814.551	26720
814.692	26906
814.833	26720
814.974	26853
815.115	26864
815.256	26750
815.397	26743
815.539	26701
815.68	26686
815.821	26511
815.962	26731
816.103	26575
816.244	26625
816.385	26434
816.526	26355
816.666	26119
816.807	26073
816.948	26183
817.089	26233
817.23	26088
817.371	26043
817.512	26298
817.653	26115
817.793	26039
817.934	25947
818.075	26142
818.216	26126
818.356	26214
818.497	25978
818.638	25917
818.778	25780
818.919	25898
819.06	25909
819.2	26043
819.341	26073
819.481	26180
819.622	26317
819.762	26442
819.903	26339
820.043	26218
820.184	26157
820.324	26305
820.465	26180
820.605	26278
820.746	26134
820.886	26024
821.026	26256
821.167	26138
821.307	26419
821.447	26153
821.588	26024
821.728	26111
821.868	25780
822.008	25658
822.149	25647
822.289	25731
822.429	25266
822.569	25270
822.709	25308
822.849	25065
822.99	25114
823.13	25107
823.27	25042
823.41	24947
823.55	24901
823.69	24856
823.83	25042
823.97	24920
824.11	24646
824.25	24700
824.389	24654
824.529	24753
824.669	24692
824.809	24779
824.949	24791
825.089	24829
825.228	24772
825.368	24597
825.508	24616
825.648	24582
825.787	24532
825.927	24654
826.067	24490
826.206	24544
826.346	24696
826.485	24688
826.625	24627
826.765	24650
826.904	24585
827.044	24224
827.183	24464
827.323	24281
827.462	24311
827.601	24346
827.741	24353
827.88	24289
828.02	24262
828.159	24266
828.298	24281
828.437	24407
828.577	24235
828.716	24369
828.855	24338
828.994	24003
829.134	24155
829.273	24057
829.412	24068
829.551	23912
829.69	23965
829.829	24038
829.968	23988
830.107	24136
830.246	24102
830.385	24079
830.524	23893
830.663	23805
830.802	23726
830.941	23585
831.08	23452
831.219	23733
831.357	23760
831.496	23939
831.635	23726
831.774	23554
831.913	23551
832.051	23497
832.19	23220
832.329	23436
832.467	23364
832.606	23254
832.744	23360
832.883	23334
833.022	23147
833.16	23421
833.299	23349
833.437	23326
833.576	23482
833.714	23429
833.852	23368
833.991	23406
834.129	23463
834.267	23486
834.406	23421
834.544	23551
834.682	23436
834.821	23524
834.959	23592
835.097	23372
835.235	23436
835.373	23376
835.511	23402
835.65	23296
835.788	23356
835.926	23128
836.064	23014
836.202	23090
836.34	23197
836.478	23307
836.615	23105
836.753	23204
836.891	23254
837.029	23330
837.167	23216
837.305	23124
837.443	23124
837.58	23128
837.718	23094
837.856	23212
837.993	23113
838.131	23067
838.269	22972
838.406	22984
838.544	23044
838.681	22649
838.819	22752
838.956	22561
839.094	22512
839.231	22641
839.369	22752
839.506	22892
839.643	22858
839.781	22596
839.918	22481
840.055	22527
840.193	22497
840.33	22462
840.467	22538
840.604	22592
840.742	22816
840.879	22485
841.016	22466
841.153	22538
841.29	22561
841.427	22531
841.564	22409
841.701	22493
841.838	22405
841.975	22417
842.112	22436
842.249	22398
842.385	22341
842.522	22630
842.659	22386
842.796	22204
842.933	22348
843.069	22314
843.206	22272
843.343	22405
843.479	22261
843.616	22246
843.752	21907
843.889	22109
844.025	22147
844.162	22040
844.298	22074
844.435	21972
844.571	22128
844.708	21934
844.844	22211
844.98	22185
845.117	22040
845.253	21941
845.389	21953
845.525	21915
845.661	21960
845.798	21785
845.934	21785
846.07	21789
846.206	21941
846.342	21918
846.478	21819
846.614	21564
846.75	21412
846.886	21542
847.022	21481
847.158	21614
847.294	21507
847.429	21606
847.565	21492
847.701	21622
847.837	21291
847.972	21386
848.108	21340
848.244	21378
848.379	21131
848.515	21169
848.65	21062
848.786	21211
848.921	21081
849.057	21150
849.192	21119
849.328	21138
849.463	21077
849.598	21058
849.734	20971
849.869	20937
850.004	20952
850.14	20929
850.275	20876
850.41	20712
850.545	20785
850.68	20944
850.815	20899
850.95	20834
851.085	20998
851.22	20906
851.355	20979
851.49	20876
851.625	20845
851.76	20800
851.895	20834
852.03	20807
852.165	20891
852.299	20906
852.434	20925
852.569	20857
852.703	20861
852.838	20925
852.973	20914
853.107	21058
853.242	20823
853.376	20659
853.511	20655
853.645	20549
853.78	20872
853.914	20655
854.048	20716
854.183	20739
854.317	20682
854.451	20868
854.585	20644
854.72	20712
854.854	20868
854.988	20705
855.122	20708
855.256	20674
855.39	20682
855.524	20819
855.658	20800
855.792	20689
855.926	20697
856.06	20727
856.194	20777
856.327	20636
856.461	20651
856.595	20667
856.729	20807
856.862	20792
856.996	20705
857.13	20834
857.263	20838
857.397	20686
857.53	20735
857.664	20777
857.797	20823
857.931	20849
858.064	20804
858.197	20883
858.331	20590
858.464	20564
858.597	20640
858.731	20712
858.864	20644
858.997	20701
859.13	20686
859.263	20693
859.396	20849
859.529	20594
859.662	20705
859.795	20575
859.928	20804
860.061	20883
860.194	20864
860.327	20796
860.46	20834
860.592	20918
860.725	20872
860.858	20834
860.99	20686
861.123	20549
861.256	20636
861.388	20815
861.521	21256
861.653	20522
861.786	20381
861.918	20632
862.05	20552
862.183	20594
862.315	20731
862.447	20712
862.58	20659
862.712	20537
862.844	20343
862.976	20556
863.108	20499
863.24	20899
863.372	20267
863.504	20575
863.636	20358
863.768	20419
863.9	20396
864.032	20339
864.164	20427
864.296	20381
864.428	20560
864.559	20480
864.691	20571
864.823	20480
864.954	20434
865.086	20385
865.217	20332
865.349	20256
865.48	20252
865.612	20419
865.743	20408
865.875	20415
866.006	20172
866.137	20286
866.269	20233
866.4	20362
866.531	20263
866.662	20195
866.793	20332
866.924	20278
867.055	20332
867.186	20427
867.317	20259
867.448	20248
867.579	20199
867.71	20187
867.841	20187
867.972	20218
868.103	20267
868.233	20248
868.364	20240
868.495	20271
868.625	20454
868.756	20720
868.886	20431
869.017	20492
869.147	20655
869.278	20579
869.408	20568
869.539	20514
869.669	20492
869.799	20625
869.929	20606
870.06	20644
870.19	20834
870.32	20819
870.45	20864
870.58	20914
870.71	21032
870.84	20990
870.97	20838
871.1	20941
871.23	21001
871.36	21093
871.489	21135
871.619	21024
871.749	21043
871.879	21146
872.008	21298
872.138	21169
872.267	21093
872.397	20933
872.526	21013
872.656	21017
872.785	20902
872.915	21043
873.044	21214
873.173	21085
873.303	21135
873.432	21154
873.561	21222
873.69	21085
873.819	21146
873.948	21252
874.077	21005
874.206	21173
874.335	21123
874.464	21348
874.593	21317
874.722	21287
874.851	21481
874.979	21351
875.108	21405
875.237	21214
875.365	21321
875.494	21332
875.623	21447
875.751	21298
875.88	21329
876.008	21481
876.136	21557
876.265	21778
876.393	21846
876.521	21789
876.65	21827
876.778	21732
876.906	21770
877.034	21667
877.162	21732
877.29	21713
877.418	21789
877.546	21739
877.674	21778
877.802	21762
877.93	21686
878.058	21698
878.185	21580
878.313	21694
878.441	21751
878.568	21458
878.696	21660
878.824	21667
878.951	21804
879.079	21873
879.206	21975
879.333	21888
879.461	21728
879.588	21808
879.715	21816
879.842	21907
879.97	21857
880.097	21526
880.224	21618
880.351	21526
880.478	21622
880.605	21492
880.732	21568
880.859	21690
880.986	21488
881.112	21542
881.239	21473
881.366	21325
881.493	21310
881.619	21024
881.746	21119
881.872	21184
881.999	21127
882.125	21085
882.252	21154
882.378	21093
882.505	21256
882.631	20933
882.757	20960
882.883	20895
883.01	20864
883.136	20785
883.262	20750
883.388	20670
883.514	20834
883.64	20731
883.766	20712
883.892	20648
884.018	20674
884.143	20861
884.269	20788
884.395	20465
884.52	20358
884.646	20427
884.772	20427
884.897	20381
885.023	20511
885.148	20571
885.274	20613
885.399	20594
885.524	20495
885.65	20408
885.775	20526
885.9	20465
886.025	20533
886.15	20594
886.275	20454
886.4	20362
886.525	20530
886.65	20328
886.775	20370
886.9	20549
887.025	20792
887.149	20389
887.274	20263
887.399	20309
887.523	20221
887.648	20191
887.773	20278
887.897	20294
888.021	20199
888.146	20305
888.27	20336
888.395	20278
888.519	20252
888.643	20256
888.767	20282
888.891	20187
889.015	20103
889.139	20191
889.263	20103
889.387	20168
889.511	20244
889.635	20286
889.759	20008
889.883	20065
890.006	20046
890.13	20046
890.254	19913
890.377	19890
890.501	19803
890.624	19811
890.748	19818
890.871	19753
890.995	19651
891.118	19677
891.241	19559
891.364	19586
891.488	19693
891.611	19635
891.734	19552
891.857	19734
891.98	19609
892.103	19696
892.226	19674
892.349	19601
892.471	19369
892.594	19499
892.717	19525
892.839	19578
892.962	19544
893.085	19628
893.207	19514
893.33	19491
893.452	19468
893.575	19639
893.697	19563
893.819	19643
893.941	19776
894.064	19620
894.186	19445
894.308	19468
894.43	19624
894.552	19715
894.674	19597
894.796	19544
894.918	19533
895.04	19575
895.161	19624
895.283	19655
895.405	19510
895.526	19662
895.648	19552
895.769	19548
895.891	19567
896.012	19655
896.134	19628
896.255	19449
896.376	19559
896.498	19521
896.619	19590
896.74	19521
896.861	19677
896.982	19913
897.103	19986
897.224	19833
897.345	19742
897.466	19693
897.587	19811
897.708	19894
897.828	19757
897.949	19616
898.07	19658
898.19	19803
898.311	19753
898.431	19666
898.552	19833
898.672	19776
898.792	19944
898.913	19772
899.033	19700
899.153	19689
899.273	19400
899.393	19559
899.513	19540
899.633	19552
899.753	19609
899.873	19563
899.993	19537
900.113	19491
900.232	19556
900.352	19491
900.472	19392
900.591	19316
900.711	19346
900.83	19327
900.95	19460
901.069	19457
901.189	19324
901.308	18996
901.427	18947
901.546	18954
901.665	19065
901.784	18916
901.904	18916
902.023	18707
902.141	18486
902.26	18486
902.379	18566
902.498	18467
902.617	18403
902.735	18559
902.854	18388
902.973	18289
903.091	18205
903.21	18117
903.328	18133
903.446	18049
903.565	17988
903.683	17923
903.801	17851
903.919	17901
904.038	17859
904.156	17722
904.274	17714
904.392	17707
904.51	17703
904.627	17638
904.745	17661
904.863	17802
904.981	17463
905.098	17387
905.216	17341
905.334	17429
905.451	17337
905.569	17349
905.686	17353
905.803	17326
905.921	17098
906.038	17162
906.155	17178
906.272	17060
906.389	17075
906.506	16976
906.623	17018
906.74	16812
906.857	16767
906.974	16862
907.091	17022
907.208	17098
907.324	16972
907.441	16809
907.557	16634
907.674	16740
907.79	16508
907.907	16577
908.023	16637
908.139	16664
908.256	16573
908.372	16558
908.488	16497
908.604	16405
908.72	16306
908.836	16417
908.952	16295
909.068	16436
909.184	16436
909.3	16352
909.415	16478
909.531	16371
909.647	16166
909.762	16017
909.878	16048
909.993	16090
910.108	16101
910.224	16105
910.339	16032
910.454	15949
910.57	15907
910.685	15865
910.8	15968
910.915	16109
911.03	15827
911.145	15743
911.259	15759
911.374	15671
911.489	15591
911.604	15603
911.718	15488
911.833	15500
911.947	15481
912.062	15355
912.176	15435
912.291	15469
912.405	15469
912.519	15656
912.633	15728
912.748	15431
912.862	15378
912.976	15260
913.09	15055
913.204	15268
913.318	15287
913.431	15355
913.545	15405
913.659	15397
913.772	15214
913.886	15127
914	15017
914.113	15203
914.226	15009
914.34	15100
914.453	15081
914.566	15036
914.68	14994
914.793	14986
914.906	14788
915.019	14621
915.132	14670
915.245	14632
915.358	14629
915.47	14648
915.583	14625
915.696	14716
915.809	14769
915.921	14758
916.034	14575
916.146	14606
916.259	14465
916.371	14712
916.483	14617
916.595	14484
916.708	14518
916.82	14450
916.932	14488
917.044	14495
917.156	14507
917.268	14313
917.38	14347
917.491	14271
917.603	14396
917.715	14457
917.826	14358
917.938	14275
918.049	14210
918.161	14393
918.272	14492
918.384	14484
918.495	14275
918.606	14103
918.717	14050
918.828	14123
918.939	14237
919.05	14016
919.161	14069
919.272	13875
919.383	14020
919.494	14092
919.604	14423
919.715	14138
919.826	13970
919.936	13974
920.047	14180
920.157	14096
920.267	14290
920.378	14084
920.488	14054
920.598	14111
920.708	14412
920.818	14278
920.928	14214
921.038	14317
921.148	14294
921.258	13967
921.368	13963
921.477	13784
921.587	13795
921.697	13712
921.806	13868
921.916	13674
922.025	13544
922.134	13525
922.244	13373
922.353	13578
922.462	13343
922.571	13384
922.68	13209
922.789	13099
922.898	13137
923.007	13061
923.116	13061
923.224	13137
923.333	13099
923.442	13034
923.55	12947
923.659	13004
923.767	13114
923.876	12867
923.984	12905
924.092	12897
924.201	12947
924.309	12901
924.417	12821
924.525	12833
924.633	12764
924.741	13769
924.849	12642
924.956	12726
925.064	12692
925.172	12551
925.279	12623
925.387	12597
925.494	12604
925.602	12776
925.709	12673
925.816	12528
925.924	12509
926.031	12544
926.138	12585
926.245	12467
926.352	12418
926.459	12544
926.566	12521
926.673	12452
926.779	12300
926.886	12456
926.993	12247
927.099	12148
927.206	12098
927.312	12087
927.419	12167
927.525	12114
927.631	12144
927.737	12019
927.843	11973
927.95	11878
928.056	12034
928.162	11984
928.267	12030
928.373	12677
928.479	12049
928.585	11847
928.69	11893
928.796	11961
928.901	11859
929.007	11665
929.112	11840
929.218	11817
929.323	11695
929.428	11627
929.533	11748
929.638	11611
929.743	11691
929.848	11775
929.953	11661
930.058	11608
930.163	11364
930.267	11467
930.372	11539
930.477	11459
930.581	11630
930.685	11345
930.79	11254
930.894	11330
930.998	11250
931.103	11433
931.207	11105
931.311	11018
931.415	10831
931.519	10679
931.623	10683
