Data from test_V78500241_2657.txt Node
Date: Fri Mar 25 15:28:21 CST 2022
User: usil
Spectrometer: V785-0024
Trigger mode: 0
Integration Time (sec): 4.000000E-1
Scans to average: 1
Nonlinearity correction enabled: false
Boxcar width: 0
Storing dark spectrum: false
XAxis mode: Wavelengths
Number of Pixels in Spectrum: 1024
>>>>>Begin Spectral Data<<<<<
801.071	26811
801.214	26891
801.356	26632
801.499	26549
801.641	26621
801.783	26434
801.926	26625
802.068	26370
802.211	26511
802.353	26415
802.496	26240
802.638	26259
802.78	26039
802.923	26031
803.065	25860
803.208	26054
803.35	26138
803.492	26221
803.635	26320
803.777	26176
803.919	26328
804.061	26495
804.204	26290
804.346	26199
804.488	26107
804.63	26313
804.773	26134
804.915	26362
805.057	26301
805.199	26218
805.341	26313
805.483	26408
805.626	26301
805.768	26225
805.91	26351
806.052	26240
806.194	26290
806.336	26522
806.478	26259
806.62	26351
806.762	26465
806.904	26655
807.046	26868
807.188	26743
807.33	26739
807.472	26689
807.614	26746
807.756	26758
807.898	26571
808.04	26404
808.182	26381
808.324	26526
808.465	26720
808.607	26891
808.749	26963
808.891	27154
809.033	27119
809.174	26944
809.316	26872
809.458	27024
809.6	26861
809.741	26986
809.883	27100
810.025	27123
810.166	27291
810.308	27287
810.45	27116
810.591	27066
810.733	26864
810.875	26807
811.016	26792
811.158	26914
811.299	27024
811.441	27150
811.582	27013
811.724	26826
811.865	26769
812.007	26769
812.148	26864
812.29	26868
812.431	27005
812.573	27150
812.714	27367
812.855	27389
812.997	27576
813.138	27671
813.279	27401
813.421	27355
813.562	27268
813.703	27195
813.845	27062
813.986	26868
814.127	26587
814.268	26564
814.41	26667
814.551	26571
814.692	26598
814.833	26453
814.974	26492
815.115	26503
815.256	26465
815.397	26469
815.539	26396
815.68	26434
815.821	26138
815.962	26313
816.103	26320
816.244	26183
816.385	26149
816.526	25986
816.666	25864
816.807	25940
816.948	25974
817.089	25879
817.23	25841
817.371	25769
817.512	25868
817.653	25746
817.793	25818
817.934	25727
818.075	25856
818.216	25708
818.356	25811
818.497	25693
818.638	25529
818.778	25578
818.919	25643
819.06	25578
819.2	25731
819.341	25871
819.481	25753
819.622	25894
819.762	26012
819.903	26103
820.043	25974
820.184	25811
820.324	25951
820.465	25940
820.605	25951
820.746	25868
820.886	25753
821.026	25799
821.167	25708
821.307	25970
821.447	25803
821.588	25689
821.728	25479
821.868	25449
822.008	25362
822.149	25346
822.289	25358
822.429	24943
822.569	25008
822.709	24981
822.849	24715
822.99	24787
823.13	24806
823.27	24779
823.41	24585
823.55	24467
823.69	24517
823.83	24597
823.97	24452
824.11	24292
824.25	24414
824.389	24437
824.529	24403
824.669	24407
824.809	24570
824.949	24448
825.089	24403
825.228	24391
825.368	24262
825.508	24216
825.648	24201
825.787	24399
825.927	24319
826.067	24296
826.206	24254
826.346	24342
826.485	24273
826.625	24220
826.765	24262
826.904	24289
827.044	24060
827.183	23939
827.323	23935
827.462	24072
827.601	23988
827.741	23961
827.88	24011
828.02	23878
828.159	23942
828.298	23920
828.437	23988
828.577	23851
828.716	24034
828.855	23904
828.994	23790
829.134	23668
829.273	23760
829.412	23649
829.551	23699
829.69	23638
829.829	23615
829.968	23745
830.107	23668
830.246	23672
830.385	23653
830.524	23649
830.663	23486
830.802	23398
830.941	23261
831.08	23216
831.219	23421
831.357	23273
831.496	23600
831.635	23231
831.774	23162
831.913	23265
832.051	23193
832.19	23048
832.329	23010
832.467	23044
832.606	22953
832.744	22930
832.883	22930
833.022	22957
833.16	22919
833.299	23018
833.437	22858
833.576	23052
833.714	22965
833.852	23052
833.991	23033
834.129	23014
834.267	23227
834.406	23090
834.544	23105
834.682	22965
834.821	22862
834.959	23265
835.097	22961
835.235	23060
835.373	22961
835.511	23025
835.65	22866
835.788	22972
835.926	22744
836.064	22721
836.202	22763
836.34	22835
836.478	23037
836.615	22812
836.753	22839
836.891	22847
837.029	22904
837.167	22725
837.305	22774
837.443	22793
837.58	22721
837.718	22771
837.856	22839
837.993	22660
838.131	22713
838.269	22664
838.406	22504
838.544	22535
838.681	22402
838.819	22398
838.956	22219
839.094	22181
839.231	22215
839.369	22462
839.506	22584
839.643	22428
839.781	22029
839.918	22109
840.055	22226
840.193	22196
840.33	22150
840.467	22124
840.604	22196
840.742	22455
840.879	22074
841.016	22158
841.153	22135
841.29	22344
841.427	22105
841.564	22223
841.701	22181
841.838	22105
841.975	22059
842.112	22105
842.249	22013
842.385	21937
842.522	22204
842.659	21945
842.796	21922
842.933	21983
843.069	21892
843.206	21876
843.343	21972
843.479	21930
843.616	21937
843.752	21606
843.889	21686
844.025	21739
844.162	21713
844.298	21762
844.435	21641
844.571	21614
844.708	21736
844.844	21781
844.98	21857
845.117	21694
845.253	21682
845.389	21538
845.525	21496
845.661	21622
845.798	21279
845.934	21473
846.07	21416
846.206	21458
846.342	21583
846.478	21374
846.614	21233
846.75	21089
846.886	21207
847.022	21123
847.158	21332
847.294	21180
847.429	21154
847.565	21154
847.701	21367
847.837	20956
847.972	20872
848.108	21001
848.244	20857
848.379	20758
848.515	20705
848.65	20689
848.786	20823
848.921	20906
849.057	20830
849.192	20937
849.328	20796
849.463	20731
849.598	20712
849.734	20716
849.869	20537
850.004	20560
850.14	20476
850.275	20568
850.41	20415
850.545	20564
850.68	20507
850.815	20434
850.95	20499
851.085	20705
851.22	20632
851.355	20625
851.49	20503
851.625	20412
851.76	20488
851.895	20518
852.03	20339
852.165	20541
852.299	20651
852.434	20640
852.569	20480
852.703	20514
852.838	20503
852.973	20667
853.107	20609
853.242	20290
853.376	20366
853.511	20206
853.645	20427
853.78	20457
853.914	20362
854.048	20358
854.183	20221
854.317	20370
854.451	20511
854.585	20301
854.72	20294
854.854	20370
854.988	20183
855.122	20374
855.256	20240
855.39	20286
855.524	20271
855.658	20488
855.792	20393
855.926	20267
856.06	20499
856.194	20442
856.327	20309
856.461	20225
856.595	20377
856.729	20366
856.862	20389
856.996	20309
857.13	20408
857.263	20412
857.397	20465
857.53	20351
857.664	20282
857.797	20476
857.931	20400
858.064	20438
858.197	20457
858.331	20313
858.464	20362
858.597	20324
858.731	20313
858.864	20256
858.997	20202
859.13	20400
859.263	20370
859.396	20530
859.529	20305
859.662	20305
859.795	20214
859.928	20347
860.061	20503
860.194	20575
860.327	20404
860.46	20381
860.592	20507
860.725	20511
860.858	20495
860.99	20393
861.123	20431
861.256	20374
861.388	20362
861.521	21055
861.653	20176
861.786	20073
861.918	20130
862.05	20202
862.183	20275
862.315	20347
862.447	20389
862.58	20298
862.712	20077
862.844	19986
862.976	20142
863.108	20069
863.24	20594
863.372	20031
863.504	20031
863.636	20069
863.768	20111
863.9	20088
864.032	19970
864.164	20016
864.296	20069
864.428	20221
864.559	20138
864.691	20157
864.823	20027
864.954	20062
865.086	19989
865.217	19970
865.349	19849
865.48	19913
865.612	19936
865.743	20012
865.875	19982
866.006	19951
866.137	19913
866.269	19860
866.4	19890
866.531	19868
866.662	19890
866.793	19955
866.924	19963
867.055	19894
867.186	19974
867.317	19845
867.448	19871
867.579	19898
867.71	19864
867.841	19868
867.972	20001
868.103	20050
868.233	19902
868.364	19845
868.495	19986
868.625	20058
868.756	20240
868.886	20107
869.017	20138
869.147	20294
869.278	20256
869.408	20161
869.539	20111
869.669	20168
869.799	20134
869.929	20237
870.06	20351
870.19	20431
870.32	20427
870.45	20476
870.58	20465
870.71	20693
870.84	20644
870.97	20609
871.1	20526
871.23	20823
871.36	20785
871.489	20651
871.619	20746
871.749	20712
871.879	20842
872.008	20914
872.138	20796
872.267	20750
872.397	20712
872.526	20560
872.656	20621
872.785	20549
872.915	20746
873.044	20785
873.173	20811
873.303	20788
873.432	20754
873.561	20910
873.69	20823
873.819	20758
873.948	20933
874.077	20849
874.206	20636
874.335	20754
874.464	20842
874.593	21119
874.722	20948
874.851	21077
874.979	21062
875.108	21085
875.237	20937
875.365	21001
875.494	20982
875.623	21154
875.751	21047
875.88	21070
876.008	21207
876.136	21176
876.265	21492
876.393	21500
876.521	21526
876.65	21378
876.778	21431
876.906	21405
877.034	21389
877.162	21405
877.29	21424
877.418	21317
877.546	21374
877.674	21317
877.802	21469
877.93	21363
878.058	21306
878.185	21176
878.313	21367
878.441	21313
878.568	21173
878.696	21336
878.824	21336
878.951	21564
879.079	21557
879.206	21591
879.333	21568
879.461	21443
879.588	21500
879.715	21538
879.842	21576
879.97	21523
880.097	21192
880.224	21108
880.351	21211
880.478	21146
880.605	21268
880.732	21138
880.859	21564
880.986	21188
881.112	21096
881.239	20948
881.366	21036
881.493	20872
881.619	20807
881.746	20731
881.872	20872
881.999	20739
882.125	20735
882.252	20876
882.378	20746
882.505	20849
882.631	20621
882.757	20465
882.883	20541
883.01	20511
883.136	20415
883.262	20389
883.388	20313
883.514	20495
883.64	20488
883.766	20427
883.892	20317
884.018	20320
884.143	20408
884.269	20412
884.395	20252
884.52	20115
884.646	20218
884.772	20069
884.897	20065
885.023	20225
885.148	20191
885.274	20374
885.399	20309
885.524	20096
885.65	20115
885.775	20149
885.9	20214
886.025	20225
886.15	20290
886.275	20043
886.4	20020
886.525	20172
886.65	20027
886.775	20073
886.9	20240
887.025	20339
887.149	20161
887.274	19947
887.399	20016
887.523	19932
887.648	19902
887.773	19879
887.897	20024
888.021	19974
888.146	19784
888.27	19955
888.395	20058
888.519	19879
888.643	19986
888.767	19974
888.891	19871
889.015	19788
889.139	19864
889.263	19772
889.387	19906
889.511	20077
889.635	19883
889.759	19860
889.883	19715
890.006	19791
890.13	19898
890.254	19753
890.377	19757
890.501	19556
890.624	19578
890.748	19502
890.871	19567
890.995	19445
891.118	19331
891.241	19502
891.364	19350
891.488	19491
891.611	19400
891.734	19343
891.857	19445
891.98	19396
892.103	19392
892.226	19362
892.349	19339
892.471	19213
892.594	19209
892.717	19304
892.839	19293
892.962	19213
893.085	19441
893.207	19289
893.33	19179
893.452	19293
893.575	19293
893.697	19297
893.819	19346
893.941	19502
894.064	19521
894.186	19285
894.308	19282
894.43	19430
894.552	19388
894.674	19441
894.796	19289
894.918	19324
895.04	19316
895.161	19278
895.283	19308
895.405	19259
895.526	19365
895.648	19236
895.769	19228
895.891	19278
896.012	19301
896.134	19388
896.255	19335
896.376	19156
896.498	19278
896.619	19327
896.74	19346
896.861	19339
896.982	19624
897.103	19852
897.224	19586
897.345	19476
897.466	19518
897.587	19487
897.708	19666
897.828	19510
897.949	19400
898.07	19438
898.19	19483
898.311	19559
898.431	19411
898.552	19499
898.672	19689
898.792	19571
898.913	19571
899.033	19521
899.153	19381
899.273	19293
899.393	19384
899.513	19282
899.633	19293
899.753	19247
899.873	19232
899.993	19346
900.113	19221
900.232	19133
900.352	19236
900.472	19065
900.591	18996
900.711	19179
900.83	19069
900.95	19152
901.069	19217
901.189	18989
901.308	18844
901.427	18673
901.546	18745
901.665	18696
901.784	18707
901.904	18601
902.023	18540
902.141	18243
902.26	18247
902.379	18319
902.498	18220
902.617	18178
902.735	18201
902.854	18205
902.973	18026
903.091	17863
903.21	17821
903.328	17866
903.446	17832
903.565	17745
903.683	17748
903.801	17543
903.919	17634
904.038	17558
904.156	17471
904.274	17532
904.392	17493
904.51	17410
904.627	17497
904.745	17535
904.863	17615
904.981	17296
905.098	17220
905.216	17166
905.334	17216
905.451	17193
905.569	17128
905.686	17128
905.803	17109
905.921	16908
906.038	16999
906.155	16999
906.272	16831
906.389	16949
906.506	16656
906.623	16630
906.74	16607
906.857	16550
906.974	16611
907.091	16660
907.208	16740
907.324	16729
907.441	16634
907.557	16535
907.674	16516
907.79	16306
907.907	16497
908.023	16447
908.139	16344
908.256	16303
908.372	16344
908.488	16246
908.604	16215
908.72	16101
908.836	16093
908.952	16120
909.068	16173
909.184	16238
909.3	16169
909.415	16185
909.531	16135
909.647	16029
909.762	15793
909.878	15812
909.993	15812
910.108	15846
910.224	15873
910.339	15926
910.454	15690
910.57	15785
910.685	15515
910.8	15816
910.915	15778
911.03	15648
911.145	15466
911.259	15439
911.374	15431
911.489	15386
911.604	15272
911.718	15218
911.833	15264
911.947	15100
912.062	15074
912.176	15188
912.291	15386
912.405	15317
912.519	15603
912.633	15458
912.748	15294
912.862	15207
912.976	15036
913.09	14956
913.204	15039
913.318	15047
913.431	15112
913.545	14967
913.659	15093
913.772	14998
913.886	14823
914	14823
914.113	14910
914.226	15032
914.34	14899
914.453	14663
914.566	14830
914.68	14716
914.793	14750
914.906	14522
915.019	14419
915.132	14423
915.245	14434
915.358	14499
915.47	14530
915.583	14450
915.696	14503
915.809	14575
915.921	14693
916.034	14454
916.146	14370
916.259	14377
916.371	14503
916.483	14442
916.595	14301
916.708	14278
916.82	14305
916.932	14358
917.044	14305
917.156	14336
917.268	14115
917.38	14210
917.491	14119
917.603	14206
917.715	14244
917.826	14210
917.938	14039
918.049	13947
918.161	14123
918.272	14229
918.384	14248
918.495	14077
918.606	14020
918.717	13894
918.828	14016
918.939	13978
919.05	13849
919.161	13959
919.272	13712
919.383	13734
919.494	13982
919.604	14126
919.715	13989
919.826	13856
919.936	13902
920.047	14054
920.157	13921
920.267	14031
920.378	13947
920.488	13925
920.598	14024
920.708	14221
920.818	14005
920.928	14050
921.038	14134
921.148	14183
921.258	13871
921.368	13753
921.477	13636
921.587	13609
921.697	13529
921.806	13685
921.916	13506
922.025	13343
922.134	13365
922.244	13221
922.353	13411
922.462	13247
922.571	13103
922.68	12916
922.789	13065
922.898	12981
923.007	12958
923.116	13065
923.224	12897
923.333	12871
923.442	12901
923.55	12730
923.659	12848
923.767	12844
923.876	12768
923.984	12817
924.092	12703
924.201	12692
924.309	12719
924.417	12795
924.525	12654
924.633	12620
924.741	13643
924.849	12464
924.956	12631
925.064	12429
925.172	12433
925.279	12384
925.387	12353
925.494	12464
925.602	12467
925.709	12437
925.816	12350
925.924	12502
926.031	12384
926.138	12395
926.245	12418
926.352	12258
926.459	12353
926.566	12410
926.673	12296
926.779	12087
926.886	12182
926.993	11965
927.099	12007
927.206	11950
927.312	11851
927.419	12007
927.525	11980
927.631	11965
927.737	11916
927.843	11813
927.95	11691
928.056	11855
928.162	11828
928.267	11874
928.373	12281
928.479	11950
928.585	11688
928.69	11741
928.796	11821
928.901	11691
929.007	11474
929.112	11703
929.218	11623
929.323	11509
929.428	11623
929.533	11718
929.638	11410
929.743	11501
929.848	11551
929.953	11562
930.058	11391
930.163	11193
930.267	11223
930.372	11326
930.477	11246
930.581	11417
930.685	11258
930.79	11105
930.894	11227
930.998	11143
931.103	11235
931.207	10957
931.311	10854
931.415	10687
931.519	10523
931.623	10573
