Data from test_V78500241_1487.txt Node
Date: Fri Mar 25 15:20:12 CST 2022
User: usil
Spectrometer: V785-0024
Trigger mode: 0
Integration Time (sec): 4.000000E-1
Scans to average: 1
Nonlinearity correction enabled: false
Boxcar width: 0
Storing dark spectrum: false
XAxis mode: Wavelengths
Number of Pixels in Spectrum: 1024
>>>>>Begin Spectral Data<<<<<
801.071	28029
801.214	27987
801.356	27770
801.499	27599
801.641	27587
801.783	27542
801.926	27762
802.068	27599
802.211	27603
802.353	27450
802.496	27294
802.638	27412
802.78	27146
802.923	27203
803.065	27085
803.208	27142
803.35	27302
803.492	27226
803.635	27317
803.777	27412
803.919	27618
804.061	27690
804.204	27599
804.346	27264
804.488	27473
804.63	27355
804.773	27416
804.915	27553
805.057	27405
805.199	27439
805.341	27549
805.483	27728
805.626	27713
805.768	27435
805.91	27587
806.052	27667
806.194	27462
806.336	27614
806.478	27644
806.62	27732
806.762	27770
806.904	27812
807.046	28139
807.188	28070
807.33	28112
807.472	28101
807.614	28010
807.756	27987
807.898	27937
808.04	27865
808.182	27960
808.324	27800
808.465	27854
808.607	28166
808.749	28192
808.891	28413
809.033	28504
809.174	28329
809.316	28280
809.458	28337
809.6	28272
809.741	28371
809.883	28322
810.025	28592
810.166	28413
810.308	28622
810.45	28443
810.591	28538
810.733	28287
810.875	28341
811.016	28044
811.158	28093
811.299	28253
811.441	28352
811.582	28394
811.724	28287
811.865	28230
812.007	28188
812.148	28128
812.29	28276
812.431	28398
812.573	28679
812.714	28664
812.855	28835
812.997	28881
813.138	28938
813.279	28847
813.421	28930
813.562	28816
813.703	28721
813.845	28512
813.986	28257
814.127	28044
814.268	28082
814.41	27994
814.551	27884
814.692	28124
814.833	27983
814.974	27911
815.115	27895
815.256	27846
815.397	27770
815.539	27789
815.68	27625
815.821	27694
815.962	27728
816.103	27694
816.244	27770
816.385	27481
816.526	27496
816.666	27348
816.807	27252
816.948	27344
817.089	27348
817.23	27283
817.371	27306
817.512	27348
817.653	27237
817.793	27260
817.934	27317
818.075	27203
818.216	27291
818.356	27127
818.497	27142
818.638	27062
818.778	26967
818.919	27028
819.06	26895
819.2	27032
819.341	27100
819.481	27211
819.622	27321
819.762	27538
819.903	27477
820.043	27553
820.184	27245
820.324	27389
820.465	27310
820.605	27447
820.746	27298
820.886	27165
821.026	27329
821.167	27408
821.307	27310
821.447	27211
821.588	27195
821.728	26944
821.868	26838
822.008	26788
822.149	26811
822.289	26560
822.429	26465
822.569	26324
822.709	26343
822.849	26191
822.99	26187
823.13	26142
823.27	26111
823.41	25989
823.55	26081
823.69	26031
823.83	26111
823.97	26088
824.11	25822
824.25	25784
824.389	25906
824.529	25951
824.669	25856
824.809	26012
824.949	25989
825.089	25978
825.228	25978
825.368	25746
825.508	25693
825.648	25803
825.787	25765
825.927	25807
826.067	25788
826.206	25719
826.346	25837
826.485	25841
826.625	25685
826.765	25879
826.904	25795
827.044	25632
827.183	25453
827.323	25419
827.462	25635
827.601	25460
827.741	25457
827.88	25537
828.02	25441
828.159	25350
828.298	25476
828.437	25422
828.577	25247
828.716	25620
828.855	25339
828.994	25240
829.134	25217
829.273	25244
829.412	25285
829.551	25183
829.69	25088
829.829	25187
829.968	25126
830.107	25194
830.246	25118
830.385	25042
830.524	24943
830.663	25053
830.802	24932
830.941	24722
831.08	24791
831.219	24863
831.357	24806
831.496	24890
831.635	24726
831.774	24665
831.913	24700
832.051	24555
832.19	24536
832.329	24574
832.467	24448
832.606	24361
832.744	24296
832.883	24388
833.022	24357
833.16	24563
833.299	24407
833.437	24536
833.576	24467
833.714	24555
833.852	24445
833.991	24437
834.129	24654
834.267	24574
834.406	24574
834.544	24582
834.682	24429
834.821	24365
834.959	24620
835.097	24521
835.235	24547
835.373	24414
835.511	24517
835.65	24296
835.788	24429
835.926	24171
836.064	24110
836.202	24152
836.34	24338
836.478	24372
836.615	24353
836.753	24247
836.891	24357
837.029	24330
837.167	24353
837.305	24095
837.443	24171
837.58	24136
837.718	24174
837.856	24197
837.993	24053
838.131	24129
838.269	23939
838.406	24117
838.544	23988
838.681	23798
838.819	23859
838.956	23726
839.094	23680
839.231	23832
839.369	23585
839.506	24011
839.643	23859
839.781	23535
839.918	23581
840.055	23649
840.193	23570
840.33	23433
840.467	23623
840.604	23672
840.742	23847
840.879	23398
841.016	23429
841.153	23383
841.29	23535
841.427	23539
841.564	23531
841.701	23512
841.838	23448
841.975	23478
842.112	23505
842.249	23330
842.385	23353
842.522	23417
842.659	23337
842.796	23231
842.933	23166
843.069	23170
843.206	23216
843.343	23261
843.479	23284
843.616	23273
843.752	23083
843.889	23064
844.025	23113
844.162	23025
844.298	23204
844.435	22999
844.571	23006
844.708	23105
844.844	23212
844.98	23200
845.117	23200
845.253	22942
845.389	22919
845.525	22858
845.661	22877
845.798	22862
845.934	22942
846.07	22694
846.206	22733
846.342	22847
846.478	22664
846.614	22626
846.75	22257
846.886	22626
847.022	22546
847.158	22637
847.294	22424
847.429	22668
847.565	22573
847.701	22641
847.837	22211
847.972	22185
848.108	22200
848.244	22329
848.379	22143
848.515	22059
848.65	22082
848.786	22029
848.921	22242
849.057	22120
849.192	22299
849.328	22090
849.463	22086
849.598	22070
849.734	21930
849.869	21979
850.004	21682
850.14	21854
850.275	21857
850.41	21831
850.545	21854
850.68	21812
850.815	21911
850.95	21911
851.085	21964
851.22	21975
851.355	21892
851.49	21759
851.625	21831
851.76	21915
851.895	21842
852.03	21728
852.165	21823
852.299	21781
852.434	21960
852.569	21804
852.703	21781
852.838	21899
852.973	21983
853.107	21987
853.242	21915
853.376	21637
853.511	21595
853.645	21641
853.78	21789
853.914	21709
854.048	21614
854.183	21720
854.317	21637
854.451	21835
854.585	21663
854.72	21743
854.854	21751
854.988	21637
855.122	21762
855.256	21542
855.39	21610
855.524	21625
855.658	21629
855.792	21648
855.926	21717
856.06	21766
856.194	21694
856.327	21652
856.461	21648
856.595	21644
856.729	21534
856.862	21846
856.996	21686
857.13	21629
857.263	21846
857.397	21770
857.53	21713
857.664	21667
857.797	21789
857.931	21743
858.064	21739
858.197	21698
858.331	21629
858.464	21690
858.597	21511
858.731	21720
858.864	21625
858.997	21656
859.13	21606
859.263	21728
859.396	21755
859.529	21671
859.662	21606
859.795	21576
859.928	21660
860.061	21747
860.194	21762
860.327	21739
860.46	21660
860.592	21766
860.725	21850
860.858	21781
860.99	21633
861.123	21603
861.256	21614
861.388	21644
861.521	22219
861.653	21599
861.786	21492
861.918	21431
862.05	21599
862.183	21614
862.315	21564
862.447	21705
862.58	21591
862.712	21294
862.844	21298
862.976	21534
863.108	21428
863.24	21724
863.372	21488
863.504	21161
863.636	21313
863.768	21363
863.9	21462
864.032	21332
864.164	21249
864.296	21447
864.428	21477
864.559	21374
864.691	21370
864.823	21416
864.954	21283
865.086	21355
865.217	21268
865.349	21199
865.48	21268
865.612	21294
865.743	21420
865.875	21291
866.006	21291
866.137	21317
866.269	21176
866.4	21188
866.531	21127
866.662	21157
866.793	21207
866.924	21230
867.055	21188
867.186	21226
867.317	21226
867.448	21081
867.579	21135
867.71	21085
867.841	21100
867.972	21211
868.103	21226
868.233	21161
868.364	21112
868.495	21420
868.625	21363
868.756	21583
868.886	21386
869.017	21336
869.147	21629
869.278	21595
869.408	21511
869.539	21500
869.669	21637
869.799	21504
869.929	21534
870.06	21564
870.19	21762
870.32	21679
870.45	21724
870.58	21816
870.71	21903
870.84	21922
870.97	21850
871.1	21831
871.23	22036
871.36	22093
871.489	21964
871.619	21945
871.749	22036
871.879	22055
872.008	22070
872.138	21991
872.267	21968
872.397	21975
872.526	21888
872.656	21857
872.785	21880
872.915	22116
873.044	22086
873.173	22040
873.303	22150
873.432	22124
873.561	22166
873.69	22006
873.819	21991
873.948	22166
874.077	22032
874.206	21918
874.335	21964
874.464	22139
874.593	22223
874.722	22196
874.851	22188
874.979	22363
875.108	22440
875.237	22211
875.365	22215
875.494	22185
875.623	22299
875.751	22246
875.88	22249
876.008	22455
876.136	22440
876.265	22637
876.393	22733
876.521	22599
876.65	22702
876.778	22664
876.906	22611
877.034	22615
877.162	22634
877.29	22577
877.418	22615
877.546	22622
877.674	22584
877.802	22588
877.93	22508
878.058	22573
878.185	22462
878.313	22527
878.441	22497
878.568	22352
878.696	22630
878.824	22565
878.951	22626
879.079	22755
879.206	22904
879.333	22858
879.461	22713
879.588	22679
879.715	22759
879.842	22850
879.97	22675
880.097	22481
880.224	22443
880.351	22436
880.478	22424
880.605	22386
880.732	22489
880.859	22786
880.986	22470
881.112	22367
881.239	22211
881.366	22086
881.493	22029
881.619	22074
881.746	22059
881.872	22040
881.999	21998
882.125	21998
882.252	22032
882.378	21945
882.505	22143
882.631	21873
882.757	21705
882.883	21736
883.01	21778
883.136	21618
883.262	21599
883.388	21500
883.514	21770
883.64	21709
883.766	21648
883.892	21466
884.018	21473
884.143	21580
884.269	21774
884.395	21408
884.52	21374
884.646	21275
884.772	21279
884.897	21211
885.023	21237
885.148	21477
885.274	21519
885.399	21378
885.524	21294
885.65	21416
885.775	21363
885.9	21294
886.025	21511
886.15	21317
886.275	21230
886.4	21428
886.525	21249
886.65	21192
886.775	21211
886.9	21355
887.025	21576
887.149	21363
887.274	21146
887.399	21116
887.523	21135
887.648	20990
887.773	21131
887.897	21241
888.021	21074
888.146	21036
888.27	21199
888.395	21306
888.519	21062
888.643	21165
888.767	21157
888.891	20899
889.015	20883
889.139	21028
889.263	20872
889.387	20929
889.511	21058
889.635	21039
889.759	20834
889.883	20849
890.006	20895
890.13	21043
890.254	20739
890.377	20762
890.501	20552
890.624	20701
890.748	20621
890.871	20617
890.995	20533
891.118	20427
891.241	20457
891.364	20560
891.488	20545
891.611	20495
891.734	20484
891.857	20434
891.98	20499
892.103	20511
892.226	20587
892.349	20408
892.471	20271
892.594	20408
892.717	20450
892.839	20351
892.962	20351
893.085	20381
893.207	20355
893.33	20374
893.452	20309
893.575	20446
893.697	20290
893.819	20571
893.941	20480
894.064	20419
894.186	20328
894.308	20438
894.43	20442
894.552	20488
894.674	20473
894.796	20248
894.918	20423
895.04	20214
895.161	20389
895.283	20374
895.405	20263
895.526	20446
895.648	20309
895.769	20396
895.891	20324
896.012	20499
896.134	20419
896.255	20275
896.376	20366
896.498	20358
896.619	20294
896.74	20385
896.861	20347
896.982	20663
897.103	20788
897.224	20621
897.345	20537
897.466	20389
897.587	20602
897.708	20670
897.828	20541
897.949	20446
898.07	20400
898.19	20450
898.311	20488
898.431	20389
898.552	20454
898.672	20606
898.792	20720
898.913	20556
899.033	20533
899.153	20343
899.273	20313
899.393	20278
899.513	20419
899.633	20218
899.753	20298
899.873	20202
899.993	20210
900.113	20278
900.232	20377
900.352	20176
900.472	20134
900.591	20043
900.711	20012
900.83	20050
900.95	20119
901.069	20065
901.189	20020
901.308	19807
901.427	19677
901.546	19616
901.665	19704
901.784	19594
901.904	19460
902.023	19468
902.141	19206
902.26	19247
902.379	19282
902.498	19217
902.617	19114
902.735	19156
902.854	19141
902.973	19114
903.091	18871
903.21	18817
903.328	18905
903.446	18772
903.565	18700
903.683	18715
903.801	18525
903.919	18715
904.038	18646
904.156	18380
904.274	18589
904.392	18422
904.51	18414
904.627	18380
904.745	18384
904.863	18448
904.981	18213
905.098	18064
905.216	18083
905.334	18038
905.451	18068
905.569	17988
905.686	18152
905.803	18026
905.921	17882
906.038	17893
906.155	17920
906.272	17752
906.389	17726
906.506	17661
906.623	17687
906.74	17585
906.857	17532
906.974	17509
907.091	17668
907.208	17771
907.324	17668
907.441	17501
907.557	17398
907.674	17410
907.79	17254
907.907	17356
908.023	17315
908.139	17364
908.256	17379
908.372	17235
908.488	17288
908.604	16980
908.72	16885
908.836	17098
908.952	16976
909.068	17022
909.184	17128
909.3	17010
909.415	17056
909.531	16908
909.647	16801
909.762	16694
909.878	16805
909.993	16713
910.108	16755
910.224	16721
910.339	16675
910.454	16607
910.57	16550
910.685	16489
910.8	16713
910.915	16637
911.03	16554
911.145	16352
911.259	16265
911.374	16310
911.489	16238
911.604	16204
911.718	16109
911.833	16078
911.947	15968
912.062	15865
912.176	16120
912.291	16051
912.405	16105
912.519	16177
912.633	16230
912.748	16063
912.862	16059
912.976	15861
913.09	15751
913.204	15838
913.318	15873
913.431	15873
913.545	15991
913.659	16067
913.772	15793
913.886	15766
914	15557
914.113	15709
914.226	15808
914.34	15816
914.453	15515
914.566	15717
914.68	15523
914.793	15443
914.906	15336
915.019	15321
915.132	15332
915.245	15287
915.358	15344
915.47	15237
915.583	15310
915.696	15329
915.809	15355
915.921	15340
916.034	15313
916.146	15195
916.259	15203
916.371	15260
916.483	15203
916.595	15154
916.708	15093
916.82	15119
916.932	15081
917.044	14948
917.156	15032
917.268	14960
917.38	14895
917.491	14891
917.603	14979
917.715	15024
917.826	15051
917.938	14899
918.049	14792
918.161	14834
918.272	15005
918.384	14963
918.495	14830
918.606	14796
918.717	14587
918.828	14750
918.939	14636
919.05	14655
919.161	14655
919.272	14415
919.383	14545
919.494	14670
919.604	14842
919.715	14693
919.826	14594
919.936	14651
920.047	14716
920.157	14606
920.267	14933
920.378	14746
920.488	14644
920.598	14781
920.708	14986
920.818	14777
920.928	14785
921.038	14891
921.148	14830
921.258	14526
921.368	14507
921.477	14408
921.587	14358
921.697	14313
921.806	14286
921.916	14301
922.025	14016
922.134	14012
922.244	13944
922.353	13921
922.462	14035
922.571	13799
922.68	13571
922.789	13700
922.898	13708
923.007	13594
923.116	13715
923.224	13655
923.333	13601
923.442	13491
923.55	13430
923.659	13495
923.767	13613
923.876	13365
923.984	13518
924.092	13396
924.201	13476
924.309	13472
924.417	13449
924.525	13304
924.633	13308
924.741	14062
924.849	13110
924.956	13251
925.064	13091
925.172	12928
925.279	13057
925.387	13038
925.494	13069
925.602	13228
925.709	13118
925.816	12985
925.924	13050
926.031	13023
926.138	13034
926.245	13091
926.352	12970
926.459	13023
926.566	13023
926.673	12901
926.779	12867
926.886	12821
926.993	12601
927.099	12662
927.206	12608
927.312	12604
927.419	12631
927.525	12654
927.631	12677
927.737	12559
927.843	12445
927.95	12319
928.056	12422
928.162	12452
928.267	12528
928.373	12958
928.479	12593
928.585	12365
928.69	12391
928.796	12437
928.901	12266
929.007	12129
929.112	12376
929.218	12353
929.323	12171
929.428	12277
929.533	12388
929.638	12224
929.743	12163
929.848	12228
929.953	12167
930.058	12060
930.163	11916
930.267	11939
930.372	12038
930.477	11882
930.581	12045
930.685	11912
930.79	11843
930.894	11813
930.998	11707
931.103	11885
931.207	11551
931.311	11528
931.415	11326
931.519	11220
931.623	11132
