Data from test_V78500241_1421.txt Node
Date: Fri Mar 25 15:19:45 CST 2022
User: usil
Spectrometer: V785-0024
Trigger mode: 0
Integration Time (sec): 4.000000E-1
Scans to average: 1
Nonlinearity correction enabled: false
Boxcar width: 0
Storing dark spectrum: false
XAxis mode: Wavelengths
Number of Pixels in Spectrum: 1024
>>>>>Begin Spectral Data<<<<<
801.071	28139
801.214	28078
801.356	27827
801.499	27762
801.641	27591
801.783	27641
801.926	27785
802.068	27648
802.211	27671
802.353	27538
802.496	27359
802.638	27340
802.78	27245
802.923	27222
803.065	27100
803.208	27245
803.35	27412
803.492	27393
803.635	27504
803.777	27420
803.919	27580
804.061	27747
804.204	27523
804.346	27447
804.488	27397
804.63	27504
804.773	27523
804.915	27519
805.057	27701
805.199	27500
805.341	27496
805.483	27705
805.626	27671
805.768	27637
805.91	27572
806.052	27705
806.194	27587
806.336	27854
806.478	27747
806.62	27671
806.762	27778
806.904	27983
807.046	28116
807.188	28086
807.33	27953
807.472	28143
807.614	28036
807.756	28013
807.898	28006
808.04	27918
808.182	27823
808.324	28006
808.465	28032
808.607	28299
808.749	28299
808.891	28493
809.033	28443
809.174	28299
809.316	28333
809.458	28265
809.6	28333
809.741	28394
809.883	28554
810.025	28577
810.166	28641
810.308	28675
810.45	28500
810.591	28615
810.733	28379
810.875	28390
811.016	28211
811.158	28204
811.299	28223
811.441	28512
811.582	28409
811.724	28341
811.865	28284
812.007	28276
812.148	28257
812.29	28447
812.431	28535
812.573	28744
812.714	28774
812.855	28892
812.997	28987
813.138	29105
813.279	29086
813.421	28923
813.562	28858
813.703	28691
813.845	28679
813.986	28226
814.127	28093
814.268	28116
814.41	28101
814.551	27914
814.692	27994
814.833	28032
814.974	28002
815.115	28196
815.256	27934
815.397	27930
815.539	27934
815.68	27949
815.821	27675
815.962	27861
816.103	27835
816.244	27713
816.385	27614
816.526	27641
816.666	27317
816.807	27321
816.948	27435
817.089	27382
817.23	27427
817.371	27306
817.512	27317
817.653	27416
817.793	27100
817.934	27325
818.075	27272
818.216	27351
818.356	27317
818.497	27287
818.638	27142
818.778	27001
818.919	26948
819.06	27089
819.2	27336
819.341	27211
819.481	27355
819.622	27534
819.762	27679
819.903	27408
820.043	27435
820.184	27523
820.324	27386
820.465	27435
820.605	27405
820.746	27462
820.886	27214
821.026	27500
821.167	27344
821.307	27435
821.447	27252
821.588	27230
821.728	27112
821.868	26914
822.008	26796
822.149	26701
822.289	26754
822.429	26484
822.569	26503
822.709	26393
822.849	26351
822.99	26195
823.13	26248
823.27	26138
823.41	26115
823.55	26073
823.69	26122
823.83	26039
823.97	26138
824.11	25887
824.25	25902
824.389	25837
824.529	26039
824.669	26092
824.809	26027
824.949	26092
825.089	25989
825.228	26020
825.368	25700
825.508	25628
825.648	25830
825.787	25799
825.927	25871
826.067	25780
826.206	25822
826.346	25830
826.485	25852
826.625	25738
826.765	25837
826.904	25890
827.044	25468
827.183	25540
827.323	25495
827.462	25544
827.601	25624
827.741	25567
827.88	25506
828.02	25430
828.159	25422
828.298	25438
828.437	25601
828.577	25346
828.716	25651
828.855	25479
828.994	25297
829.134	25202
829.273	25255
829.412	25168
829.551	25076
829.69	25213
829.829	25225
829.968	25324
830.107	25236
830.246	25148
830.385	25137
830.524	25183
830.663	24947
830.802	25091
830.941	24844
831.08	24833
831.219	24932
831.357	24935
831.496	24977
831.635	24681
831.774	24696
831.913	24623
832.051	24570
832.19	24593
832.329	24555
832.467	24494
832.606	24346
832.744	24422
832.883	24494
833.022	24540
833.16	24414
833.299	24578
833.437	24490
833.576	24578
833.714	24517
833.852	24642
833.991	24601
834.129	24597
834.267	24604
834.406	24422
834.544	24513
834.682	24582
834.821	24456
834.959	24791
835.097	24448
835.235	24536
835.373	24585
835.511	24494
835.65	24365
835.788	24395
835.926	24228
836.064	24148
836.202	24251
836.34	24315
836.478	24452
836.615	24380
836.753	24300
836.891	24513
837.029	24353
837.167	24403
837.305	24281
837.443	24201
837.58	24171
837.718	24315
837.856	24155
837.993	24125
838.131	24155
838.269	24087
838.406	24205
838.544	23847
838.681	23920
838.819	23866
838.956	23638
839.094	23581
839.231	23649
839.369	23935
839.506	23973
839.643	23999
839.781	23699
839.918	23627
840.055	23611
840.193	23733
840.33	23718
840.467	23581
840.604	23703
840.742	23813
840.879	23322
841.016	23493
841.153	23402
841.29	23786
841.427	23581
841.564	23699
841.701	23528
841.838	23467
841.975	23425
842.112	23341
842.249	23455
842.385	23337
842.522	23676
842.659	23395
842.796	23273
842.933	23239
843.069	23280
843.206	23353
843.343	23337
843.479	23372
843.616	23318
843.752	23018
843.889	23044
844.025	23223
844.162	23117
844.298	23147
844.435	23060
844.571	23037
844.708	23147
844.844	23318
844.98	23288
845.117	23197
845.253	23185
845.389	23079
845.525	22896
845.661	23056
845.798	22873
845.934	22877
846.07	22736
846.206	22900
846.342	23025
846.478	22786
846.614	22573
846.75	22538
846.886	22599
847.022	22702
847.158	22649
847.294	22615
847.429	22630
847.565	22489
847.701	22782
847.837	22405
847.972	22382
848.108	22219
848.244	22352
848.379	22150
848.515	22158
848.65	22131
848.786	22135
848.921	22204
849.057	22249
849.192	22150
849.328	22188
849.463	22150
849.598	21949
849.734	22093
849.869	22036
850.004	21953
850.14	21918
850.275	21994
850.41	21808
850.545	21918
850.68	21770
850.815	21987
850.95	22025
851.085	21991
851.22	21983
851.355	21987
851.49	21785
851.625	21895
851.76	21797
851.895	21911
852.03	21907
852.165	21804
852.299	21960
852.434	21956
852.569	21972
852.703	21934
852.838	22063
852.973	21987
853.107	22074
853.242	21781
853.376	21755
853.511	21583
853.645	21762
853.78	21880
853.914	21732
854.048	21694
854.183	21618
854.317	21903
854.451	21884
854.585	21591
854.72	21823
854.854	21732
854.988	21660
855.122	21770
855.256	21561
855.39	21751
855.524	21800
855.658	21713
855.792	21739
855.926	21789
856.06	21778
856.194	21846
856.327	21675
856.461	21762
856.595	21610
856.729	21785
856.862	21918
856.996	21816
857.13	21785
857.263	21770
857.397	21922
857.53	21747
857.664	21701
857.797	21857
857.931	21865
858.064	21766
858.197	21785
858.331	21694
858.464	21591
858.597	21564
858.731	21736
858.864	21660
858.997	21622
859.13	21720
859.263	21629
859.396	21800
859.529	21656
859.662	21682
859.795	21633
859.928	21705
860.061	21884
860.194	21911
860.327	21774
860.46	21690
860.592	21888
860.725	21899
860.858	21842
860.99	21679
861.123	21648
861.256	21736
861.388	21762
861.521	22303
861.653	21549
861.786	21538
861.918	21629
862.05	21591
862.183	21644
862.315	21637
862.447	21686
862.58	21675
862.712	21454
862.844	21431
862.976	21591
863.108	21519
863.24	21728
863.372	21237
863.504	21374
863.636	21405
863.768	21496
863.9	21458
864.032	21389
864.164	21435
864.296	21447
864.428	21648
864.559	21523
864.691	21443
864.823	21492
864.954	21428
865.086	21294
865.217	21321
865.349	21233
865.48	21287
865.612	21329
865.743	21336
865.875	21336
866.006	21195
866.137	21249
866.269	21230
866.4	21279
866.531	21249
866.662	21211
866.793	21302
866.924	21264
867.055	21264
867.186	21256
867.317	21146
867.448	21180
867.579	21241
867.71	21195
867.841	21222
867.972	21252
868.103	21207
868.233	21230
868.364	21222
868.495	21332
868.625	21454
868.756	21599
868.886	21408
869.017	21545
869.147	21496
869.278	21625
869.408	21382
869.539	21462
869.669	21622
869.799	21519
869.929	21610
870.06	21561
870.19	21781
870.32	21778
870.45	21785
870.58	21774
870.71	21998
870.84	22025
870.97	21945
871.1	21842
871.23	22010
871.36	22109
871.489	22063
871.619	22021
871.749	21915
871.879	22055
872.008	22276
872.138	22135
872.267	22032
872.397	21983
872.526	21930
872.656	21915
872.785	21972
872.915	22059
873.044	22112
873.173	22017
873.303	22032
873.432	22090
873.561	22154
873.69	22196
873.819	22044
873.948	22196
874.077	22021
874.206	22036
874.335	22048
874.464	22215
874.593	22223
874.722	22242
874.851	22299
874.979	22337
875.108	22405
875.237	22333
875.365	22246
875.494	22230
875.623	22325
875.751	22398
875.88	22443
876.008	22413
876.136	22527
876.265	22702
876.393	22717
876.521	22759
876.65	22713
876.778	22649
876.906	22706
877.034	22641
877.162	22653
877.29	22554
877.418	22702
877.546	22816
877.674	22717
877.802	22630
877.93	22656
878.058	22683
878.185	22508
878.313	22432
878.441	22645
878.568	22516
878.696	22664
878.824	22748
878.951	22733
879.079	22805
879.206	22889
879.333	22713
879.461	22626
879.588	22717
879.715	22782
879.842	22980
879.97	22790
880.097	22478
880.224	22325
880.351	22550
880.478	22546
880.605	22382
880.732	22443
880.859	22622
880.986	22538
881.112	22428
881.239	22303
881.366	22215
881.493	22139
881.619	22029
881.746	22154
881.872	22021
881.999	21994
882.125	22013
882.252	22090
882.378	22097
882.505	22169
882.631	21884
882.757	21751
882.883	21739
883.01	21869
883.136	21686
883.262	21648
883.388	21557
883.514	21766
883.64	21762
883.766	21770
883.892	21500
884.018	21428
884.143	21644
884.269	21720
884.395	21511
884.52	21313
884.646	21466
884.772	21386
884.897	21317
885.023	21412
885.148	21473
885.274	21557
885.399	21564
885.524	21431
885.65	21450
885.775	21329
885.9	21386
886.025	21576
886.15	21496
886.275	21306
886.4	21374
886.525	21397
886.65	21256
886.775	21226
886.9	21507
887.025	21580
887.149	21428
887.274	21108
887.399	21081
887.523	21203
887.648	21093
887.773	21108
887.897	21344
888.021	21138
888.146	21142
888.27	21226
888.395	21233
888.519	21260
888.643	21085
888.767	21165
888.891	21180
889.015	20902
889.139	21074
889.263	20864
889.387	21116
889.511	21241
889.635	21017
889.759	20773
889.883	20960
890.006	20979
890.13	21096
890.254	20754
890.377	20921
890.501	20636
890.624	20583
890.748	20739
890.871	20636
890.995	20473
891.118	20461
891.241	20549
891.364	20431
891.488	20674
891.611	20552
891.734	20484
891.857	20545
891.98	20492
892.103	20511
892.226	20454
892.349	20480
892.471	20294
892.594	20412
892.717	20469
892.839	20431
892.962	20298
893.085	20366
893.207	20461
893.33	20339
893.452	20263
893.575	20492
893.697	20427
893.819	20537
893.941	20594
894.064	20609
894.186	20408
894.308	20351
894.43	20564
894.552	20480
894.674	20518
894.796	20256
894.918	20286
895.04	20412
895.161	20514
895.283	20358
895.405	20393
895.526	20298
895.648	20377
895.769	20328
895.891	20408
896.012	20465
896.134	20454
896.255	20328
896.376	20317
896.498	20473
896.619	20438
896.74	20355
896.861	20522
896.982	20724
897.103	20716
897.224	20636
897.345	20556
897.466	20556
897.587	20587
897.708	20720
897.828	20720
897.949	20499
898.07	20537
898.19	20663
898.311	20781
898.431	20503
898.552	20606
898.672	20648
898.792	20651
898.913	20670
899.033	20503
899.153	20408
899.273	20317
899.393	20252
899.513	20412
899.633	20355
899.753	20400
899.873	20233
899.993	20370
900.113	20225
900.232	20313
900.352	20298
900.472	20180
900.591	20084
900.711	20142
900.83	20035
900.95	20301
901.069	20149
901.189	19951
901.308	19712
901.427	19563
901.546	19727
901.665	19693
901.784	19700
901.904	19601
902.023	19533
902.141	19365
902.26	19202
902.379	19373
902.498	19221
902.617	19088
902.735	19156
902.854	19065
902.973	19209
903.091	18890
903.21	18821
903.328	18901
903.446	18787
903.565	18711
903.683	18764
903.801	18593
903.919	18696
904.038	18620
904.156	18540
904.274	18513
904.392	18448
904.51	18395
904.627	18319
904.745	18426
904.863	18483
904.981	18235
905.098	18133
905.216	18053
905.334	18300
905.451	18095
905.569	18072
905.686	18114
905.803	18167
905.921	17893
906.038	18102
906.155	18030
906.272	17783
906.389	17790
906.506	17668
906.623	17691
906.74	17634
906.857	17505
906.974	17596
907.091	17699
907.208	17870
907.324	17672
907.441	17604
907.557	17395
907.674	17345
907.79	17364
907.907	17417
908.023	17337
908.139	17345
908.256	17265
908.372	17223
908.488	17284
908.604	17189
908.72	17003
908.836	17121
908.952	16961
909.068	17197
909.184	17246
909.3	17060
909.415	16999
909.531	17105
909.647	16847
909.762	16835
909.878	16782
909.993	16740
910.108	16831
910.224	16755
910.339	16850
910.454	16679
910.57	16603
910.685	16569
910.8	16793
910.915	16812
911.03	16641
911.145	16474
911.259	16363
911.374	16344
911.489	16299
911.604	16242
911.718	16147
911.833	16242
911.947	15987
912.062	15865
912.176	16112
912.291	16101
912.405	16040
912.519	16272
912.633	16249
912.748	16158
912.862	16067
912.976	15918
913.09	15816
913.204	15778
913.318	15979
913.431	16029
913.545	15930
913.659	16040
913.772	15876
913.886	15808
914	15778
914.113	15808
914.226	15861
914.34	15778
914.453	15614
914.566	15675
914.68	15679
914.793	15542
914.906	15401
915.019	15424
915.132	15237
915.245	15249
915.358	15477
915.47	15378
915.583	15370
915.696	15329
915.809	15412
915.921	15435
916.034	15256
916.146	15298
916.259	15161
916.371	15344
916.483	15291
916.595	15184
916.708	15161
916.82	15169
916.932	15097
917.044	15154
917.156	15028
917.268	15097
917.38	15032
917.491	14941
917.603	15028
917.715	14975
917.826	15009
917.938	14864
918.049	14948
918.161	15001
918.272	15043
918.384	15062
918.495	14891
918.606	14781
918.717	14629
918.828	14815
918.939	14872
919.05	14564
919.161	14758
919.272	14533
919.383	14541
919.494	14655
919.604	14872
919.715	14731
919.826	14556
919.936	14785
920.047	14758
920.157	14670
920.267	14990
920.378	14773
920.488	14667
920.598	14800
920.708	14944
920.818	14921
920.928	14838
921.038	14906
921.148	15001
921.258	14651
921.368	14571
921.477	14446
921.587	14499
921.697	14305
921.806	14370
921.916	14328
922.025	14054
922.134	14012
922.244	13989
922.353	14012
922.462	13932
922.571	13887
922.68	13693
922.789	13643
922.898	13712
923.007	13609
923.116	13750
923.224	13651
923.333	13647
923.442	13559
923.55	13548
923.659	13537
923.767	13552
923.876	13430
923.984	13487
924.092	13460
924.201	13457
924.309	13457
924.417	13460
924.525	13346
924.633	13350
924.741	14088
924.849	13198
924.956	13350
925.064	13175
925.172	13072
925.279	13061
925.387	13160
925.494	13114
925.602	13213
925.709	13072
925.816	13015
925.924	13072
926.031	13190
926.138	12981
926.245	13107
926.352	12856
926.459	13046
926.566	13080
926.673	12943
926.779	12875
926.886	12768
926.993	12623
927.099	12623
927.206	12703
927.312	12585
927.419	12745
927.525	12589
927.631	12681
927.737	12502
927.843	12559
927.95	12410
928.056	12494
928.162	12517
928.267	12616
928.373	13175
928.479	12563
928.585	12251
928.69	12391
928.796	12467
928.901	12391
929.007	12106
929.112	12391
929.218	12300
929.323	12190
929.428	12289
929.533	12311
929.638	12106
929.743	12144
929.848	12213
929.953	12136
930.058	12083
930.163	11889
930.267	11904
930.372	12041
930.477	11775
930.581	12095
930.685	11931
930.79	11707
930.894	11737
930.998	11764
931.103	11885
931.207	11467
931.311	11448
931.415	11337
931.519	11064
931.623	11216
