Data from test_V78500241_3559.txt Node
Date: Fri Mar 25 15:34:38 CST 2022
User: usil
Spectrometer: V785-0024
Trigger mode: 0
Integration Time (sec): 4.000000E-1
Scans to average: 1
Nonlinearity correction enabled: false
Boxcar width: 0
Storing dark spectrum: false
XAxis mode: Wavelengths
Number of Pixels in Spectrum: 1024
>>>>>Begin Spectral Data<<<<<
801.071	27306
801.214	27199
801.356	27104
801.499	26940
801.641	26830
801.783	26648
801.926	26971
802.068	26842
802.211	26648
802.353	26758
802.496	26552
802.638	26453
802.78	26457
802.923	26248
803.065	26256
803.208	26355
803.35	26313
803.492	26465
803.635	26667
803.777	26438
803.919	26731
804.061	26937
804.204	26579
804.346	26549
804.488	26488
804.63	26564
804.773	26446
804.915	26590
805.057	26644
805.199	26613
805.341	26720
805.483	26815
805.626	26587
805.768	26575
805.91	26724
806.052	26708
806.194	26590
806.336	26849
806.478	26712
806.62	26609
806.762	26849
806.904	26823
807.046	27264
807.188	27062
807.33	27123
807.472	27199
807.614	27055
807.756	27024
807.898	27020
808.04	26834
808.182	26918
808.324	27036
808.465	26899
808.607	27173
808.749	27195
808.891	27317
809.033	27405
809.174	27226
809.316	27123
809.458	27340
809.6	27252
809.741	27370
809.883	27427
810.025	27591
810.166	27542
810.308	27591
810.45	27599
810.591	27523
810.733	27378
810.875	27252
811.016	27188
811.158	27256
811.299	27435
811.441	27545
811.582	27519
811.724	27135
811.865	27230
812.007	27180
812.148	27211
812.29	27279
812.431	27382
812.573	27759
812.714	27698
812.855	27778
812.997	27876
813.138	27979
813.279	27759
813.421	27797
813.562	27720
813.703	27648
813.845	27450
813.986	27119
814.127	27055
814.268	26948
814.41	27013
814.551	26952
814.692	27055
814.833	26765
814.974	26910
815.115	26788
815.256	26804
815.397	26743
815.539	26838
815.68	26689
815.821	26667
815.962	26678
816.103	26625
816.244	26606
816.385	26545
816.526	26492
816.666	26305
816.807	26164
816.948	26324
817.089	26218
817.23	26221
817.371	26199
817.512	26084
817.653	26145
817.793	26229
817.934	26161
818.075	26221
818.216	26256
818.356	26138
818.497	26168
818.638	25909
818.778	25864
818.919	26069
819.06	25932
819.2	26107
819.341	26206
819.481	26199
819.622	26374
819.762	26686
819.903	26412
820.043	26423
820.184	26267
820.324	26301
820.465	26423
820.605	26408
820.746	26240
820.886	26119
821.026	26374
821.167	26214
821.307	26248
821.447	26225
821.588	26031
821.728	25902
821.868	25833
822.008	25700
822.149	25696
822.289	25578
822.429	25362
822.569	25171
822.709	25327
822.849	25187
822.99	25110
823.13	25213
823.27	25133
823.41	24856
823.55	24916
823.69	25091
823.83	25061
823.97	24947
824.11	24738
824.25	24772
824.389	24806
824.529	24901
824.669	24814
824.809	24916
824.949	24954
825.089	24920
825.228	24814
825.368	24639
825.508	24635
825.648	24700
825.787	24711
825.927	24684
826.067	24745
826.206	24593
826.346	24795
826.485	24749
826.625	24787
826.765	24760
826.904	24681
827.044	24479
827.183	24395
827.323	24410
827.462	24445
827.601	24464
827.741	24433
827.88	24338
828.02	24315
828.159	24528
828.298	24399
828.437	24433
828.577	24391
828.716	24528
828.855	24330
828.994	24209
829.134	24076
829.273	24171
829.412	24121
829.551	24079
829.69	24083
829.829	24057
829.968	24155
830.107	24155
830.246	24213
830.385	24155
830.524	24022
830.663	24003
830.802	23931
830.941	23722
831.08	23718
831.219	23802
831.357	23722
831.496	24049
831.635	23726
831.774	23642
831.913	23562
832.051	23471
832.19	23509
832.329	23608
832.467	23455
832.606	23478
832.744	23376
832.883	23406
833.022	23379
833.16	23474
833.299	23436
833.437	23482
833.576	23623
833.714	23604
833.852	23566
833.991	23524
834.129	23520
834.267	23668
834.406	23558
834.544	23562
834.682	23474
834.821	23455
834.959	23547
835.097	23444
835.235	23524
835.373	23459
835.511	23459
835.65	23311
835.788	23261
835.926	23197
836.064	23136
836.202	23212
836.34	23265
836.478	23482
836.615	23181
836.753	23326
836.891	23429
837.029	23288
837.167	23341
837.305	23307
837.443	23159
837.58	23060
837.718	23280
837.856	23216
837.993	23090
838.131	23193
838.269	23105
838.406	23185
838.544	22942
838.681	22866
838.819	22820
838.956	22577
839.094	22771
839.231	22736
839.369	22911
839.506	23151
839.643	22877
839.781	22611
839.918	22618
840.055	22664
840.193	22645
840.33	22634
840.467	22531
840.604	22546
840.742	22805
840.879	22512
841.016	22493
841.153	22318
841.29	22649
841.427	22599
841.564	22580
841.701	22687
841.838	22531
841.975	22512
842.112	22603
842.249	22428
842.385	22428
842.522	22656
842.659	22459
842.796	22265
842.933	22382
843.069	22265
843.206	22242
843.343	22344
843.479	22291
843.616	22348
843.752	22147
843.889	22086
844.025	22249
844.162	22036
844.298	22162
844.435	22090
844.571	22097
844.708	22078
844.844	22310
844.98	22303
845.117	22280
845.253	22246
845.389	21998
845.525	22139
845.661	21964
845.798	21785
845.934	21956
846.07	21869
846.206	21998
846.342	21956
846.478	21797
846.614	21781
846.75	21606
846.886	21629
847.022	21595
847.158	21633
847.294	21682
847.429	21599
847.565	21549
847.701	21956
847.837	21382
847.972	21397
848.108	21428
848.244	21386
848.379	21268
848.515	21180
848.65	21207
848.786	21211
848.921	21165
849.057	21348
849.192	21310
849.328	21310
849.463	21138
849.598	21207
849.734	21142
849.869	21157
850.004	20975
850.14	21066
850.275	20994
850.41	20864
850.545	20906
850.68	20868
850.815	21039
850.95	20975
851.085	21138
851.22	21108
851.355	20986
851.49	21001
851.625	20944
851.76	20948
851.895	20902
852.03	20952
852.165	20948
852.299	20956
852.434	21020
852.569	20933
852.703	21001
852.838	21165
852.973	21055
853.107	21036
853.242	20830
853.376	20895
853.511	20693
853.645	20625
853.78	20902
853.914	20918
854.048	20735
854.183	20750
854.317	20880
854.451	20937
854.585	20697
854.72	20796
854.854	20796
854.988	20689
855.122	20686
855.256	20697
855.39	20724
855.524	20773
855.658	20739
855.792	20819
855.926	20857
856.06	20739
856.194	20887
856.327	20697
856.461	20830
856.595	20693
856.729	20746
856.862	20834
856.996	20807
857.13	20883
857.263	20990
857.397	20811
857.53	20811
857.664	20864
857.797	20986
857.931	20819
858.064	20868
858.197	20838
858.331	20659
858.464	20788
858.597	20689
858.731	20758
858.864	20670
858.997	20769
859.13	20819
859.263	20819
859.396	20861
859.529	20781
859.662	20834
859.795	20762
859.928	20876
860.061	20887
860.194	20990
860.327	20758
860.46	20925
860.592	20906
860.725	20960
860.858	20910
860.99	20929
861.123	20682
861.256	20830
861.388	20727
861.521	21538
861.653	20644
861.786	20667
861.918	20644
862.05	20705
862.183	20640
862.315	20773
862.447	20811
862.58	20609
862.712	20568
862.844	20484
862.976	20629
863.108	20552
863.24	20876
863.372	20415
863.504	20568
863.636	20518
863.768	20530
863.9	20518
864.032	20396
864.164	20370
864.296	20492
864.428	20560
864.559	20499
864.691	20564
864.823	20499
864.954	20560
865.086	20415
865.217	20374
865.349	20336
865.48	20450
865.612	20389
865.743	20434
865.875	20313
866.006	20385
866.137	20427
866.269	20332
866.4	20381
866.531	20320
866.662	20336
866.793	20412
866.924	20427
867.055	20339
867.186	20313
867.317	20408
867.448	20248
867.579	20229
867.71	20290
867.841	20214
867.972	20355
868.103	20332
868.233	20347
868.364	20412
868.495	20457
868.625	20549
868.756	20674
868.886	20488
869.017	20476
869.147	20648
869.278	20724
869.408	20636
869.539	20473
869.669	20727
869.799	20629
869.929	20758
870.06	20655
870.19	20872
870.32	20906
870.45	20971
870.58	20933
870.71	20986
870.84	21180
870.97	20963
871.1	21051
871.23	21195
871.36	21214
871.489	21013
871.619	21108
871.749	21131
871.879	21173
872.008	21264
872.138	21207
872.267	21237
872.397	21047
872.526	20944
872.656	21039
872.785	21039
872.915	21119
873.044	21348
873.173	21203
873.303	21386
873.432	21310
873.561	21283
873.69	21150
873.819	21222
873.948	21268
874.077	21260
874.206	21161
874.335	21195
874.464	21260
874.593	21500
874.722	21332
874.851	21523
874.979	21469
875.108	21660
875.237	21382
875.365	21367
875.494	21447
875.623	21466
875.751	21481
875.88	21412
876.008	21705
876.136	21682
876.265	21873
876.393	21941
876.521	21934
876.65	22070
876.778	21937
876.906	21804
877.034	21895
877.162	21819
877.29	21732
877.418	21857
877.546	21819
877.674	21869
877.802	21850
877.93	21736
878.058	21751
878.185	21774
878.313	21724
878.441	21800
878.568	21743
878.696	21808
878.824	21895
878.951	21842
879.079	21945
879.206	22177
879.333	21960
879.461	21747
879.588	21972
879.715	22017
879.842	22181
879.97	21895
880.097	21637
880.224	21667
880.351	21648
880.478	21686
880.605	21488
880.732	21644
880.859	21899
880.986	21644
881.112	21747
881.239	21424
881.366	21359
881.493	21260
881.619	21184
881.746	21203
881.872	21104
881.999	21150
882.125	21138
882.252	21230
882.378	21157
882.505	21374
882.631	21074
882.757	20963
882.883	20960
883.01	20902
883.136	20845
883.262	20853
883.388	20823
883.514	21005
883.64	21039
883.766	20902
883.892	20750
884.018	20693
884.143	20906
884.269	21009
884.395	20765
884.52	20640
884.646	20697
884.772	20579
884.897	20446
885.023	20678
885.148	20712
885.274	20716
885.399	20705
885.524	20636
885.65	20590
885.775	20564
885.9	20499
886.025	20701
886.15	20651
886.275	20594
886.4	20404
886.525	20457
886.65	20598
886.775	20446
886.9	20640
887.025	20724
887.149	20708
887.274	20495
887.399	20271
887.523	20374
887.648	20294
887.773	20237
887.897	20461
888.021	20408
888.146	20275
888.27	20454
888.395	20400
888.519	20442
888.643	20313
888.767	20393
888.891	20248
889.015	20244
889.139	20183
889.263	20119
889.387	20324
889.511	20282
889.635	20221
889.759	20195
889.883	20157
890.006	20134
890.13	20214
890.254	20065
890.377	20172
890.501	19898
890.624	19936
890.748	19921
890.871	19753
890.995	19681
891.118	19708
891.241	19689
891.364	19803
891.488	19917
891.611	19734
891.734	19818
891.857	19715
891.98	19776
892.103	19769
892.226	19769
892.349	19700
892.471	19544
892.594	19769
892.717	19674
892.839	19658
892.962	19651
893.085	19635
893.207	19727
893.33	19472
893.452	19597
893.575	19738
893.697	19704
893.819	19734
893.941	19868
894.064	19898
894.186	19616
894.308	19548
894.43	19776
894.552	19894
894.674	19841
894.796	19544
894.918	19712
895.04	19704
895.161	19731
895.283	19674
895.405	19544
895.526	19750
895.648	19563
895.769	19590
895.891	19734
896.012	19693
896.134	19769
896.255	19708
896.376	19632
896.498	19727
896.619	19765
896.74	19639
896.861	19662
896.982	19921
897.103	20096
897.224	19906
897.345	19890
897.466	19913
897.587	19765
897.708	20065
897.828	19902
897.949	19788
898.07	19723
898.19	19734
898.311	20027
898.431	19871
898.552	19818
898.672	19883
898.792	20020
898.913	19951
899.033	19727
899.153	19639
899.273	19643
899.393	19655
899.513	19655
899.633	19613
899.753	19658
899.873	19537
899.993	19658
900.113	19510
900.232	19597
900.352	19537
900.472	19384
900.591	19445
900.711	19346
900.83	19362
900.95	19510
901.069	19518
901.189	19266
901.308	19069
901.427	18897
901.546	19023
901.665	19091
901.784	19065
901.904	18890
902.023	18734
902.141	18692
902.26	18547
902.379	18593
902.498	18517
902.617	18479
902.735	18642
902.854	18445
902.973	18471
903.091	18216
903.21	18216
903.328	18159
903.446	17939
903.565	18011
903.683	17935
903.801	17840
903.919	17965
904.038	17923
904.156	17668
904.274	17916
904.392	17817
904.51	17748
904.627	17775
904.745	17752
904.863	17874
904.981	17611
905.098	17486
905.216	17467
905.334	17509
905.451	17436
905.569	17349
905.686	17425
905.803	17490
905.921	17318
906.038	17345
906.155	17223
906.272	17151
906.389	17121
906.506	17037
906.623	17056
906.74	17033
906.857	16900
906.974	16881
907.091	17060
907.208	17147
907.324	16999
907.441	16908
907.557	16828
907.674	16729
907.79	16649
907.907	16729
908.023	16793
908.139	16809
908.256	16721
908.372	16656
908.488	16592
908.604	16451
908.72	16394
908.836	16516
908.952	16371
909.068	16497
909.184	16504
909.3	16436
909.415	16375
909.531	16447
909.647	16234
909.762	16219
909.878	16074
909.993	16101
910.108	16116
910.224	16082
910.339	16059
910.454	15968
910.57	15975
910.685	15915
910.8	16116
910.915	16166
911.03	15972
911.145	15831
911.259	15747
911.374	15732
911.489	15580
911.604	15580
911.718	15496
911.833	15614
911.947	15405
912.062	15458
912.176	15515
912.291	15545
912.405	15485
912.519	15739
912.633	15690
912.748	15572
912.862	15595
912.976	15374
913.09	15173
913.204	15218
913.318	15351
913.431	15370
913.545	15348
913.659	15401
913.772	15245
913.886	15211
914	15081
914.113	15222
914.226	15283
914.34	15222
914.453	14941
914.566	15116
914.68	15028
914.793	14982
914.906	14750
915.019	14689
915.132	14625
915.245	14724
915.358	14796
915.47	14701
915.583	14731
915.696	14659
915.809	14868
915.921	14868
916.034	14720
916.146	14640
916.259	14590
916.371	14735
916.483	14708
916.595	14602
916.708	14617
916.82	14579
916.932	14670
917.044	14590
917.156	14492
917.268	14480
917.38	14427
917.491	14328
917.603	14370
917.715	14514
917.826	14473
917.938	14244
918.049	14244
918.161	14328
918.272	14541
918.384	14427
918.495	14339
918.606	14221
918.717	14202
918.828	14176
918.939	14218
919.05	14187
919.161	14195
919.272	14050
919.383	14020
919.494	14305
919.604	14358
919.715	14134
919.826	14027
919.936	14111
920.047	14202
920.157	14100
920.267	14301
920.378	14172
920.488	14221
920.598	14305
920.708	14495
920.818	14256
920.928	14248
921.038	14412
921.148	14419
921.258	14153
921.368	14016
921.477	13826
921.587	13932
921.697	13822
921.806	13879
921.916	13769
922.025	13582
922.134	13506
922.244	13411
922.353	13499
922.462	13400
922.571	13422
922.68	13168
922.789	13266
922.898	13240
923.007	13042
923.116	13209
923.224	13190
923.333	13099
923.442	12993
923.55	13031
923.659	12989
923.767	13133
923.876	12924
923.984	12996
924.092	12951
924.201	12920
924.309	13031
924.417	12951
924.525	12973
924.633	12916
924.741	13670
924.849	12665
924.956	12745
925.064	12677
925.172	12563
925.279	12627
925.387	12681
925.494	12623
925.602	12802
925.709	12654
925.816	12601
925.924	12570
926.031	12665
926.138	12589
926.245	12623
926.352	12532
926.459	12593
926.566	12707
926.673	12509
926.779	12372
926.886	12410
926.993	12235
927.099	12182
927.206	12083
927.312	12163
927.419	12289
927.525	12216
927.631	12235
927.737	12087
927.843	12003
927.95	12007
928.056	11950
928.162	12053
928.267	12140
928.373	12563
928.479	12102
928.585	11885
928.69	12091
928.796	12079
928.901	11908
929.007	11688
929.112	11939
929.218	11893
929.323	11729
929.428	11688
929.533	11882
929.638	11748
929.743	11691
929.848	11741
929.953	11737
930.058	11691
930.163	11467
930.267	11520
930.372	11592
930.477	11425
930.581	11581
930.685	11497
930.79	11402
930.894	11391
930.998	11379
931.103	11433
931.207	11067
931.311	10968
931.415	10995
931.519	10759
931.623	10736
