Data from test_V78500241_1162.txt Node
Date: Fri Mar 25 15:17:56 CST 2022
User: usil
Spectrometer: V785-0024
Trigger mode: 0
Integration Time (sec): 4.000000E-1
Scans to average: 1
Nonlinearity correction enabled: false
Boxcar width: 0
Storing dark spectrum: false
XAxis mode: Wavelengths
Number of Pixels in Spectrum: 1024
>>>>>Begin Spectral Data<<<<<
801.071	28519
801.214	28284
801.356	28200
801.499	28032
801.641	27926
801.783	27922
801.926	27987
802.068	27914
802.211	27857
802.353	27800
802.496	27736
802.638	27504
802.78	27557
802.923	27481
803.065	27519
803.208	27610
803.35	27637
803.492	27812
803.635	27884
803.777	27637
803.919	27854
804.061	28101
804.204	27873
804.346	27682
804.488	27656
804.63	27903
804.773	27690
804.915	27743
805.057	27991
805.199	27930
805.341	27998
805.483	28109
805.626	27922
805.768	27865
805.91	27964
806.052	28067
806.194	27934
806.336	28223
806.478	28021
806.62	27922
806.762	28090
806.904	28268
807.046	28481
807.188	28177
807.33	28363
807.472	28394
807.614	28462
807.756	28485
807.898	28196
808.04	28219
808.182	28219
808.324	28299
808.465	28226
808.607	28538
808.749	28664
808.891	28691
809.033	28710
809.174	28626
809.316	28607
809.458	28596
809.6	28557
809.741	28584
809.883	28797
810.025	28919
810.166	28938
810.308	28999
810.45	28744
810.591	28911
810.733	28710
810.875	28557
811.016	28527
811.158	28390
811.299	28653
811.441	28828
811.582	28774
811.724	28748
811.865	28607
812.007	28668
812.148	28679
812.29	28687
812.431	28946
812.573	29041
812.714	29128
812.855	29170
812.997	29208
813.138	29364
813.279	29197
813.421	29246
813.562	29231
813.703	29033
813.845	28949
813.986	28668
814.127	28379
814.268	28413
814.41	28405
814.551	28310
814.692	28413
814.833	28303
814.974	28291
815.115	28432
815.256	28204
815.397	28059
815.539	28196
815.68	28158
815.821	28112
815.962	28257
816.103	28185
816.244	28124
816.385	27968
816.526	28086
816.666	27888
816.807	27568
816.948	27827
817.089	27724
817.23	27694
817.371	27679
817.512	27751
817.653	27690
817.793	27625
817.934	27720
818.075	27739
818.216	27656
818.356	27717
818.497	27660
818.638	27435
818.778	27439
818.919	27523
819.06	27530
819.2	27576
819.341	27739
819.481	27610
819.622	27827
819.762	27994
819.903	28048
820.043	27926
820.184	27884
820.324	27838
820.465	27918
820.605	27739
820.746	27766
820.886	27656
821.026	27804
821.167	27641
821.307	27739
821.447	27679
821.588	27580
821.728	27370
821.868	27336
822.008	27127
822.149	27199
822.289	27017
822.429	27017
822.569	26796
822.709	26792
822.849	26613
822.99	26705
823.13	26625
823.27	26571
823.41	26575
823.55	26343
823.69	26484
823.83	26465
823.97	26461
824.11	26282
824.25	26294
824.389	26404
824.529	26606
824.669	26393
824.809	26507
824.949	26309
825.089	26381
825.228	26332
825.368	26199
825.508	26244
825.648	26309
825.787	26187
825.927	26317
826.067	26271
826.206	26054
826.346	26202
826.485	26294
826.625	26290
826.765	26221
826.904	26267
827.044	25970
827.183	26016
827.323	25898
827.462	25906
827.601	25898
827.741	25837
827.88	25906
828.02	25852
828.159	25966
828.298	25963
828.437	26005
828.577	25944
828.716	26084
828.855	25978
828.994	25628
829.134	25635
829.273	25712
829.412	25556
829.551	25708
829.69	25521
829.829	25689
829.968	25681
830.107	25734
830.246	25674
830.385	25544
830.524	25601
830.663	25597
830.802	25350
830.941	25129
831.08	25320
831.219	25365
831.357	25282
831.496	25537
831.635	25183
831.774	25129
831.913	25114
832.051	25141
832.19	25160
832.329	25046
832.467	24924
832.606	24943
832.744	24837
832.883	24947
833.022	24901
833.16	24897
833.299	25034
833.437	24962
833.576	24970
833.714	25061
833.852	25076
833.991	25183
834.129	25069
834.267	24966
834.406	24981
834.544	25015
834.682	24977
834.821	24981
834.959	25072
835.097	24916
835.235	25069
835.373	25034
835.511	24981
835.65	24886
835.788	24852
835.926	24703
836.064	24544
836.202	24722
836.34	24909
836.478	24916
836.615	24791
836.753	24859
836.891	24905
837.029	24817
837.167	24894
837.305	24760
837.443	24745
837.58	24802
837.718	24795
837.856	24738
837.993	24471
838.131	24559
838.269	24528
838.406	24623
838.544	24441
838.681	24376
838.819	24285
838.956	24182
839.094	24209
839.231	24338
839.369	24262
839.506	24505
839.643	24399
839.781	24182
839.918	24095
840.055	24174
840.193	24098
840.33	24159
840.467	24022
840.604	24159
840.742	24262
840.879	23889
841.016	23939
841.153	23912
841.29	24064
841.427	24038
841.564	23916
841.701	24026
841.838	23988
841.975	23939
842.112	23920
842.249	23843
842.385	23885
842.522	23958
842.659	23737
842.796	23840
842.933	23824
843.069	23764
843.206	23809
843.343	23802
843.479	23843
843.616	23939
843.752	23516
843.889	23718
844.025	23767
844.162	23615
844.298	23687
844.435	23649
844.571	23512
844.708	23657
844.844	23798
844.98	23718
845.117	23695
845.253	23573
845.389	23512
845.525	23524
845.661	23368
845.798	23360
845.934	23383
846.07	23322
846.206	23410
846.342	23452
846.478	23353
846.614	23170
846.75	22915
846.886	23037
847.022	23048
847.158	23178
847.294	23006
847.429	23109
847.565	23033
847.701	23353
847.837	22809
847.972	22736
848.108	22854
848.244	22748
848.379	22588
848.515	22626
848.65	22649
848.786	22672
848.921	22607
849.057	22740
849.192	22816
849.328	22630
849.463	22622
849.598	22550
849.734	22584
849.869	22382
850.004	22474
850.14	22424
850.275	22474
850.41	22272
850.545	22432
850.68	22306
850.815	22497
850.95	22337
851.085	22618
851.22	22417
851.355	22363
851.49	22367
851.625	22356
851.76	22413
851.895	22325
852.03	22333
852.165	22462
852.299	22421
852.434	22504
852.569	22459
852.703	22409
852.838	22466
852.973	22462
853.107	22402
853.242	22295
853.376	22303
853.511	22173
853.645	22242
853.78	22325
853.914	22192
854.048	22112
854.183	22226
854.317	22223
854.451	22348
854.585	22204
854.72	22234
854.854	22360
854.988	22280
855.122	22120
855.256	21983
855.39	22287
855.524	22314
855.658	22268
855.792	22348
855.926	22291
856.06	22253
856.194	22101
856.327	22257
856.461	22143
856.595	22067
856.729	22322
856.862	22249
856.996	22295
857.13	22348
857.263	22215
857.397	22299
857.53	22192
857.664	22253
857.797	22363
857.931	22344
858.064	22295
858.197	22333
858.331	22090
858.464	22101
858.597	22181
858.731	22188
858.864	22242
858.997	22139
859.13	22181
859.263	22303
859.396	22219
859.529	22207
859.662	22086
859.795	22215
859.928	22200
860.061	22310
860.194	22352
860.327	22287
860.46	22207
860.592	22314
860.725	22382
860.858	22356
860.99	22291
861.123	22200
861.256	22166
861.388	22200
861.521	22980
861.653	22002
861.786	21994
861.918	22013
862.05	22013
862.183	22177
862.315	22124
862.447	22238
862.58	22124
862.712	21911
862.844	22006
862.976	22036
863.108	21979
863.24	22268
863.372	21785
863.504	21899
863.636	21949
863.768	21934
863.9	21937
864.032	21835
864.164	21812
864.296	21876
864.428	21968
864.559	22048
864.691	21850
864.823	21873
864.954	21876
865.086	21926
865.217	21911
865.349	21736
865.48	21869
865.612	21827
865.743	21945
865.875	21774
866.006	21739
866.137	21816
866.269	21770
866.4	21789
866.531	21743
866.662	21770
866.793	21759
866.924	21625
867.055	21755
867.186	21797
867.317	21694
867.448	21667
867.579	21766
867.71	21698
867.841	21614
867.972	21709
868.103	21686
868.233	21762
868.364	21842
868.495	21835
868.625	21842
868.756	22063
868.886	21907
869.017	22036
869.147	22090
869.278	22010
869.408	21994
869.539	22048
869.669	22086
869.799	22036
869.929	22135
870.06	22074
870.19	22204
870.32	22295
870.45	22246
870.58	22295
870.71	22428
870.84	22371
870.97	22390
871.1	22455
871.23	22569
871.36	22561
871.489	22447
871.619	22504
871.749	22523
871.879	22668
872.008	22615
872.138	22573
872.267	22516
872.397	22413
872.526	22360
872.656	22455
872.785	22508
872.915	22630
873.044	22626
873.173	22523
873.303	22580
873.432	22618
873.561	22679
873.69	22557
873.819	22649
873.948	22706
874.077	22596
874.206	22584
874.335	22451
874.464	22782
874.593	22740
874.722	22805
874.851	22809
874.979	22801
875.108	22862
875.237	22729
875.365	22702
875.494	22820
875.623	22904
875.751	22839
875.88	22767
876.008	22889
876.136	23006
876.265	23075
876.393	23235
876.521	23288
876.65	23208
876.778	23197
876.906	23155
877.034	23105
877.162	23147
877.29	23064
877.418	23086
877.546	23147
877.674	23178
877.802	23086
877.93	23071
878.058	23200
878.185	23029
878.313	23022
878.441	23117
878.568	22843
878.696	23003
878.824	23124
878.951	23231
879.079	23372
879.206	23387
879.333	23337
879.461	23197
879.588	23223
879.715	23258
879.842	23425
879.97	23197
880.097	22987
880.224	23022
880.351	22968
880.478	22984
880.605	22812
880.732	22934
880.859	23067
880.986	23044
881.112	23071
881.239	22881
881.366	22607
881.493	22664
881.619	22573
881.746	22497
881.872	22402
881.999	22436
882.125	22474
882.252	22588
882.378	22531
882.505	22615
882.631	22341
882.757	22295
882.883	22306
883.01	22268
883.136	22150
883.262	22086
883.388	21998
883.514	22147
883.64	22200
883.766	22090
883.892	21941
884.018	22036
884.143	22162
884.269	22196
884.395	21857
884.52	21857
884.646	21915
884.772	21880
884.897	21739
885.023	21979
885.148	21907
885.274	22074
885.399	21953
885.524	21812
885.65	21785
885.775	21774
885.9	21743
886.025	21907
886.15	21915
886.275	21835
886.4	21793
886.525	21816
886.65	21755
886.775	21709
886.9	21903
887.025	21922
887.149	21762
887.274	21568
887.399	21549
887.523	21549
887.648	21405
887.773	21515
887.897	21660
888.021	21534
888.146	21428
888.27	21591
888.395	21720
888.519	21553
888.643	21641
888.767	21595
888.891	21507
889.015	21199
889.139	21648
889.263	21374
889.387	21519
889.511	21583
889.635	21511
889.759	21310
889.883	21405
890.006	21405
890.13	21401
890.254	21279
890.377	21298
890.501	21169
890.624	21096
890.748	21211
890.871	21051
890.995	20960
891.118	20857
891.241	20845
891.364	20914
891.488	21081
891.611	20960
891.734	20956
891.857	21013
891.98	21028
892.103	21066
892.226	20902
892.349	20925
892.471	20705
892.594	20891
892.717	20914
892.839	20883
892.962	20807
893.085	20872
893.207	20849
893.33	20598
893.452	20708
893.575	20887
893.697	20834
893.819	20895
893.941	20963
894.064	21032
894.186	20648
894.308	20743
894.43	20880
894.552	20960
894.674	20899
894.796	20648
894.918	20788
895.04	20788
895.161	20857
895.283	20834
895.405	20731
895.526	20788
895.648	20758
895.769	20765
895.891	20880
896.012	20838
896.134	20838
896.255	20800
896.376	20788
896.498	20823
896.619	20754
896.74	20891
896.861	20769
896.982	21252
897.103	21245
897.224	21081
897.345	21043
897.466	20990
897.587	20944
897.708	21154
897.828	21036
897.949	20990
898.07	20765
898.19	20887
898.311	21036
898.431	20941
898.552	21047
898.672	20994
898.792	21043
898.913	21051
899.033	20914
899.153	20743
899.273	20746
899.393	20705
899.513	20746
899.633	20689
899.753	20765
899.873	20739
899.993	20811
900.113	20560
900.232	20590
900.352	20590
900.472	20575
900.591	20511
900.711	20579
900.83	20415
900.95	20564
901.069	20480
901.189	20423
901.308	20176
901.427	20119
901.546	20039
901.665	20100
901.784	20145
901.904	19944
902.023	19803
902.141	19696
902.26	19643
902.379	19708
902.498	19529
902.617	19544
902.735	19578
902.854	19495
902.973	19445
903.091	19232
903.21	19244
903.328	19278
903.446	19206
903.565	19023
903.683	19053
903.801	18962
903.919	18985
904.038	18928
904.156	18779
904.274	18897
904.392	18787
904.51	18738
904.627	18814
904.745	18757
904.863	18935
904.981	18650
905.098	18479
905.216	18494
905.334	18551
905.451	18544
905.569	18498
905.686	18623
905.803	18437
905.921	18262
906.038	18327
906.155	18243
906.272	18247
906.389	18216
906.506	17946
906.623	18087
906.74	18041
906.857	17920
906.974	17916
907.091	18079
907.208	18057
907.324	18053
907.441	17897
907.557	17779
907.674	17847
907.79	17665
907.907	17695
908.023	17733
908.139	17756
908.256	17630
908.372	17646
908.488	17585
908.604	17482
908.72	17455
908.836	17372
908.952	17391
909.068	17414
909.184	17497
909.3	17452
909.415	17353
909.531	17493
909.647	17197
909.762	17197
909.878	17098
909.993	17071
910.108	17067
910.224	17117
910.339	17064
910.454	17064
910.57	16995
910.685	16881
910.8	17124
910.915	17029
911.03	16915
911.145	16786
911.259	16710
911.374	16805
911.489	16656
911.604	16645
911.718	16405
911.833	16489
911.947	16398
912.062	16234
912.176	16474
912.291	16447
912.405	16398
912.519	16683
912.633	16626
912.748	16478
912.862	16424
912.976	16356
913.09	16124
913.204	16265
913.318	16249
913.431	16344
913.545	16226
913.659	16333
913.772	16124
913.886	16017
914	16059
914.113	16200
914.226	16139
914.34	16048
914.453	16036
914.566	15994
914.68	15918
914.793	15945
914.906	15759
915.019	15637
915.132	15663
915.245	15648
915.358	15682
915.47	15705
915.583	15705
915.696	15717
915.809	15781
915.921	15774
916.034	15667
916.146	15576
916.259	15545
916.371	15595
916.483	15549
916.595	15542
916.708	15599
916.82	15485
916.932	15370
917.044	15424
917.156	15332
917.268	15313
917.38	15332
917.491	15287
917.603	15283
917.715	15370
917.826	15359
917.938	15192
918.049	15184
918.161	15138
918.272	15424
918.384	15249
918.495	15192
918.606	15108
918.717	14929
918.828	15135
918.939	15081
919.05	14944
919.161	15047
919.272	14876
919.383	14868
919.494	15119
919.604	15211
919.715	15043
919.826	14891
919.936	14918
920.047	15127
920.157	14990
920.267	14994
920.378	14982
920.488	14952
920.598	15192
920.708	15249
920.818	15097
920.928	15123
921.038	15260
921.148	15203
921.258	14994
921.368	14899
921.477	14785
921.587	14750
921.697	14632
921.806	14621
921.916	14522
922.025	14377
922.134	14298
922.244	14320
922.353	14427
922.462	14305
922.571	14191
922.68	13982
922.789	14005
922.898	14005
923.007	13928
923.116	14012
923.224	13936
923.333	14005
923.442	13795
923.55	13845
923.659	13845
923.767	13887
923.876	13746
923.984	13681
924.092	13689
924.201	13765
924.309	13674
924.417	13769
924.525	13674
924.633	13620
924.741	14640
924.849	13487
924.956	13624
925.064	13369
925.172	13392
925.279	13422
925.387	13362
925.494	13491
925.602	13518
925.709	13346
925.816	13274
925.924	13335
926.031	13324
926.138	13285
926.245	13247
926.352	13149
926.459	13331
926.566	13377
926.673	13202
926.779	13198
926.886	13179
926.993	12935
927.099	12935
927.206	12875
927.312	12882
927.419	12973
927.525	12894
927.631	12852
927.737	12753
927.843	12711
927.95	12692
928.056	12681
928.162	12707
928.267	12738
928.373	13331
928.479	12840
928.585	12475
928.69	12711
928.796	12817
928.901	12654
929.007	12494
929.112	12608
929.218	12589
929.323	12517
929.428	12509
929.533	12544
929.638	12448
929.743	12452
929.848	12353
929.953	12369
930.058	12285
930.163	12190
930.267	12254
930.372	12262
930.477	12133
930.581	12323
930.685	12262
930.79	12030
930.894	11969
930.998	11870
931.103	12083
931.207	11863
931.311	11718
931.415	11619
931.519	11406
931.623	11410
