Data from test_V78500241_1392.txt Node
Date: Fri Mar 25 15:19:32 CST 2022
User: usil
Spectrometer: V785-0024
Trigger mode: 0
Integration Time (sec): 4.000000E-1
Scans to average: 1
Nonlinearity correction enabled: false
Boxcar width: 0
Storing dark spectrum: false
XAxis mode: Wavelengths
Number of Pixels in Spectrum: 1024
>>>>>Begin Spectral Data<<<<<
801.071	27918
801.214	27975
801.356	27629
801.499	27500
801.641	27431
801.783	27466
801.926	27393
802.068	27523
802.211	27374
802.353	27454
802.496	27066
802.638	27161
802.78	27043
802.923	27081
803.065	27039
803.208	27028
803.35	27009
803.492	27157
803.635	27367
803.777	27287
803.919	27256
804.061	27728
804.204	27317
804.346	27298
804.488	27332
804.63	27226
804.773	27222
804.915	27287
805.057	27279
805.199	27329
805.341	27367
805.483	27462
805.626	27443
805.768	27481
805.91	27519
806.052	27447
806.194	27211
806.336	27663
806.478	27439
806.62	27336
806.762	27644
806.904	27614
807.046	27842
807.188	27861
807.33	27819
807.472	28025
807.614	27850
807.756	27793
807.898	27705
808.04	27755
808.182	27545
808.324	27739
808.465	27899
808.607	28002
808.749	27956
808.891	28120
809.033	28215
809.174	28055
809.316	27987
809.458	28124
809.6	28051
809.741	28215
809.883	28192
810.025	28306
810.166	28401
810.308	28409
810.45	28265
810.591	28223
810.733	28055
810.875	28086
811.016	27914
811.158	27941
811.299	28120
811.441	28215
811.582	28181
811.724	28044
811.865	28021
812.007	28128
812.148	28051
812.29	28177
812.431	28211
812.573	28360
812.714	28443
812.855	28527
812.997	28744
813.138	28873
813.279	28691
813.421	28778
813.562	28538
813.703	28329
813.845	28352
813.986	28021
814.127	27922
814.268	27857
814.41	27827
814.551	27778
814.692	27953
814.833	27846
814.974	27667
815.115	27823
815.256	27667
815.397	27705
815.539	27557
815.68	27534
815.821	27553
815.962	27644
816.103	27496
816.244	27389
816.385	27214
816.526	27325
816.666	27104
816.807	27127
816.948	27214
817.089	27222
817.23	27195
817.371	27017
817.512	27112
817.653	27036
817.793	27081
817.934	27009
818.075	27032
818.216	27043
818.356	26994
818.497	27017
818.638	26811
818.778	26982
818.919	26868
819.06	27009
819.2	26975
819.341	27104
819.481	26960
819.622	27154
819.762	27351
819.903	27329
820.043	27401
820.184	27108
820.324	27135
820.465	27230
820.605	27245
820.746	27237
820.886	26868
821.026	27020
821.167	27047
821.307	27173
821.447	27047
821.588	26880
821.728	26811
821.868	26667
822.008	26511
822.149	26434
822.289	26476
822.429	26233
822.569	26122
822.709	26214
822.849	26005
822.99	26039
823.13	26008
823.27	26069
823.41	25784
823.55	25670
823.69	25818
823.83	25940
823.97	25868
824.11	25674
824.25	25620
824.389	25651
824.529	25643
824.669	25753
824.809	25860
824.949	25750
825.089	25833
825.228	25613
825.368	25350
825.508	25605
825.648	25537
825.787	25487
825.927	25620
826.067	25518
826.206	25521
826.346	25559
826.485	25597
826.625	25521
826.765	25620
826.904	25655
827.044	25247
827.183	25316
827.323	25217
827.462	25251
827.601	25304
827.741	25251
827.88	25350
828.02	25160
828.159	25190
828.298	25225
828.437	25179
828.577	25247
828.716	25263
828.855	25031
828.994	24973
829.134	25057
829.273	24989
829.412	24802
829.551	24886
829.69	24909
829.829	24996
829.968	25084
830.107	24802
830.246	24932
830.385	24810
830.524	24703
830.663	24810
830.802	24578
830.941	24445
831.08	24532
831.219	24646
831.357	24688
831.496	24875
831.635	24559
831.774	24502
831.913	24448
832.051	24452
832.19	24445
832.329	24391
832.467	24270
832.606	24239
832.744	24220
832.883	24281
833.022	24144
833.16	24216
833.299	24239
833.437	24140
833.576	24186
833.714	24125
833.852	24292
833.991	24285
834.129	24228
834.267	24395
834.406	24308
834.544	24251
834.682	24353
834.821	24384
834.959	24502
835.097	24174
835.235	24308
835.373	24243
835.511	24220
835.65	24174
835.788	24136
835.926	24102
836.064	23851
836.202	24018
836.34	24277
836.478	24106
836.615	24003
836.753	24140
836.891	24163
837.029	24087
837.167	24022
837.305	23969
837.443	23958
837.58	23904
837.718	23992
837.856	23760
837.993	23942
838.131	23817
838.269	23836
838.406	23935
838.544	23794
838.681	23642
838.819	23463
838.956	23444
839.094	23398
839.231	23455
839.369	23551
839.506	23805
839.643	23691
839.781	23452
839.918	23345
840.055	23364
840.193	23250
840.33	23383
840.467	23387
840.604	23414
840.742	23596
840.879	23155
841.016	23216
841.153	23193
841.29	23490
841.427	23178
841.564	23379
841.701	23360
841.838	23227
841.975	23223
842.112	23185
842.249	23178
842.385	23048
842.522	23395
842.659	23090
842.796	23109
842.933	23102
843.069	22915
843.206	22976
843.343	22957
843.479	23197
843.616	23124
843.752	22938
843.889	22873
844.025	22953
844.162	22892
844.298	22908
844.435	22835
844.571	22820
844.708	22919
844.844	22976
844.98	22987
845.117	22946
845.253	22774
845.389	22774
845.525	22706
845.661	22698
845.798	22675
845.934	22637
846.07	22565
846.206	22519
846.342	22691
846.478	22607
846.614	22379
846.75	22287
846.886	22291
847.022	22409
847.158	22398
847.294	22310
847.429	22322
847.565	22417
847.701	22322
847.837	22101
847.972	22036
848.108	22150
848.244	22109
848.379	21922
848.515	21949
848.65	21934
848.786	21880
848.921	21975
849.057	22006
849.192	21953
849.328	21934
849.463	21937
849.598	21835
849.734	21846
849.869	21819
850.004	21682
850.14	21720
850.275	21667
850.41	21576
850.545	21435
850.68	21469
850.815	21629
850.95	21568
851.085	21869
851.22	21713
851.355	21755
851.49	21610
851.625	21511
851.76	21591
851.895	21538
852.03	21523
852.165	21576
852.299	21804
852.434	21686
852.569	21660
852.703	21713
852.838	21720
852.973	21747
853.107	21717
853.242	21583
853.376	21523
853.511	21306
853.645	21564
853.78	21488
853.914	21477
854.048	21481
854.183	21450
854.317	21526
854.451	21572
854.585	21534
854.72	21511
854.854	21587
854.988	21515
855.122	21435
855.256	21363
855.39	21515
855.524	21583
855.658	21523
855.792	21523
855.926	21572
856.06	21564
856.194	21530
856.327	21530
856.461	21405
856.595	21435
856.729	21462
856.862	21675
856.996	21625
857.13	21526
857.263	21618
857.397	21606
857.53	21435
857.664	21538
857.797	21458
857.931	21591
858.064	21538
858.197	21587
858.331	21538
858.464	21408
858.597	21359
858.731	21538
858.864	21542
858.997	21405
859.13	21507
859.263	21515
859.396	21572
859.529	21397
859.662	21447
859.795	21466
859.928	21447
860.061	21663
860.194	21667
860.327	21431
860.46	21644
860.592	21637
860.725	21568
860.858	21728
860.99	21603
861.123	21351
861.256	21469
861.388	21431
861.521	22078
861.653	21283
861.786	21294
861.918	21344
862.05	21275
862.183	21408
862.315	21370
862.447	21431
862.58	21359
862.712	21252
862.844	21096
862.976	21283
863.108	21214
863.24	21519
863.372	21279
863.504	21180
863.636	21157
863.768	21291
863.9	21226
864.032	21028
864.164	21112
864.296	21268
864.428	21222
864.559	21211
864.691	21241
864.823	21241
864.954	21279
865.086	21294
865.217	21169
865.349	20868
865.48	21058
865.612	21085
865.743	21214
865.875	21123
866.006	20918
866.137	21161
866.269	21116
866.4	21005
866.531	20933
866.662	20941
866.793	21074
866.924	21043
867.055	21070
867.186	20982
867.317	21013
867.448	20872
867.579	20979
867.71	20887
867.841	21013
867.972	20963
868.103	20956
868.233	20971
868.364	20986
868.495	21085
868.625	21302
868.756	21298
868.886	21230
869.017	21230
869.147	21317
869.278	21310
869.408	21294
869.539	21154
869.669	21192
869.799	21382
869.929	21275
870.06	21302
870.19	21614
870.32	21466
870.45	21526
870.58	21694
870.71	21717
870.84	21705
870.97	21641
871.1	21618
871.23	21823
871.36	21956
871.489	21743
871.619	21770
871.749	21869
871.879	21842
872.008	21964
872.138	22025
872.267	21835
872.397	21717
872.526	21572
872.656	21709
872.785	21663
872.915	21892
873.044	21895
873.173	21804
873.303	21960
873.432	21975
873.561	21888
873.69	21975
873.819	21922
873.948	21876
874.077	21956
874.206	21857
874.335	21732
874.464	21953
874.593	22055
874.722	22093
874.851	22086
874.979	22059
875.108	22143
875.237	22010
875.365	22070
875.494	22013
875.623	22154
875.751	22006
875.88	22044
876.008	22230
876.136	22200
876.265	22493
876.393	22580
876.521	22535
876.65	22565
876.778	22550
876.906	22474
877.034	22363
877.162	22363
877.29	22219
877.418	22630
877.546	22470
877.674	22371
877.802	22504
877.93	22379
878.058	22405
878.185	22303
878.313	22424
878.441	22405
878.568	22253
878.696	22356
878.824	22478
878.951	22565
879.079	22729
879.206	22660
879.333	22557
879.461	22649
879.588	22455
879.715	22645
879.842	22713
879.97	22512
880.097	22261
880.224	22158
880.351	22318
880.478	22242
880.605	22135
880.732	22219
880.859	22417
880.986	22234
881.112	22272
881.239	22154
881.366	21987
881.493	21968
881.619	21793
881.746	21869
881.872	21865
881.999	21797
882.125	21736
882.252	21892
882.378	21759
882.505	21998
882.631	21671
882.757	21500
882.883	21603
883.01	21603
883.136	21435
883.262	21431
883.388	21359
883.514	21488
883.64	21572
883.766	21386
883.892	21378
884.018	21416
884.143	21374
884.269	21553
884.395	21211
884.52	21081
884.646	21195
884.772	21142
884.897	21051
885.023	21264
885.148	21241
885.274	21294
885.399	21275
885.524	21218
885.65	21146
885.775	21226
885.9	21032
886.025	21252
886.15	21192
886.275	21093
886.4	21074
886.525	21032
886.65	21039
886.775	21123
886.9	21344
887.025	21382
887.149	21070
887.274	20941
887.399	20963
887.523	20918
887.648	20823
887.773	20849
887.897	21028
888.021	20967
888.146	20720
888.27	21009
888.395	21043
888.519	21001
888.643	20952
888.767	21001
888.891	20853
889.015	20819
889.139	20842
889.263	20629
889.387	20788
889.511	20902
889.635	20891
889.759	20758
889.883	20686
890.006	20864
890.13	20746
890.254	20606
890.377	20613
890.501	20568
890.624	20423
890.748	20579
890.871	20408
890.995	20237
891.118	20191
891.241	20415
891.364	20267
891.488	20377
891.611	20355
891.734	20320
891.857	20286
891.98	20301
892.103	20377
892.226	20389
892.349	20195
892.471	20020
892.594	20206
892.717	20362
892.839	20100
892.962	20221
893.085	20294
893.207	20115
893.33	20115
893.452	20126
893.575	20157
893.697	20282
893.819	20294
893.941	20404
894.064	20313
894.186	20191
894.308	20111
894.43	20214
894.552	20229
894.674	20278
894.796	20107
894.918	20218
895.04	20191
895.161	20328
895.283	20195
895.405	20214
895.526	20149
895.648	20199
895.769	20187
895.891	20240
896.012	20317
896.134	20153
896.255	20214
896.376	20172
896.498	20263
896.619	20103
896.74	20119
896.861	20290
896.982	20412
897.103	20712
897.224	20457
897.345	20511
897.466	20309
897.587	20377
897.708	20609
897.828	20457
897.949	20393
898.07	20339
898.19	20313
898.311	20514
898.431	20355
898.552	20484
898.672	20484
898.792	20396
898.913	20473
899.033	20221
899.153	20221
899.273	20157
899.393	20134
899.513	20206
899.633	20161
899.753	20183
899.873	20115
899.993	20100
900.113	20077
900.232	20103
900.352	20088
900.472	19925
900.591	19868
900.711	19989
900.83	19830
900.95	20065
901.069	20005
901.189	19902
901.308	19677
901.427	19594
901.546	19445
901.665	19453
901.784	19495
901.904	19369
902.023	19270
902.141	19019
902.26	19095
902.379	19213
902.498	19088
902.617	18989
902.735	19050
902.854	18973
902.973	18939
903.091	18730
903.21	18700
903.328	18707
903.446	18623
903.565	18445
903.683	18490
903.801	18536
903.919	18471
904.038	18426
904.156	18353
904.274	18330
904.392	18220
904.51	18273
904.627	18338
904.745	18243
904.863	18330
904.981	18030
905.098	17920
905.216	18045
905.334	17977
905.451	18060
905.569	17935
905.686	17961
905.803	17912
905.921	17691
906.038	17802
906.155	17794
906.272	17623
906.389	17786
906.506	17474
906.623	17566
906.74	17490
906.857	17391
906.974	17467
907.091	17543
907.208	17505
907.324	17455
907.441	17414
907.557	17277
907.674	17280
907.79	17178
907.907	17155
908.023	17242
908.139	17242
908.256	17166
908.372	17056
908.488	16953
908.604	16995
908.72	16904
908.836	16934
908.952	16896
909.068	16896
909.184	17060
909.3	16949
909.415	17003
909.531	16934
909.647	16607
909.762	16675
909.878	16626
909.993	16607
910.108	16508
910.224	16504
910.339	16607
910.454	16470
910.57	16428
910.685	16428
910.8	16634
910.915	16679
911.03	16382
911.145	16238
911.259	16249
911.374	16268
911.489	16196
911.604	16109
911.718	15911
911.833	15968
911.947	15861
912.062	15854
912.176	16013
912.291	15960
912.405	15975
912.519	16093
912.633	16109
912.748	16002
912.862	15960
912.976	15755
913.09	15553
913.204	15800
913.318	15842
913.431	15823
913.545	15899
913.659	15774
913.772	15679
913.886	15610
914	15526
914.113	15625
914.226	15648
914.34	15595
914.453	15401
914.566	15610
914.68	15507
914.793	15458
914.906	15226
915.019	15188
915.132	15093
915.245	15074
915.358	15199
915.47	15211
915.583	15100
915.696	15123
915.809	15329
915.921	15230
916.034	15142
916.146	15058
916.259	14918
916.371	15123
916.483	14986
916.595	14910
916.708	15013
916.82	14956
916.932	14811
917.044	14941
917.156	14906
917.268	14876
917.38	14982
917.491	14842
917.603	14765
917.715	14842
917.826	14857
917.938	14807
918.049	14632
918.161	14777
918.272	14925
918.384	14773
918.495	14796
918.606	14549
918.717	14469
918.828	14613
918.939	14568
919.05	14541
919.161	14568
919.272	14358
919.383	14526
919.494	14556
919.604	14792
919.715	14514
919.826	14480
919.936	14499
920.047	14606
920.157	14507
920.267	14708
920.378	14533
920.488	14495
920.598	14655
920.708	14758
920.818	14648
920.928	14610
921.038	14731
921.148	14785
921.258	14583
921.368	14408
921.477	14286
921.587	14282
921.697	14149
921.806	14286
921.916	14115
922.025	14001
922.134	13875
922.244	13989
922.353	13967
922.462	13814
922.571	13651
922.68	13594
922.789	13548
922.898	13636
923.007	13499
923.116	13578
923.224	13521
923.333	13415
923.442	13468
923.55	13396
923.659	13445
923.767	13521
923.876	13362
923.984	13392
924.092	13255
924.201	13453
924.309	13312
924.417	13259
924.525	13278
924.633	13266
924.741	14027
924.849	13015
924.956	13103
925.064	12935
925.172	12924
925.279	13069
925.387	13091
925.494	12935
925.602	13129
925.709	12894
925.816	12840
925.924	12943
926.031	12985
926.138	12894
926.245	12901
926.352	12772
926.459	12951
926.566	12970
926.673	12795
926.779	12719
926.886	12658
926.993	12635
927.099	12544
927.206	12551
927.312	12437
927.419	12566
927.525	12486
927.631	12715
927.737	12426
927.843	12338
927.95	12254
928.056	12372
928.162	12395
928.267	12448
928.373	13031
928.479	12494
928.585	12254
928.69	12270
928.796	12414
928.901	12205
929.007	12068
929.112	12258
929.218	12232
929.323	12011
929.428	12064
929.533	12178
929.638	12068
929.743	12068
929.848	12041
929.953	12106
930.058	11901
930.163	11779
930.267	11760
930.372	11939
930.477	11703
930.581	11958
930.685	11817
930.79	11600
930.894	11665
930.998	11638
931.103	11764
931.207	11421
931.311	11277
931.415	11223
931.519	11079
931.623	11048
