Data from test_V78500241_432.txt Node
Date: Fri Mar 25 15:12:52 CST 2022
User: usil
Spectrometer: V785-0024
Trigger mode: 0
Integration Time (sec): 4.000000E-1
Scans to average: 1
Nonlinearity correction enabled: false
Boxcar width: 0
Storing dark spectrum: false
XAxis mode: Wavelengths
Number of Pixels in Spectrum: 1024
>>>>>Begin Spectral Data<<<<<
801.071	26982
801.214	26990
801.356	26689
801.499	26811
801.641	26655
801.783	26674
801.926	26571
802.068	26533
802.211	26290
802.353	26393
802.496	26248
802.638	26290
802.78	26069
802.923	26092
803.065	26122
803.208	26153
803.35	26157
803.492	26206
803.635	26400
803.777	26355
803.919	26404
804.061	26606
804.204	26237
804.346	26324
804.488	26210
804.63	26385
804.773	26225
804.915	26252
805.057	26438
805.199	26404
805.341	26499
805.483	26202
805.626	26313
805.768	26370
805.91	26431
806.052	26495
806.194	26461
806.336	26606
806.478	26511
806.62	26415
806.762	26606
806.904	26735
807.046	27020
807.188	26902
807.33	26872
807.472	26895
807.614	26800
807.756	26785
807.898	26857
808.04	26720
808.182	26769
808.324	26807
808.465	26826
808.607	26762
808.749	26967
808.891	27112
809.033	27214
809.174	27146
809.316	27165
809.458	27066
809.6	27077
809.741	27146
809.883	27211
810.025	27207
810.166	27188
810.308	27287
810.45	27313
810.591	27272
810.733	27108
810.875	27123
811.016	26864
811.158	26800
811.299	27176
811.441	27173
811.582	27180
811.724	27055
811.865	27032
812.007	27089
812.148	27009
812.29	26963
812.431	27119
812.573	27272
812.714	27412
812.855	27496
812.997	27694
813.138	27679
813.279	27759
813.421	27599
813.562	27386
813.703	27454
813.845	27340
813.986	26986
814.127	26792
814.268	26750
814.41	26659
814.551	26750
814.692	26712
814.833	26644
814.974	26590
815.115	26743
815.256	26549
815.397	26545
815.539	26419
815.68	26492
815.821	26351
815.962	26511
816.103	26495
816.244	26275
816.385	26210
816.526	26229
816.666	25944
816.807	25936
816.948	26024
817.089	26103
817.23	26168
817.371	26043
817.512	25986
817.653	25887
817.793	25940
817.934	25932
818.075	26103
818.216	25944
818.356	26039
818.497	25852
818.638	25670
818.778	25674
818.919	25658
819.06	25788
819.2	25811
819.341	25974
819.481	25864
819.622	26142
819.762	26415
819.903	26294
820.043	26122
820.184	26081
820.324	26035
820.465	26229
820.605	26050
820.746	26088
820.886	25963
821.026	26046
821.167	25982
821.307	25959
821.447	26035
821.588	25845
821.728	25742
821.868	25674
822.008	25434
822.149	25354
822.289	25133
822.429	25232
822.569	25091
822.709	25046
822.849	24939
822.99	24943
823.13	24943
823.27	24958
823.41	24772
823.55	24608
823.69	24734
823.83	24791
823.97	24711
824.11	24681
824.25	24517
824.389	24608
824.529	24646
824.669	24532
824.809	24620
824.949	24779
825.089	24502
825.228	24627
825.368	24342
825.508	24452
825.648	24251
825.787	24563
825.927	24525
826.067	24300
826.206	24361
826.346	24513
826.485	24445
826.625	24494
826.765	24441
826.904	24407
827.044	24346
827.183	24163
827.323	24102
827.462	24243
827.601	24144
827.741	24060
827.88	24148
828.02	23988
828.159	24018
828.298	24133
828.437	24224
828.577	24076
828.716	24220
828.855	24152
828.994	23855
829.134	23923
829.273	23912
829.412	23874
829.551	23729
829.69	23935
829.829	23912
829.968	23885
830.107	23733
830.246	23851
830.385	23859
830.524	23752
830.663	23596
830.802	23589
830.941	23543
831.08	23455
831.219	23634
831.357	23528
831.496	23478
831.635	23398
831.774	23471
831.913	23372
832.051	23337
832.19	23303
832.329	23322
832.467	23254
832.606	23102
832.744	23094
832.883	23208
833.022	23052
833.16	23113
833.299	23360
833.437	23174
833.576	23223
833.714	23151
833.852	23292
833.991	23334
834.129	23391
834.267	23284
834.406	23254
834.544	23311
834.682	23143
834.821	23197
834.959	23254
835.097	23197
835.235	23318
835.373	23223
835.511	23132
835.65	22984
835.788	23140
835.926	23079
836.064	22839
836.202	23029
836.34	23075
836.478	23117
836.615	23102
836.753	23136
836.891	23079
837.029	23037
837.167	23105
837.305	23014
837.443	22961
837.58	22915
837.718	23071
837.856	22835
837.993	22843
838.131	23025
838.269	22843
838.406	22908
838.544	22740
838.681	22550
838.819	22645
838.956	22424
839.094	22363
839.231	22440
839.369	22618
839.506	22828
839.643	22569
839.781	22402
839.918	22348
840.055	22481
840.193	22344
840.33	22310
840.467	22268
840.604	22447
840.742	22546
840.879	22169
841.016	22169
841.153	22196
841.29	22341
841.427	22295
841.564	22344
841.701	22322
841.838	22261
841.975	22166
842.112	22261
842.249	22192
842.385	22078
842.522	22306
842.659	22147
842.796	22116
842.933	22029
843.069	22032
843.206	22101
843.343	22188
843.479	22124
843.616	22078
843.752	21937
843.889	21854
844.025	22021
844.162	21827
844.298	21983
844.435	21895
844.571	21865
844.708	21968
844.844	22006
844.98	21850
845.117	21994
845.253	21816
845.389	21831
845.525	21865
845.661	21766
845.798	21603
845.934	21743
846.07	21545
846.206	21701
846.342	21671
846.478	21663
846.614	21542
846.75	21374
846.886	21359
847.022	21359
847.158	21272
847.294	21306
847.429	21397
847.565	21245
847.701	21492
847.837	21150
847.972	21104
848.108	21287
848.244	21108
848.379	20948
848.515	20918
848.65	20910
848.786	20929
848.921	21001
849.057	21096
849.192	20967
849.328	20887
849.463	21096
849.598	20815
849.734	20868
849.869	20796
850.004	20735
850.14	20746
850.275	20785
850.41	20686
850.545	20663
850.68	20712
850.815	20724
850.95	20823
851.085	20864
851.22	20720
851.355	20773
851.49	20735
851.625	20750
851.76	20686
851.895	20644
852.03	20522
852.165	20777
852.299	20765
852.434	20823
852.569	20762
852.703	20686
852.838	20842
852.973	20857
853.107	20807
853.242	20625
853.376	20587
853.511	20419
853.645	20507
853.78	20533
853.914	20613
854.048	20571
854.183	20541
854.317	20579
854.451	20724
854.585	20427
854.72	20537
854.854	20697
854.988	20480
855.122	20495
855.256	20339
855.39	20609
855.524	20583
855.658	20613
855.792	20617
855.926	20590
856.06	20575
856.194	20518
856.327	20564
856.461	20457
856.595	20518
856.729	20606
856.862	20533
856.996	20526
857.13	20621
857.263	20568
857.397	20678
857.53	20587
857.664	20552
857.797	20545
857.931	20731
858.064	20560
858.197	20746
858.331	20526
858.464	20503
858.597	20427
858.731	20476
858.864	20511
858.997	20511
859.13	20533
859.263	20537
859.396	20606
859.529	20480
859.662	20545
859.795	20499
859.928	20579
860.061	20636
860.194	20693
860.327	20556
860.46	20602
860.592	20583
860.725	20754
860.858	20705
860.99	20613
861.123	20473
861.256	20438
861.388	20545
861.521	21344
861.653	20332
861.786	20385
861.918	20408
862.05	20526
862.183	20541
862.315	20571
862.447	20560
862.58	20415
862.712	20240
862.844	20240
862.976	20305
863.108	20286
863.24	20670
863.372	20183
863.504	20320
863.636	20278
863.768	20343
863.9	20218
864.032	20149
864.164	20111
864.296	20278
864.428	20313
864.559	20377
864.691	20377
864.823	20191
864.954	20244
865.086	20180
865.217	20122
865.349	20153
865.48	20111
865.612	20225
865.743	20172
865.875	20187
866.006	20199
866.137	20202
866.269	20183
866.4	20176
866.531	20134
866.662	20062
866.793	20115
866.924	20122
867.055	20088
867.186	20149
867.317	19986
867.448	19936
867.579	20103
867.71	20008
867.841	20027
867.972	20183
868.103	20020
868.233	20134
868.364	20084
868.495	20122
868.625	20320
868.756	20317
868.886	20199
869.017	20419
869.147	20507
869.278	20503
869.408	20396
869.539	20415
869.669	20469
869.799	20488
869.929	20549
870.06	20389
870.19	20746
870.32	20606
870.45	20686
870.58	20629
870.71	20929
870.84	20849
870.97	20792
871.1	20667
871.23	20868
871.36	21005
871.489	20819
871.619	20815
871.749	20960
871.879	20967
872.008	20990
872.138	21005
872.267	20960
872.397	20868
872.526	20849
872.656	20754
872.785	20750
872.915	21051
873.044	21047
873.173	20891
873.303	20906
873.432	20979
873.561	21051
873.69	21001
873.819	20880
873.948	20910
874.077	20944
874.206	20925
874.335	20845
874.464	21180
874.593	21211
874.722	21275
874.851	21157
874.979	21317
875.108	21180
875.237	21173
875.365	21176
875.494	21081
875.623	21237
875.751	21161
875.88	21074
876.008	21310
876.136	21435
876.265	21599
876.393	21713
876.521	21724
876.65	21629
876.778	21542
876.906	21538
877.034	21469
877.162	21553
877.29	21557
877.418	21511
877.546	21701
877.674	21526
877.802	21488
877.93	21538
878.058	21504
878.185	21393
878.313	21431
878.441	21599
878.568	21412
878.696	21466
878.824	21553
878.951	21705
879.079	21751
879.206	21835
879.333	21770
879.461	21511
879.588	21625
879.715	21705
879.842	21800
879.97	21576
880.097	21329
880.224	21378
880.351	21420
880.478	21431
880.605	21367
880.732	21313
880.859	21618
880.986	21420
881.112	21264
881.239	21291
881.366	21142
881.493	21020
881.619	21039
881.746	21020
881.872	20944
881.999	20887
882.125	20948
882.252	20914
882.378	20842
882.505	21077
882.631	20876
882.757	20731
882.883	20788
883.01	20629
883.136	20541
883.262	20571
883.388	20541
883.514	20750
883.64	20754
883.766	20541
883.892	20389
884.018	20492
884.143	20697
884.269	20674
884.395	20374
884.52	20290
884.646	20233
884.772	20290
884.897	20202
885.023	20423
885.148	20358
885.274	20514
885.399	20343
885.524	20256
885.65	20381
885.775	20404
885.9	20313
886.025	20412
886.15	20271
886.275	20286
886.4	20271
886.525	20290
886.65	20256
886.775	20225
886.9	20457
887.025	20473
887.149	20282
887.274	20142
887.399	20039
887.523	20172
887.648	20027
887.773	19989
887.897	20164
888.021	20164
888.146	19989
888.27	20107
888.395	20214
888.519	20142
888.643	20130
888.767	20111
888.891	20130
889.015	19871
889.139	20073
889.263	19841
889.387	19989
889.511	20092
889.635	20031
889.759	19940
889.883	19841
890.006	19849
890.13	20020
890.254	19780
890.377	19803
890.501	19594
890.624	19624
890.748	19658
890.871	19575
890.995	19487
891.118	19346
891.241	19472
891.364	19365
891.488	19582
891.611	19476
891.734	19339
891.857	19651
891.98	19457
892.103	19533
892.226	19548
892.349	19533
892.471	19266
892.594	19441
892.717	19392
892.839	19392
892.962	19426
893.085	19495
893.207	19422
893.33	19422
893.452	19285
893.575	19438
893.697	19373
893.819	19411
893.941	19578
894.064	19464
894.186	19384
894.308	19179
894.43	19480
894.552	19620
894.674	19502
894.796	19244
894.918	19495
895.04	19285
895.161	19381
895.283	19400
895.405	19396
895.526	19362
895.648	19369
895.769	19434
895.891	19502
896.012	19514
896.134	19419
896.255	19460
896.376	19362
896.498	19441
896.619	19506
896.74	19377
896.861	19468
896.982	19883
897.103	19864
897.224	19643
897.345	19670
897.466	19552
897.587	19757
897.708	19719
897.828	19708
897.949	19601
898.07	19457
898.19	19597
898.311	19632
898.431	19483
898.552	19635
898.672	19639
898.792	19727
898.913	19590
899.033	19407
899.153	19377
899.273	19270
899.393	19346
899.513	19468
899.633	19350
899.753	19483
899.873	19247
899.993	19457
900.113	19388
900.232	19320
900.352	19358
900.472	19270
900.591	19206
900.711	19183
900.83	19126
900.95	19324
901.069	19362
901.189	19088
901.308	18852
901.427	18757
901.546	18760
901.665	18749
901.784	18776
901.904	18616
902.023	18608
902.141	18521
902.26	18391
902.379	18426
902.498	18247
902.617	18235
902.735	18239
902.854	18289
902.973	18136
903.091	18060
903.21	17988
903.328	18041
903.446	17965
903.565	17733
903.683	17748
903.801	17726
903.919	17794
904.038	17722
904.156	17630
904.274	17554
904.392	17551
904.51	17520
904.627	17501
904.745	17619
904.863	17551
904.981	17239
905.098	17307
905.216	17185
905.334	17311
905.451	17227
905.569	17330
905.686	17216
905.803	17254
905.921	17132
906.038	17121
906.155	17079
906.272	16873
906.389	16980
906.506	16812
906.623	16702
906.74	16828
906.857	16694
906.974	16706
907.091	16801
907.208	16850
907.324	16847
907.441	16744
907.557	16645
907.674	16470
907.79	16481
907.907	16440
908.023	16519
908.139	16481
908.256	16451
908.372	16375
908.488	16436
908.604	16181
908.72	16124
908.836	16306
908.952	16211
909.068	16230
909.184	16329
909.3	16253
909.415	16196
909.531	16314
909.647	16017
909.762	15983
909.878	16044
909.993	16025
910.108	15915
910.224	15941
910.339	15994
910.454	15854
910.57	15861
910.685	15606
910.8	15915
910.915	15930
911.03	15682
911.145	15572
911.259	15515
911.374	15534
911.489	15462
911.604	15393
911.718	15233
911.833	15199
911.947	15249
912.062	15150
912.176	15294
912.291	15287
912.405	15207
912.519	15408
912.633	15515
912.748	15329
912.862	15214
912.976	15123
913.09	15077
913.204	15093
913.318	15100
913.431	15370
913.545	15131
913.659	15268
913.772	15100
913.886	14921
914	14963
914.113	15112
914.226	15062
914.34	15146
914.453	14796
914.566	14986
914.68	14845
914.793	14746
914.906	14655
915.019	14556
915.132	14499
915.245	14610
915.358	14587
915.47	14617
915.583	14651
915.696	14530
915.809	14648
915.921	14644
916.034	14511
916.146	14469
916.259	14415
916.371	14621
916.483	14465
916.595	14488
916.708	14442
916.82	14385
916.932	14309
917.044	14454
917.156	14229
917.268	14339
917.38	14278
917.491	14233
917.603	14259
917.715	14400
917.826	14309
917.938	14119
918.049	14214
918.161	14218
918.272	14252
918.384	14313
918.495	14233
918.606	14103
918.717	13974
918.828	14027
918.939	14050
919.05	13993
919.161	14008
919.272	13799
919.383	13845
919.494	14035
919.604	14202
919.715	13986
919.826	13841
919.936	13887
920.047	14016
920.157	13932
920.267	14164
920.378	13921
920.488	13974
920.598	14130
920.708	14313
920.818	14130
920.928	14088
921.038	14202
921.148	14191
921.258	13944
921.368	13841
921.477	13746
921.587	13753
921.697	13628
921.806	13719
921.916	13632
922.025	13430
922.134	13377
922.244	13358
922.353	13327
922.462	13289
922.571	13209
922.68	13133
922.789	13076
922.898	13095
923.007	12897
923.116	13072
923.224	12996
923.333	12947
923.442	12791
923.55	12848
923.659	12932
923.767	12916
923.876	12825
923.984	12909
924.092	12837
924.201	12856
924.309	12719
924.417	12821
924.525	12662
924.633	12684
924.741	13628
924.849	12502
924.956	12662
925.064	12460
925.172	12308
925.279	12456
925.387	12494
925.494	12528
925.602	12631
925.709	12547
925.816	12350
925.924	12319
926.031	12426
926.138	12388
926.245	12521
926.352	12342
926.459	12429
926.566	12623
926.673	12456
926.779	12262
926.886	12178
926.993	12102
927.099	12026
927.206	12030
927.312	12064
927.419	12159
927.525	12053
927.631	12030
927.737	12007
927.843	11920
927.95	11760
928.056	11882
928.162	11988
928.267	11904
928.373	12555
928.479	11988
928.585	11756
928.69	11805
928.796	11832
928.901	11745
929.007	11634
929.112	11775
929.218	11680
929.323	11653
929.428	11539
929.533	11878
929.638	11486
929.743	11570
929.848	11596
929.953	11554
930.058	11417
930.163	11288
930.267	11345
930.372	11421
930.477	11269
930.581	11505
930.685	11280
930.79	11208
930.894	11208
930.998	11197
931.103	11322
931.207	10991
931.311	10908
931.415	10831
931.519	10668
931.623	10535
