Data from test_V78500241_3308.txt Node
Date: Fri Mar 25 15:32:53 CST 2022
User: usil
Spectrometer: V785-0024
Trigger mode: 0
Integration Time (sec): 4.000000E-1
Scans to average: 1
Nonlinearity correction enabled: false
Boxcar width: 0
Storing dark spectrum: false
XAxis mode: Wavelengths
Number of Pixels in Spectrum: 1024
>>>>>Begin Spectral Data<<<<<
801.071	27184
801.214	27184
801.356	27108
801.499	26948
801.641	26838
801.783	26872
801.926	26910
802.068	26746
802.211	26773
802.353	26720
802.496	26461
802.638	26385
802.78	26309
802.923	26298
803.065	26271
803.208	26298
803.35	26480
803.492	26579
803.635	26598
803.777	26530
803.919	26629
804.061	26895
804.204	26663
804.346	26552
804.488	26412
804.63	26541
804.773	26431
804.915	26674
805.057	26583
805.199	26495
805.341	26518
805.483	26655
805.626	26796
805.768	26568
805.91	26712
806.052	26632
806.194	26617
806.336	26845
806.478	26480
806.62	26632
806.762	26781
806.904	26891
807.046	27085
807.188	27070
807.33	27051
807.472	27165
807.614	26925
807.756	26944
807.898	26891
808.04	26861
808.182	26815
808.324	26880
808.465	27051
808.607	27176
808.749	27287
808.891	27332
809.033	27370
809.174	27340
809.316	27192
809.458	27336
809.6	27214
809.741	27374
809.883	27416
810.025	27557
810.166	27515
810.308	27591
810.45	27450
810.591	27412
810.733	27321
810.875	27249
811.016	27226
811.158	27142
811.299	27492
811.441	27450
811.582	27416
811.724	27351
811.865	27370
812.007	27279
812.148	27367
812.29	27325
812.431	27332
812.573	27557
812.714	27587
812.855	27793
812.997	27880
813.138	28021
813.279	27857
813.421	27793
813.562	27800
813.703	27561
813.845	27256
813.986	27104
814.127	26960
814.268	26948
814.41	26887
814.551	26899
814.692	26967
814.833	26735
814.974	26979
815.115	26902
815.256	26891
815.397	26762
815.539	26689
815.68	26727
815.821	26720
815.962	26651
816.103	26678
816.244	26488
816.385	26442
816.526	26408
816.666	26237
816.807	26278
816.948	26453
817.089	26301
817.23	26320
817.371	26164
817.512	26149
817.653	26016
817.793	26062
817.934	26358
818.075	26290
818.216	26233
818.356	26054
818.497	26035
818.638	25894
818.778	25833
818.919	25883
819.06	25932
819.2	26020
819.341	26149
819.481	26168
819.622	26195
819.762	26575
819.903	26431
820.043	26286
820.184	26233
820.324	26199
820.465	26366
820.605	26278
820.746	26210
820.886	26218
821.026	26214
821.167	26320
821.307	26290
821.447	26043
821.588	26039
821.728	25982
821.868	25662
822.008	25571
822.149	25670
822.289	25670
822.429	25339
822.569	25308
822.709	25320
822.849	25160
822.99	25053
823.13	25217
823.27	25050
823.41	24989
823.55	24791
823.69	24886
823.83	24992
823.97	24928
824.11	24772
824.25	24730
824.389	24806
824.529	24779
824.669	24730
824.809	24913
824.949	24844
825.089	24749
825.228	24863
825.368	24730
825.508	24696
825.648	24639
825.787	24745
825.927	24840
826.067	24700
826.206	24715
826.346	24608
826.485	24673
826.625	24677
826.765	24814
826.904	24688
827.044	24418
827.183	24388
827.323	24388
827.462	24376
827.601	24296
827.741	24262
827.88	24266
828.02	24197
828.159	24399
828.298	24426
828.437	24403
828.577	24285
828.716	24388
828.855	24281
828.994	24022
829.134	24072
829.273	24133
829.412	24053
829.551	23996
829.69	24163
829.829	24011
829.968	24209
830.107	24117
830.246	24030
830.385	23996
830.524	23893
830.663	23832
830.802	23737
830.941	23665
831.08	23619
831.219	23756
831.357	23859
831.496	23973
831.635	23589
831.774	23589
831.913	23687
832.051	23459
832.19	23436
832.329	23463
832.467	23356
832.606	23280
832.744	23322
832.883	23421
833.022	23318
833.16	23360
833.299	23330
833.437	23372
833.576	23505
833.714	23562
833.852	23520
833.991	23421
834.129	23539
834.267	23657
834.406	23353
834.544	23482
834.682	23364
834.821	23429
834.959	23493
835.097	23463
835.235	23497
835.373	23417
835.511	23433
835.65	23303
835.788	23220
835.926	23200
836.064	23060
836.202	23056
836.34	23334
836.478	23353
836.615	23273
836.753	23254
836.891	23444
837.029	23406
837.167	23265
837.305	23193
837.443	23162
837.58	23117
837.718	23143
837.856	23155
837.993	23121
838.131	23083
838.269	22915
838.406	23048
838.544	22968
838.681	22835
838.819	22782
838.956	22653
839.094	22607
839.231	22649
839.369	22801
839.506	22961
839.643	22805
839.781	22675
839.918	22443
840.055	22668
840.193	22622
840.33	22451
840.467	22550
840.604	22577
840.742	22908
840.879	22523
841.016	22542
841.153	22523
841.29	22687
841.427	22546
841.564	22516
841.701	22637
841.838	22481
841.975	22451
842.112	22538
842.249	22485
842.385	22360
842.522	22497
842.659	22405
842.796	22325
842.933	22280
843.069	22226
843.206	22280
843.343	22398
843.479	22325
843.616	22367
843.752	22173
843.889	22219
844.025	22314
844.162	22048
844.298	22093
844.435	22074
844.571	21983
844.708	22143
844.844	22143
844.98	22169
845.117	22234
845.253	22063
845.389	21960
845.525	21972
845.661	21922
845.798	21850
845.934	21915
846.07	21888
846.206	21728
846.342	21778
846.478	21804
846.614	21538
846.75	21507
846.886	21439
847.022	21614
847.158	21481
847.294	21526
847.429	21675
847.565	21660
847.701	21743
847.837	21329
847.972	21294
848.108	21260
848.244	21443
848.379	21192
848.515	21066
848.65	21214
848.786	21176
848.921	21127
849.057	21264
849.192	21283
849.328	21222
849.463	21119
849.598	21043
849.734	21112
849.869	21013
850.004	20914
850.14	20990
850.275	20857
850.41	21017
850.545	20941
850.68	20929
850.815	20880
850.95	20788
851.085	21047
851.22	21047
851.355	20838
851.49	21013
851.625	20929
851.76	20944
851.895	20811
852.03	20849
852.165	20925
852.299	20845
852.434	20948
852.569	20880
852.703	20906
852.838	20937
852.973	21024
853.107	20990
853.242	20807
853.376	20724
853.511	20659
853.645	20674
853.78	20849
853.914	20609
854.048	20838
854.183	20674
854.317	20750
854.451	20933
854.585	20781
854.72	20804
854.854	20838
854.988	20739
855.122	20785
855.256	20663
855.39	20705
855.524	20769
855.658	20804
855.792	20788
855.926	20716
856.06	20716
856.194	20887
856.327	20781
856.461	20739
856.595	20648
856.729	20853
856.862	20788
856.996	20735
857.13	20826
857.263	20880
857.397	20826
857.53	20636
857.664	20765
857.797	20807
857.931	20785
858.064	20705
858.197	20921
858.331	20788
858.464	20689
858.597	20678
858.731	20773
858.864	20682
858.997	20674
859.13	20746
859.263	20788
859.396	20785
859.529	20689
859.662	20693
859.795	20697
859.928	20678
860.061	20933
860.194	21013
860.327	20788
860.46	20842
860.592	20899
860.725	20876
860.858	20887
860.99	20826
861.123	20689
861.256	20560
861.388	20739
861.521	21310
861.653	20606
861.786	20568
861.918	20644
862.05	20724
862.183	20682
862.315	20602
862.447	20849
862.58	20670
862.712	20526
862.844	20419
862.976	20541
863.108	20625
863.24	20925
863.372	20457
863.504	20385
863.636	20526
863.768	20590
863.9	20431
864.032	20389
864.164	20507
864.296	20514
864.428	20530
864.559	20503
864.691	20663
864.823	20488
864.954	20362
865.086	20568
865.217	20465
865.349	20355
865.48	20324
865.612	20377
865.743	20408
865.875	20404
866.006	20355
866.137	20473
866.269	20366
866.4	20355
866.531	20480
866.662	20256
866.793	20377
866.924	20377
867.055	20438
867.186	20313
867.317	20374
867.448	20248
867.579	20286
867.71	20237
867.841	20290
867.972	20347
868.103	20195
868.233	20374
868.364	20355
868.495	20473
868.625	20556
868.756	20670
868.886	20488
869.017	20522
869.147	20606
869.278	20731
869.408	20587
869.539	20533
869.669	20644
869.799	20644
869.929	20602
870.06	20735
870.19	20982
870.32	20960
870.45	21036
870.58	20971
870.71	21047
870.84	21074
870.97	21039
871.1	21055
871.23	21272
871.36	21127
871.489	21077
871.619	21264
871.749	21096
871.879	21279
872.008	21401
872.138	21252
872.267	21211
872.397	21074
872.526	21100
872.656	20975
872.785	21089
872.915	21207
873.044	21256
873.173	21313
873.303	21245
873.432	21249
873.561	21348
873.69	21176
873.819	21116
873.948	21329
874.077	21184
874.206	21226
874.335	21340
874.464	21317
874.593	21447
874.722	21431
874.851	21469
874.979	21496
875.108	21492
875.237	21420
875.365	21378
875.494	21431
875.623	21568
875.751	21477
875.88	21534
876.008	21660
876.136	21686
876.265	21827
876.393	21994
876.521	21876
876.65	21956
876.778	21816
876.906	21911
877.034	21797
877.162	21869
877.29	21720
877.418	21823
877.546	21781
877.674	21793
877.802	21739
877.93	21694
878.058	21812
878.185	21618
878.313	21739
878.441	21732
878.568	21713
878.696	21637
878.824	21819
878.951	21915
879.079	22067
879.206	22135
879.333	21888
879.461	21797
879.588	21934
879.715	21994
879.842	22139
879.97	22013
880.097	21606
880.224	21568
880.351	21690
880.478	21652
880.605	21538
880.732	21542
880.859	21774
880.986	21755
881.112	21595
881.239	21481
881.366	21363
881.493	21325
881.619	21260
881.746	21173
881.872	21340
881.999	21195
882.125	21112
882.252	21176
882.378	21116
882.505	21237
882.631	21096
882.757	20853
882.883	20952
883.01	20960
883.136	20895
883.262	20689
883.388	20750
883.514	20857
883.64	20986
883.766	20883
883.892	20587
884.018	20724
884.143	20849
884.269	20952
884.395	20689
884.52	20533
884.646	20701
884.772	20530
884.897	20522
885.023	20499
885.148	20716
885.274	20621
885.399	20537
885.524	20552
885.65	20613
885.775	20594
885.9	20476
886.025	20682
886.15	20590
886.275	20499
886.4	20431
886.525	20575
886.65	20423
886.775	20495
886.9	20682
887.025	20785
887.149	20511
887.274	20381
887.399	20309
887.523	20328
887.648	20313
887.773	20210
887.897	20389
888.021	20400
888.146	20336
888.27	20332
888.395	20530
888.519	20347
888.643	20294
888.767	20301
888.891	20225
889.015	20027
889.139	20180
889.263	20168
889.387	20237
889.511	20366
889.635	20214
889.759	20115
889.883	20115
890.006	20172
890.13	20214
890.254	20081
890.377	20039
890.501	19841
890.624	19811
890.748	19833
890.871	19814
890.995	19712
891.118	19731
891.241	19753
891.364	19712
891.488	19879
891.611	19662
891.734	19670
891.857	19811
891.98	19655
892.103	19731
892.226	19738
892.349	19655
892.471	19445
892.594	19620
892.717	19677
892.839	19582
892.962	19674
893.085	19677
893.207	19571
893.33	19586
893.452	19563
893.575	19677
893.697	19666
893.819	19746
893.941	19803
894.064	19776
894.186	19609
894.308	19601
894.43	19662
894.552	19776
894.674	19761
894.796	19548
894.918	19677
895.04	19468
895.161	19723
895.283	19719
895.405	19620
895.526	19609
895.648	19670
895.769	19655
895.891	19689
896.012	19734
896.134	19700
896.255	19632
896.376	19552
896.498	19605
896.619	19582
896.74	19693
896.861	19753
896.982	20012
897.103	20050
897.224	19974
897.345	19902
897.466	19708
897.587	19871
897.708	20088
897.828	19936
897.949	19731
898.07	19651
898.19	19807
898.311	19921
898.431	19818
898.552	19879
898.672	19944
898.792	19982
898.913	19807
899.033	19750
899.153	19632
899.273	19548
899.393	19677
899.513	19670
899.633	19670
899.753	19689
899.873	19609
899.993	19651
900.113	19464
900.232	19559
900.352	19460
900.472	19514
900.591	19320
900.711	19441
900.83	19312
900.95	19460
901.069	19605
901.189	19388
901.308	19000
901.427	18932
901.546	18920
901.665	19027
901.784	18996
901.904	18935
902.023	18814
902.141	18559
902.26	18559
902.379	18631
902.498	18532
902.617	18525
902.735	18448
902.854	18521
902.973	18304
903.091	18178
903.21	18289
903.328	18224
903.446	18114
903.565	18011
903.683	18011
903.801	17863
903.919	17866
904.038	17927
904.156	17760
904.274	17855
904.392	17756
904.51	17760
904.627	17741
904.745	17843
904.863	17699
904.981	17547
905.098	17395
905.216	17322
905.334	17455
905.451	17436
905.569	17311
905.686	17433
905.803	17425
905.921	17227
906.038	17299
906.155	17250
906.272	17117
906.389	17102
906.506	16923
906.623	17014
906.74	16915
906.857	16858
906.974	16965
907.091	17048
907.208	17117
907.324	16942
907.441	16896
907.557	16820
907.674	16603
907.79	16729
907.907	16622
908.023	16752
908.139	16668
908.256	16615
908.372	16672
908.488	16599
908.604	16481
908.72	16402
908.836	16599
908.952	16386
909.068	16550
909.184	16542
909.3	16516
909.415	16459
909.531	16398
909.647	16173
909.762	16162
909.878	16036
909.993	16150
910.108	16196
910.224	16040
910.339	16006
910.454	15956
910.57	15937
910.685	15888
910.8	16120
910.915	16093
911.03	16059
911.145	15701
911.259	15728
911.374	15701
911.489	15732
911.604	15557
911.718	15538
911.833	15466
911.947	15443
912.062	15310
912.176	15530
912.291	15488
912.405	15431
912.519	15690
912.633	15629
912.748	15511
912.862	15511
912.976	15317
913.09	15135
913.204	15260
913.318	15298
913.431	15370
913.545	15424
913.659	15443
913.772	15355
913.886	15135
914	15116
914.113	15237
914.226	15218
914.34	15142
914.453	14963
914.566	15123
914.68	14967
914.793	14960
914.906	14819
915.019	14667
915.132	14743
915.245	14617
915.358	14800
915.47	14705
915.583	14769
915.696	14754
915.809	14811
915.921	14765
916.034	14682
916.146	14644
916.259	14564
916.371	14640
916.483	14712
916.595	14549
916.708	14556
916.82	14579
916.932	14651
917.044	14442
917.156	14518
917.268	14492
917.38	14450
917.491	14339
917.603	14419
917.715	14461
917.826	14476
917.938	14358
918.049	14218
918.161	14370
918.272	14461
918.384	14412
918.495	14328
918.606	14240
918.717	14012
918.828	14214
918.939	14343
919.05	14065
919.161	14058
919.272	13917
919.383	14050
919.494	14202
919.604	14358
919.715	14115
919.826	14054
919.936	14123
920.047	14187
920.157	14138
920.267	14263
920.378	14225
920.488	14031
920.598	14305
920.708	14355
920.818	14229
920.928	14210
921.038	14545
921.148	14309
921.258	14065
921.368	13944
921.477	13830
921.587	13833
921.697	13723
921.806	13864
921.916	13814
922.025	13586
922.134	13571
922.244	13537
922.353	13575
922.462	13373
922.571	13346
922.68	13217
922.789	13133
922.898	13164
923.007	13080
923.116	13190
923.224	13198
923.333	13103
923.442	13061
923.55	13057
923.659	13004
923.767	13129
923.876	13038
923.984	13038
924.092	12947
924.201	12924
924.309	12814
924.417	12970
924.525	12821
924.633	12795
924.741	13791
924.849	12627
924.956	12844
925.064	12662
925.172	12570
925.279	12547
925.387	12635
925.494	12612
925.602	12768
925.709	12623
925.816	12528
925.924	12623
926.031	12696
926.138	12627
926.245	12544
926.352	12464
926.459	12601
926.566	12639
926.673	12517
926.779	12346
926.886	12388
926.993	12224
927.099	12228
927.206	12163
927.312	12167
927.419	12232
927.525	12262
927.631	12175
927.737	12057
927.843	12076
927.95	11885
928.056	12026
928.162	12102
928.267	12064
928.373	12574
928.479	12068
928.585	11908
928.69	11980
928.796	12026
928.901	12003
929.007	11802
929.112	11813
929.218	11836
929.323	11870
929.428	11771
929.533	11878
929.638	11726
929.743	11741
929.848	11729
929.953	11676
930.058	11630
930.163	11505
930.267	11474
930.372	11634
930.477	11414
930.581	11756
930.685	11566
930.79	11299
930.894	11376
930.998	11277
931.103	11425
931.207	11132
931.311	11010
931.415	10949
931.519	10771
931.623	10714
