Data from test_V78500241_1214.txt Node
Date: Fri Mar 25 15:18:18 CST 2022
User: usil
Spectrometer: V785-0024
Trigger mode: 0
Integration Time (sec): 4.000000E-1
Scans to average: 1
Nonlinearity correction enabled: false
Boxcar width: 0
Storing dark spectrum: false
XAxis mode: Wavelengths
Number of Pixels in Spectrum: 1024
>>>>>Begin Spectral Data<<<<<
801.071	28329
801.214	28147
801.356	27911
801.499	27755
801.641	27717
801.783	27743
801.926	27618
802.068	27637
802.211	27591
802.353	27622
802.496	27454
802.638	27188
802.78	27378
802.923	27424
803.065	27233
803.208	27294
803.35	27370
803.492	27488
803.635	27561
803.777	27496
803.919	27606
804.061	27797
804.204	27724
804.346	27553
804.488	27477
804.63	27652
804.773	27675
804.915	27675
805.057	27713
805.199	27587
805.341	27690
805.483	27819
805.626	27774
805.768	27542
805.91	27755
806.052	27793
806.194	27591
806.336	27899
806.478	27736
806.62	27720
806.762	27701
806.904	27994
807.046	28223
807.188	28169
807.33	28150
807.472	28226
807.614	28105
807.756	28055
807.898	28070
808.04	28044
808.182	28021
808.324	28063
808.465	27937
808.607	28287
808.749	28329
808.891	28401
809.033	28531
809.174	28531
809.316	28405
809.458	28371
809.6	28344
809.741	28508
809.883	28668
810.025	28748
810.166	28573
810.308	28740
810.45	28691
810.591	28554
810.733	28428
810.875	28535
811.016	28413
811.158	28234
811.299	28504
811.441	28504
811.582	28615
811.724	28379
811.865	28360
812.007	28409
812.148	28405
812.29	28432
812.431	28527
812.573	28771
812.714	28831
812.855	28942
812.997	29018
813.138	29079
813.279	29121
813.421	29018
813.562	29056
813.703	28755
813.845	28656
813.986	28516
814.127	28337
814.268	28070
814.41	28109
814.551	28162
814.692	28204
814.833	28032
814.974	28036
815.115	28181
815.256	27888
815.397	27918
815.539	27987
815.68	27926
815.821	27793
815.962	27945
816.103	27850
816.244	27850
816.385	27713
816.526	27694
816.666	27473
816.807	27427
816.948	27424
817.089	27477
817.23	27363
817.371	27420
817.512	27367
817.653	27359
817.793	27397
817.934	27325
818.075	27485
818.216	27355
818.356	27359
818.497	27230
818.638	27298
818.778	27154
818.919	27089
819.06	27351
819.2	27237
819.341	27568
819.481	27317
819.622	27633
819.762	27637
819.903	27698
820.043	27538
820.184	27641
820.324	27431
820.465	27580
820.605	27542
820.746	27454
820.886	27302
821.026	27557
821.167	27412
821.307	27557
821.447	27435
821.588	27454
821.728	27203
821.868	27123
822.008	26990
822.149	26891
822.289	26853
822.429	26568
822.569	26556
822.709	26594
822.849	26423
822.99	26434
823.13	26336
823.27	26317
823.41	26218
823.55	26073
823.69	26206
823.83	26180
823.97	26161
824.11	26001
824.25	25902
824.389	26027
824.529	26050
824.669	26145
824.809	26081
824.949	26244
825.089	26100
825.228	26008
825.368	25894
825.508	25989
825.648	26096
825.787	26035
825.927	26039
826.067	25906
826.206	25989
826.346	26062
826.485	26195
826.625	25989
826.765	26191
826.904	26046
827.044	25811
827.183	25761
827.323	25826
827.462	25776
827.601	25575
827.741	25651
827.88	25643
828.02	25392
828.159	25674
828.298	25635
828.437	25601
828.577	25616
828.716	25772
828.855	25674
828.994	25468
829.134	25285
829.273	25377
829.412	25346
829.551	25510
829.69	25411
829.829	25464
829.968	25441
830.107	25460
830.246	25331
830.385	25152
830.524	25369
830.663	25164
830.802	25034
830.941	24977
831.08	24970
831.219	25099
831.357	24992
831.496	25304
831.635	24951
831.774	24962
831.913	24878
832.051	24833
832.19	24783
832.329	24928
832.467	24639
832.606	24627
832.744	24631
832.883	24639
833.022	24597
833.16	24753
833.299	24730
833.437	24719
833.576	24760
833.714	24859
833.852	24764
833.991	24821
834.129	24909
834.267	24787
834.406	24730
834.544	24844
834.682	24757
834.821	24623
834.959	24806
835.097	24677
835.235	24806
835.373	24741
835.511	24696
835.65	24703
835.788	24471
835.926	24486
836.064	24467
836.202	24502
836.34	24593
836.478	24612
836.615	24513
836.753	24540
836.891	24650
837.029	24559
837.167	24338
837.305	24673
837.443	24426
837.58	24414
837.718	24422
837.856	24384
837.993	24357
838.131	24384
838.269	24441
838.406	24502
838.544	24213
838.681	24068
838.819	24045
838.956	23912
839.094	23863
839.231	23973
839.369	24026
839.506	24353
839.643	24110
839.781	23893
839.918	23828
840.055	23817
840.193	23847
840.33	23832
840.467	23817
840.604	23859
840.742	23988
840.879	23794
841.016	23722
841.153	23767
841.29	23920
841.427	23897
841.564	23958
841.701	23756
841.838	23786
841.975	23604
842.112	23543
842.249	23471
842.385	23459
842.522	23684
842.659	23604
842.796	23558
842.933	23478
843.069	23463
843.206	23505
843.343	23699
843.479	23570
843.616	23646
843.752	23353
843.889	23296
844.025	23433
844.162	23353
844.298	23337
844.435	23421
844.571	23292
844.708	23364
844.844	23539
844.98	23455
845.117	23482
845.253	23299
845.389	23071
845.525	23288
845.661	23269
845.798	23086
845.934	23208
846.07	23079
846.206	23109
846.342	23124
846.478	23086
846.614	22831
846.75	22782
846.886	22797
847.022	22771
847.158	22771
847.294	22835
847.429	22748
847.565	22862
847.701	23140
847.837	22500
847.972	22664
848.108	22550
848.244	22630
848.379	22561
848.515	22402
848.65	22409
848.786	22440
848.921	22325
849.057	22546
849.192	22550
849.328	22424
849.463	22466
849.598	22341
849.734	22341
849.869	22276
850.004	22166
850.14	22249
850.275	22097
850.41	22150
850.545	22067
850.68	22128
850.815	22211
850.95	22116
851.085	22249
851.22	22413
851.355	22246
851.49	22200
851.625	22128
851.76	22219
851.895	22021
852.03	22124
852.165	22086
852.299	22166
852.434	22295
852.569	22341
852.703	22074
852.838	22253
852.973	22249
853.107	22325
853.242	22090
853.376	22029
853.511	21949
853.645	22006
853.78	21994
853.914	21869
854.048	21949
854.183	21846
854.317	21968
854.451	22078
854.585	22112
854.72	21975
854.854	22048
854.988	21915
855.122	21846
855.256	21880
855.39	21991
855.524	21972
855.658	21945
855.792	22021
855.926	22044
856.06	22162
856.194	22078
856.327	21850
856.461	21972
856.595	21934
856.729	21994
856.862	22116
856.996	22162
857.13	21949
857.263	22059
857.397	21991
857.53	21869
857.664	22074
857.797	22055
857.931	22162
858.064	21991
858.197	22082
858.331	21918
858.464	21941
858.597	21857
858.731	22021
858.864	21876
858.997	21968
859.13	21934
859.263	21979
859.396	22055
859.529	21903
859.662	21960
859.795	21922
859.928	21960
860.061	22040
860.194	22257
860.327	21907
860.46	22086
860.592	22090
860.725	22067
860.858	22139
860.99	21949
861.123	21956
861.256	21934
861.388	21953
861.521	22721
861.653	21873
861.786	21789
861.918	21682
862.05	21838
862.183	21842
862.315	21903
862.447	21953
862.58	21907
862.712	21690
862.844	21538
862.976	21831
863.108	21698
863.24	22044
863.372	21648
863.504	21720
863.636	21675
863.768	21675
863.9	21610
864.032	21637
864.164	21599
864.296	21743
864.428	21812
864.559	21633
864.691	21724
864.823	21739
864.954	21561
865.086	21713
865.217	21652
865.349	21500
865.48	21549
865.612	21686
865.743	21785
865.875	21618
866.006	21561
866.137	21564
866.269	21504
866.4	21530
866.531	21462
866.662	21515
866.793	21408
866.924	21515
867.055	21500
867.186	21466
867.317	21408
867.448	21363
867.579	21481
867.71	21397
867.841	21428
867.972	21538
868.103	21481
868.233	21408
868.364	21466
868.495	21542
868.625	21698
868.756	21739
868.886	21675
869.017	21682
869.147	21854
869.278	21854
869.408	21724
869.539	21709
869.669	21831
869.799	21781
869.929	21827
870.06	21766
870.19	22055
870.32	21915
870.45	22055
870.58	22097
870.71	22166
870.84	22166
870.97	22150
871.1	22124
871.23	22211
871.36	22306
871.489	22169
871.619	22363
871.749	22310
871.879	22382
872.008	22421
872.138	22337
872.267	22363
872.397	22215
872.526	22101
872.656	22090
872.785	22181
872.915	22306
873.044	22390
873.173	22375
873.303	22341
873.432	22352
873.561	22390
873.69	22360
873.819	22341
873.948	22459
874.077	22382
874.206	22299
874.335	22284
874.464	22478
874.593	22611
874.722	22535
874.851	22596
874.979	22531
875.108	22641
875.237	22459
875.365	22363
875.494	22428
875.623	22596
875.751	22462
875.88	22478
876.008	22683
876.136	22778
876.265	22919
876.393	22938
876.521	23098
876.65	22938
876.778	22900
876.906	22733
877.034	22911
877.162	22915
877.29	22896
877.418	22980
877.546	22858
877.674	22942
877.802	22892
877.93	22771
878.058	22889
878.185	22820
878.313	22809
878.441	22748
878.568	22877
878.696	22850
878.824	23075
878.951	22934
879.079	23124
879.206	23159
879.333	22999
879.461	22904
879.588	22987
879.715	23037
879.842	23006
879.97	23064
880.097	22755
880.224	22778
880.351	22748
880.478	22786
880.605	22645
880.732	22744
880.859	23006
880.986	22554
881.112	22672
881.239	22561
881.366	22390
881.493	22341
881.619	22284
881.746	22257
881.872	22249
881.999	22181
882.125	22192
882.252	22238
882.378	22337
882.505	22268
882.631	22188
882.757	21994
882.883	22090
883.01	21934
883.136	21873
883.262	21876
883.388	21797
883.514	21956
883.64	21934
883.766	21755
883.892	21800
884.018	21774
884.143	22013
884.269	21911
884.395	21633
884.52	21652
884.646	21663
884.772	21515
884.897	21549
885.023	21614
885.148	21667
885.274	21690
885.399	21694
885.524	21534
885.65	21595
885.775	21545
885.9	21583
886.025	21648
886.15	21675
886.275	21557
886.4	21534
886.525	21583
886.65	21583
886.775	21431
886.9	21698
887.025	21724
887.149	21660
887.274	21450
887.399	21492
887.523	21549
887.648	21348
887.773	21226
887.897	21420
888.021	21370
888.146	21332
888.27	21515
888.395	21458
888.519	21382
888.643	21523
888.767	21405
888.891	21203
889.015	21306
889.139	21279
889.263	21184
889.387	21340
889.511	21291
889.635	21313
889.759	21119
889.883	21222
890.006	21230
890.13	21142
890.254	21142
890.377	21116
890.501	20925
890.624	20906
890.748	20834
890.871	20819
890.995	20648
891.118	20720
891.241	20773
891.364	20796
891.488	20785
891.611	20792
891.734	20689
891.857	20815
891.98	20724
892.103	20663
892.226	20750
892.349	20686
892.471	20526
892.594	20594
892.717	20758
892.839	20587
892.962	20678
893.085	20796
893.207	20568
893.33	20492
893.452	20568
893.575	20659
893.697	20667
893.819	20830
893.941	20804
894.064	20857
894.186	20469
894.308	20522
894.43	20648
894.552	20758
894.674	20644
894.796	20412
894.918	20594
895.04	20636
895.161	20587
895.283	20621
895.405	20465
895.526	20629
895.648	20655
895.769	20594
895.891	20598
896.012	20636
896.134	20552
896.255	20705
896.376	20575
896.498	20663
896.619	20621
896.74	20537
896.861	20602
896.982	20948
897.103	20914
897.224	20834
897.345	20811
897.466	20644
897.587	20792
897.708	20918
897.828	20853
897.949	20838
898.07	20594
898.19	20739
898.311	20834
898.431	20788
898.552	20823
898.672	20849
898.792	20826
898.913	20880
899.033	20769
899.153	20716
899.273	20488
899.393	20499
899.513	20503
899.633	20590
899.753	20476
899.873	20400
899.993	20492
900.113	20385
900.232	20446
900.352	20412
900.472	20457
900.591	20290
900.711	20328
900.83	20282
900.95	20438
901.069	20355
901.189	20138
901.308	19982
901.427	19894
901.546	19868
901.665	20001
901.784	19765
901.904	19677
902.023	19635
902.141	19449
902.26	19487
902.379	19563
902.498	19339
902.617	19266
902.735	19419
902.854	19373
902.973	19335
903.091	19088
903.21	19023
903.328	19103
903.446	18920
903.565	18779
903.683	18844
903.801	18715
903.919	18776
904.038	18692
904.156	18642
904.274	18715
904.392	18578
904.51	18665
904.627	18506
904.745	18772
904.863	18585
904.981	18551
905.098	18235
905.216	18220
905.334	18243
905.451	18273
905.569	18285
905.686	18369
905.803	18262
905.921	18136
906.038	18232
906.155	18011
906.272	18026
906.389	17980
906.506	17878
906.623	17775
906.74	17843
906.857	17684
906.974	17771
907.091	17821
907.208	17999
907.324	17847
907.441	17771
907.557	17573
907.674	17532
907.79	17509
907.907	17421
908.023	17589
908.139	17539
908.256	17535
908.372	17341
908.488	17395
908.604	17273
908.72	17250
908.836	17220
908.952	17242
909.068	17303
909.184	17372
909.3	17193
909.415	17387
909.531	17258
909.647	17083
909.762	16934
909.878	16923
909.993	16999
910.108	17010
910.224	16809
910.339	16961
910.454	16733
910.57	16809
910.685	16573
910.8	17022
910.915	16934
911.03	16733
911.145	16596
911.259	16550
911.374	16504
911.489	16527
911.604	16417
911.718	16280
911.833	16325
911.947	16238
912.062	16097
912.176	16284
912.291	16276
912.405	16333
912.519	16382
912.633	16538
912.748	16363
912.862	16177
912.976	16169
913.09	15922
913.204	16055
913.318	16200
913.431	16215
913.545	16207
913.659	16150
913.772	16002
913.886	15903
914	15899
914.113	16002
914.226	15964
914.34	15888
914.453	15804
914.566	15964
914.68	15797
914.793	15694
914.906	15530
915.019	15466
915.132	15393
915.245	15412
915.358	15534
915.47	15515
915.583	15462
915.696	15545
915.809	15595
915.921	15538
916.034	15477
916.146	15359
916.259	15355
916.371	15355
916.483	15382
916.595	15340
916.708	15294
916.82	15348
916.932	15241
917.044	15287
917.156	15218
917.268	15127
917.38	15222
917.491	15116
917.603	15180
917.715	15211
917.826	15195
917.938	15127
918.049	14998
918.161	15112
918.272	15233
918.384	15127
918.495	15043
918.606	14967
918.717	14758
918.828	14857
918.939	14845
919.05	14815
919.161	14876
919.272	14697
919.383	14651
919.494	14967
919.604	15074
919.715	14937
919.826	14754
919.936	14811
920.047	14929
920.157	14861
920.267	15070
920.378	14830
920.488	14921
920.598	15055
920.708	15142
920.818	14990
920.928	14998
921.038	15119
921.148	15032
921.258	14823
921.368	14674
921.477	14514
921.587	14507
921.697	14366
921.806	14537
921.916	14263
922.025	14195
922.134	14225
922.244	14214
922.353	14172
922.462	14092
922.571	14001
922.68	13970
922.789	13795
922.898	13791
923.007	13761
923.116	13989
923.224	13811
923.333	13761
923.442	13662
923.55	13677
923.659	13662
923.767	13719
923.876	13616
923.984	13746
924.092	13514
924.201	13594
924.309	13548
924.417	13605
924.525	13487
924.633	13499
924.741	14180
924.849	13441
924.956	13381
925.064	13270
925.172	13118
925.279	13251
925.387	13304
925.494	13175
925.602	13384
925.709	13194
925.816	13114
925.924	13145
926.031	13297
926.138	13187
926.245	13213
926.352	13156
926.459	13152
926.566	13179
926.673	13088
926.779	12962
926.886	12989
926.993	12776
927.099	12776
927.206	12730
927.312	12760
927.419	12840
927.525	12703
927.631	12757
927.737	12616
927.843	12616
927.95	12521
928.056	12627
928.162	12642
928.267	12593
928.373	13137
928.479	12642
928.585	12445
928.69	12536
928.796	12585
928.901	12479
929.007	12300
929.112	12456
929.218	12410
929.323	12353
929.428	12353
929.533	12559
929.638	12334
929.743	12155
929.848	12289
929.953	12315
930.058	12190
930.163	12045
930.267	12003
930.372	12216
930.477	11893
930.581	12201
930.685	12019
930.79	11874
930.894	11980
930.998	11855
931.103	11939
931.207	11657
931.311	11577
931.415	11501
931.519	11292
931.623	11337
