Data from test_V78500241_1397.txt Node
Date: Fri Mar 25 15:19:35 CST 2022
User: usil
Spectrometer: V785-0024
Trigger mode: 0
Integration Time (sec): 4.000000E-1
Scans to average: 1
Nonlinearity correction enabled: false
Boxcar width: 0
Storing dark spectrum: false
XAxis mode: Wavelengths
Number of Pixels in Spectrum: 1024
>>>>>Begin Spectral Data<<<<<
801.071	28162
801.214	28147
801.356	27800
801.499	27701
801.641	27724
801.783	27759
801.926	27698
802.068	27705
802.211	27526
802.353	27424
802.496	27389
802.638	27294
802.78	27412
802.923	27245
803.065	27275
803.208	27237
803.35	27351
803.492	27443
803.635	27511
803.777	27458
803.919	27576
804.061	27926
804.204	27606
804.346	27553
804.488	27458
804.63	27542
804.773	27405
804.915	27591
805.057	27694
805.199	27583
805.341	27728
805.483	27819
805.626	27728
805.768	27420
805.91	27686
806.052	27709
806.194	27568
806.336	27956
806.478	27812
806.62	27705
806.762	27888
806.904	28025
807.046	28265
807.188	28135
807.33	28219
807.472	28185
807.614	28181
807.756	28169
807.898	28017
808.04	27941
808.182	27953
808.324	27953
808.465	27983
808.607	28261
808.749	28185
808.891	28500
809.033	28470
809.174	28405
809.316	28470
809.458	28268
809.6	28390
809.741	28531
809.883	28546
810.025	28550
810.166	28550
810.308	28542
810.45	28455
810.591	28554
810.733	28337
810.875	28200
811.016	28299
811.158	28295
811.299	28557
811.441	28580
811.582	28424
811.724	28462
811.865	28401
812.007	28363
812.148	28413
812.29	28485
812.431	28535
812.573	28809
812.714	28831
812.855	28850
812.997	28976
813.138	29117
813.279	29140
813.421	28892
813.562	28771
813.703	28740
813.845	28675
813.986	28371
814.127	28310
814.268	27895
814.41	28105
814.551	28025
814.692	28040
814.833	28063
814.974	28017
815.115	28078
815.256	27869
815.397	27975
815.539	27941
815.68	27998
815.821	27747
815.962	27854
816.103	27907
816.244	27618
816.385	27728
816.526	27614
816.666	27629
816.807	27367
816.948	27481
817.089	27526
817.23	27431
817.371	27310
817.512	27416
817.653	27355
817.793	27287
817.934	27416
818.075	27306
818.216	27283
818.356	27367
818.497	27104
818.638	27230
818.778	27180
818.919	27157
819.06	27195
819.2	27214
819.341	27420
819.481	27363
819.622	27458
819.762	27652
819.903	27736
820.043	27572
820.184	27485
820.324	27557
820.465	27469
820.605	27526
820.746	27439
820.886	27416
821.026	27408
821.167	27351
821.307	27435
821.447	27462
821.588	27344
821.728	26994
821.868	27005
822.008	26826
822.149	26876
822.289	26800
822.429	26602
822.569	26476
822.709	26503
822.849	26400
822.99	26396
823.13	26343
823.27	26271
823.41	26077
823.55	26005
823.69	26103
823.83	26161
823.97	26119
824.11	26069
824.25	25940
824.389	25913
824.529	26024
824.669	25909
824.809	26164
824.949	26096
825.089	26062
825.228	25966
825.368	25734
825.508	25951
825.648	25955
825.787	25940
825.927	25944
826.067	25807
826.206	25936
826.346	25951
826.485	25951
826.625	25761
826.765	25921
826.904	25852
827.044	25662
827.183	25620
827.323	25434
827.462	25597
827.601	25590
827.741	25605
827.88	25605
828.02	25548
828.159	25476
828.298	25594
828.437	25594
828.577	25472
828.716	25765
828.855	25365
828.994	25301
829.134	25270
829.273	25225
829.412	25179
829.551	25259
829.69	25289
829.829	25487
829.968	25457
830.107	25304
830.246	25282
830.385	25190
830.524	25209
830.663	25129
830.802	24863
830.941	24943
831.08	24833
831.219	24996
831.357	25038
831.496	25076
831.635	24863
831.774	24825
831.913	24840
832.051	24639
832.19	24787
832.329	24650
832.467	24544
832.606	24547
832.744	24536
832.883	24650
833.022	24525
833.16	24502
833.299	24661
833.437	24623
833.576	24525
833.714	24589
833.852	24578
833.991	24544
834.129	24707
834.267	24646
834.406	24521
834.544	24673
834.682	24585
834.821	24585
834.959	24772
835.097	24536
835.235	24696
835.373	24597
835.511	24540
835.65	24429
835.788	24475
835.926	24342
836.064	24194
836.202	24232
836.34	24445
836.478	24517
836.615	24509
836.753	24509
836.891	24467
837.029	24388
837.167	24350
837.305	24330
837.443	24372
837.58	24201
837.718	24330
837.856	24232
837.993	24232
838.131	24323
838.269	24072
838.406	24205
838.544	24076
838.681	23809
838.819	23950
838.956	23786
839.094	23714
839.231	23775
839.369	23821
839.506	24018
839.643	23942
839.781	23760
839.918	23596
840.055	23733
840.193	23490
840.33	23600
840.467	23611
840.604	23771
840.742	24022
840.879	23433
841.016	23653
841.153	23577
841.29	23699
841.427	23764
841.564	23566
841.701	23573
841.838	23760
841.975	23505
842.112	23566
842.249	23398
842.385	23345
842.522	23589
842.659	23501
842.796	23379
842.933	23406
843.069	23330
843.206	23341
843.343	23402
843.479	23277
843.616	23421
843.752	23216
843.889	23307
844.025	23212
844.162	23132
844.298	23330
844.435	23216
844.571	23117
844.708	23326
844.844	23341
844.98	23296
845.117	23429
845.253	23181
845.389	23121
845.525	23033
845.661	23022
845.798	22927
845.934	22934
846.07	22984
846.206	22953
846.342	23052
846.478	22862
846.614	22729
846.75	22554
846.886	22645
847.022	22679
847.158	22622
847.294	22656
847.429	22653
847.565	22710
847.701	22927
847.837	22367
847.972	22284
848.108	22417
848.244	22478
848.379	22265
848.515	22329
848.65	22181
848.786	22215
848.921	22261
849.057	22379
849.192	22485
849.328	22314
849.463	22284
849.598	22135
849.734	22238
849.869	22139
850.004	21915
850.14	22093
850.275	21960
850.41	21941
850.545	22078
850.68	21949
850.815	22025
850.95	22051
851.085	22188
851.22	22116
851.355	22059
851.49	21949
851.625	21945
851.76	21987
851.895	21861
852.03	21899
852.165	21934
852.299	22002
852.434	22074
852.569	22063
852.703	22036
852.838	21972
852.973	22185
853.107	22051
853.242	21991
853.376	21934
853.511	21823
853.645	21770
853.78	21888
853.914	21789
854.048	21751
854.183	21739
854.317	21808
854.451	21991
854.585	21736
854.72	21854
854.854	21835
854.988	21892
855.122	21827
855.256	21762
855.39	21694
855.524	21854
855.658	21892
855.792	21838
855.926	21865
856.06	21941
856.194	21873
856.327	21816
856.461	21759
856.595	21819
856.729	21812
856.862	21983
856.996	21918
857.13	21755
857.263	21968
857.397	21945
857.53	21747
857.664	21907
857.797	21846
857.931	21956
858.064	21953
858.197	21865
858.331	21823
858.464	21899
858.597	21618
858.731	21766
858.864	21739
858.997	21724
859.13	21835
859.263	21823
859.396	21895
859.529	21827
859.662	21759
859.795	21762
859.928	21842
860.061	21922
860.194	22017
860.327	21812
860.46	21732
860.592	21979
860.725	21915
860.858	21892
860.99	21846
861.123	21667
861.256	21743
861.388	21907
861.521	22462
861.653	21743
861.786	21538
861.918	21736
862.05	21686
862.183	21717
862.315	21743
862.447	21812
862.58	21766
862.712	21408
862.844	21408
862.976	21701
863.108	21652
863.24	21869
863.372	21401
863.504	21431
863.636	21572
863.768	21629
863.9	21587
864.032	21447
864.164	21576
864.296	21542
864.428	21698
864.559	21694
864.691	21663
864.823	21599
864.954	21515
865.086	21641
865.217	21435
865.349	21222
865.48	21439
865.612	21447
865.743	21633
865.875	21511
866.006	21363
866.137	21416
866.269	21420
866.4	21382
866.531	21393
866.662	21256
866.793	21279
866.924	21359
867.055	21344
867.186	21363
867.317	21351
867.448	21199
867.579	21294
867.71	21211
867.841	21199
867.972	21367
868.103	21420
868.233	21363
868.364	21199
868.495	21420
868.625	21542
868.756	21774
868.886	21488
869.017	21568
869.147	21717
869.278	21690
869.408	21583
869.539	21511
869.669	21644
869.799	21641
869.929	21698
870.06	21663
870.19	21819
870.32	21892
870.45	21774
870.58	21865
870.71	22078
870.84	22010
870.97	22036
871.1	22025
871.23	22105
871.36	22166
871.489	22006
871.619	22196
871.749	22112
871.879	22109
872.008	22398
872.138	22257
872.267	22139
872.397	21979
872.526	21937
872.656	22063
872.785	21964
872.915	22226
873.044	22287
873.173	22147
873.303	22242
873.432	22246
873.561	22166
873.69	22105
873.819	22082
873.948	22181
874.077	22246
874.206	22188
874.335	22082
874.464	22272
874.593	22417
874.722	22447
874.851	22459
874.979	22569
875.108	22470
875.237	22405
875.365	22398
875.494	22402
875.623	22527
875.751	22394
875.88	22440
876.008	22489
876.136	22584
876.265	22820
876.393	22942
876.521	22938
876.65	22831
876.778	22729
876.906	22748
877.034	22721
877.162	22672
877.29	22630
877.418	22706
877.546	22706
877.674	22786
877.802	22706
877.93	22767
878.058	22664
878.185	22550
878.313	22599
878.441	22660
878.568	22569
878.696	22748
878.824	22755
878.951	22793
879.079	22858
879.206	22991
879.333	22972
879.461	22843
879.588	22892
879.715	22938
879.842	23033
879.97	22831
880.097	22546
880.224	22687
880.351	22611
880.478	22500
880.605	22303
880.732	22588
880.859	22767
880.986	22500
881.112	22626
881.239	22470
881.366	22325
881.493	22150
881.619	22223
881.746	22162
881.872	22131
881.999	22185
882.125	22109
882.252	22207
882.378	22211
882.505	22303
882.631	22002
882.757	21785
882.883	21937
883.01	21800
883.136	21709
883.262	21774
883.388	21523
883.514	21869
883.64	21846
883.766	21800
883.892	21485
884.018	21553
884.143	21781
884.269	21895
884.395	21469
884.52	21462
884.646	21515
884.772	21367
884.897	21348
885.023	21515
885.148	21648
885.274	21591
885.399	21428
885.524	21481
885.65	21492
885.775	21473
885.9	21485
886.025	21576
886.15	21542
886.275	21431
886.4	21412
886.525	21515
886.65	21325
886.775	21412
886.9	21583
887.025	21690
887.149	21473
887.274	21199
887.399	21230
887.523	21336
887.648	21127
887.773	21150
887.897	21294
888.021	21291
888.146	21135
888.27	21367
888.395	21294
888.519	21256
888.643	21291
888.767	21233
888.891	21173
889.015	21070
889.139	20952
889.263	20986
889.387	21066
889.511	21226
889.635	21135
889.759	20986
889.883	21077
890.006	21036
890.13	21058
890.254	20910
890.377	20929
890.501	20807
890.624	20758
890.748	20823
890.871	20800
890.995	20682
891.118	20564
891.241	20587
891.364	20541
891.488	20712
891.611	20575
891.734	20594
891.857	20663
891.98	20648
892.103	20587
892.226	20488
892.349	20469
892.471	20438
892.594	20484
892.717	20465
892.839	20465
892.962	20537
893.085	20678
893.207	20427
893.33	20343
893.452	20480
893.575	20545
893.697	20556
893.819	20514
893.941	20648
894.064	20575
894.186	20473
894.308	20412
894.43	20556
894.552	20579
894.674	20480
894.796	20469
894.918	20488
895.04	20476
895.161	20522
895.283	20545
895.405	20385
895.526	20465
895.648	20518
895.769	20454
895.891	20552
896.012	20404
896.134	20518
896.255	20434
896.376	20488
896.498	20427
896.619	20469
896.74	20362
896.861	20560
896.982	20625
897.103	20979
897.224	20807
897.345	20720
897.466	20579
897.587	20636
897.708	20830
897.828	20743
897.949	20556
898.07	20480
898.19	20564
898.311	20845
898.431	20667
898.552	20552
898.672	20720
898.792	20811
898.913	20693
899.033	20590
899.153	20434
899.273	20351
899.393	20419
899.513	20511
899.633	20469
899.753	20450
899.873	20351
899.993	20366
900.113	20343
900.232	20298
900.352	20320
900.472	20301
900.591	20149
900.711	20134
900.83	20218
900.95	20240
901.069	20206
901.189	20001
901.308	19780
901.427	19761
901.546	19715
901.665	19803
901.784	19830
901.904	19632
902.023	19537
902.141	19350
902.26	19301
902.379	19430
902.498	19331
902.617	19350
902.735	19350
902.854	19289
902.973	19141
903.091	19038
903.21	18977
903.328	19000
903.446	18833
903.565	18772
903.683	18795
903.801	18650
903.919	18795
904.038	18631
904.156	18620
904.274	18696
904.392	18494
904.51	18551
904.627	18544
904.745	18391
904.863	18464
904.981	18304
905.098	18213
905.216	18254
905.334	18251
905.451	18155
905.569	18209
905.686	18273
905.803	18076
905.921	18026
906.038	18060
906.155	17969
906.272	18015
906.389	17859
906.506	17733
906.623	17649
906.74	17695
906.857	17661
906.974	17668
907.091	17805
907.208	17786
907.324	17783
907.441	17604
907.557	17299
907.674	17425
907.79	17337
907.907	17292
908.023	17516
908.139	17482
908.256	17322
908.372	17315
908.488	17292
908.604	17258
908.72	17067
908.836	17094
908.952	17102
909.068	17124
909.184	17235
909.3	17052
909.415	17098
909.531	17235
909.647	16908
909.762	16885
909.878	16812
909.993	16889
910.108	16911
910.224	16744
910.339	16927
910.454	16645
910.57	16660
910.685	16599
910.8	16850
910.915	16809
911.03	16694
911.145	16508
911.259	16363
911.374	16405
911.489	16447
911.604	16356
911.718	16120
911.833	16169
911.947	16173
912.062	16078
912.176	16188
912.291	16162
912.405	16143
912.519	16379
912.633	16386
912.748	16253
912.862	16139
912.976	15930
913.09	15888
913.204	15960
913.318	15918
913.431	16097
913.545	16124
913.659	16017
913.772	16078
913.886	15816
914	15751
914.113	15926
914.226	15892
914.34	15888
914.453	15816
914.566	15800
914.68	15682
914.793	15747
914.906	15466
915.019	15507
915.132	15302
915.245	15397
915.358	15351
915.47	15401
915.583	15412
915.696	15408
915.809	15572
915.921	15515
916.034	15287
916.146	15260
916.259	15268
916.371	15462
916.483	15313
916.595	15249
916.708	15222
916.82	15203
916.932	15180
917.044	15222
917.156	15157
917.268	14986
917.38	15077
917.491	15058
917.603	15112
917.715	15138
917.826	15184
917.938	14880
918.049	14876
918.161	14906
918.272	15184
918.384	15055
918.495	14929
918.606	14895
918.717	14845
918.828	14823
918.939	14853
919.05	14773
919.161	14667
919.272	14606
919.383	14655
919.494	14887
919.604	14986
919.715	14804
919.826	14731
919.936	14876
920.047	14868
920.157	14845
920.267	14925
920.378	14731
920.488	14750
920.598	14967
920.708	15062
920.818	14891
920.928	14880
921.038	14921
921.148	15013
921.258	14724
921.368	14617
921.477	14499
921.587	14522
921.697	14366
921.806	14434
921.916	14301
922.025	14164
922.134	14218
922.244	14073
922.353	14221
922.462	14035
922.571	13917
922.68	13776
922.789	13826
922.898	13780
923.007	13811
923.116	13883
923.224	13780
923.333	13757
923.442	13624
923.55	13563
923.659	13639
923.767	13761
923.876	13502
923.984	13567
924.092	13434
924.201	13514
924.309	13430
924.417	13495
924.525	13346
924.633	13457
924.741	14142
924.849	13335
924.956	13400
925.064	13168
925.172	13110
925.279	13084
925.387	13251
925.494	13232
925.602	13270
925.709	13240
925.816	13084
925.924	13160
926.031	13156
926.138	13091
926.245	13171
926.352	12985
926.459	13209
926.566	13168
926.673	13069
926.779	13004
926.886	12878
926.993	12779
927.099	12722
927.206	12681
927.312	12658
927.419	12798
927.525	12760
927.631	12665
927.737	12559
927.843	12654
927.95	12418
928.056	12456
928.162	12582
928.267	12650
928.373	13168
928.479	12585
928.585	12407
928.69	12498
928.796	12544
928.901	12357
929.007	12216
929.112	12330
929.218	12342
929.323	12315
929.428	12308
929.533	12376
929.638	12235
929.743	12220
929.848	12266
929.953	12209
930.058	12049
930.163	11965
930.267	11942
930.372	12079
930.477	11904
930.581	12117
930.685	12015
930.79	11920
930.894	11843
930.998	11840
931.103	11950
931.207	11596
931.311	11551
931.415	11368
931.519	11181
931.623	11132
