Data from test_V78500241_3588.txt Node
Date: Fri Mar 25 15:34:50 CST 2022
User: usil
Spectrometer: V785-0024
Trigger mode: 0
Integration Time (sec): 4.000000E-1
Scans to average: 1
Nonlinearity correction enabled: false
Boxcar width: 0
Storing dark spectrum: false
XAxis mode: Wavelengths
Number of Pixels in Spectrum: 1024
>>>>>Begin Spectral Data<<<<<
801.071	27408
801.214	27272
801.356	26990
801.499	27036
801.641	26990
801.783	26754
801.926	26834
802.068	26918
802.211	26834
802.353	26933
802.496	26648
802.638	26575
802.78	26484
802.923	26446
803.065	26423
803.208	26606
803.35	26625
803.492	26648
803.635	26804
803.777	26568
803.919	26758
804.061	26967
804.204	26693
804.346	26640
804.488	26476
804.63	26689
804.773	26564
804.915	26750
805.057	26724
805.199	26625
805.341	26765
805.483	26921
805.626	26853
805.768	26712
805.91	26899
806.052	26861
806.194	26693
806.336	27074
806.478	26708
806.62	26785
806.762	26857
806.904	27093
807.046	27310
807.188	27260
807.33	27180
807.472	27245
807.614	27108
807.756	27108
807.898	27138
808.04	26990
808.182	27096
808.324	27028
808.465	27096
808.607	27195
808.749	27500
808.891	27408
809.033	27538
809.174	27477
809.316	27332
809.458	27363
809.6	27370
809.741	27492
809.883	27420
810.025	27732
810.166	27709
810.308	27568
810.45	27625
810.591	27466
810.733	27363
810.875	27218
811.016	27435
811.158	27332
811.299	27389
811.441	27595
811.582	27591
811.724	27416
811.865	27386
812.007	27367
812.148	27458
812.29	27443
812.431	27454
812.573	27701
812.714	27812
812.855	27854
812.997	27991
813.138	28013
813.279	28109
813.421	27994
813.562	28025
813.703	27808
813.845	27614
813.986	27294
814.127	27256
814.268	27047
814.41	27017
814.551	26979
814.692	27131
814.833	27070
814.974	26899
815.115	27017
815.256	26880
815.397	26963
815.539	26883
815.68	26830
815.821	26773
815.962	26918
816.103	26902
816.244	26678
816.385	26686
816.526	26503
816.666	26324
816.807	26218
816.948	26343
817.089	26442
817.23	26282
817.371	26358
817.512	26233
817.653	26263
817.793	26180
817.934	26301
818.075	26317
818.216	26415
818.356	26347
818.497	26221
818.638	26031
818.778	26050
818.919	26115
819.06	26039
819.2	26233
819.341	26377
819.481	26358
819.622	26488
819.762	26644
819.903	26503
820.043	26438
820.184	26465
820.324	26423
820.465	26511
820.605	26442
820.746	26457
820.886	26202
821.026	26377
821.167	26389
821.307	26461
821.447	26431
821.588	26294
821.728	26301
821.868	25963
822.008	25795
822.149	25769
822.289	25818
822.429	25491
822.569	25578
822.709	25533
822.849	25411
822.99	25346
823.13	25308
823.27	25171
823.41	25297
823.55	25050
823.69	25095
823.83	25088
823.97	24989
824.11	24920
824.25	24954
824.389	24951
824.529	24913
824.669	24958
824.809	25084
824.949	25008
825.089	25076
825.228	24951
825.368	24817
825.508	24703
825.648	24829
825.787	24772
825.927	24890
826.067	24730
826.206	24844
826.346	24901
826.485	24897
826.625	24848
826.765	24951
826.904	24795
827.044	24513
827.183	24730
827.323	24494
827.462	24642
827.601	24623
827.741	24612
827.88	24585
828.02	24517
828.159	24517
828.298	24494
828.437	24612
828.577	24403
828.716	24517
828.855	24528
828.994	24254
829.134	24182
829.273	24350
829.412	24060
829.551	24129
829.69	24209
829.829	24319
829.968	24273
830.107	24285
830.246	24186
830.385	24391
830.524	24167
830.663	24076
830.802	23950
830.941	23798
831.08	23840
831.219	23779
831.357	23958
831.496	24064
831.635	23802
831.774	23809
831.913	23874
832.051	23619
832.19	23707
832.329	23748
832.467	23505
832.606	23554
832.744	23349
832.883	23383
833.022	23501
833.16	23501
833.299	23547
833.437	23570
833.576	23562
833.714	23653
833.852	23608
833.991	23619
834.129	23547
834.267	23840
834.406	23718
834.544	23615
834.682	23680
834.821	23531
834.959	23745
835.097	23627
835.235	23729
835.373	23642
835.511	23634
835.65	23471
835.788	23589
835.926	23376
836.064	23307
836.202	23307
836.34	23349
836.478	23581
836.615	23341
836.753	23387
836.891	23444
837.029	23505
837.167	23433
837.305	23459
837.443	23410
837.58	23261
837.718	23345
837.856	23356
837.993	23307
838.131	23425
838.269	23307
838.406	23315
838.544	23181
838.681	22942
838.819	22911
838.956	22744
839.094	22733
839.231	22923
839.369	22946
839.506	23208
839.643	22991
839.781	22782
839.918	22668
840.055	22797
840.193	22858
840.33	22774
840.467	22653
840.604	22725
840.742	23071
840.879	22691
841.016	22672
841.153	22535
841.29	22843
841.427	22767
841.564	22706
841.701	22698
841.838	22599
841.975	22557
842.112	22668
842.249	22512
842.385	22500
842.522	22774
842.659	22462
842.796	22611
842.933	22519
843.069	22478
843.206	22432
843.343	22645
843.479	22523
843.616	22405
843.752	22375
843.889	22265
844.025	22333
844.162	22295
844.298	22333
844.435	22295
844.571	22230
844.708	22284
844.844	22470
844.98	22360
845.117	22322
845.253	22306
845.389	22185
845.525	22120
845.661	22093
845.798	22029
845.934	22021
846.07	21987
846.206	22013
846.342	22063
846.478	22109
846.614	21922
846.75	21679
846.886	21797
847.022	21717
847.158	21781
847.294	21819
847.429	21660
847.565	21724
847.701	22006
847.837	21428
847.972	21439
848.108	21568
848.244	21492
848.379	21367
848.515	21321
848.65	21317
848.786	21256
848.921	21310
849.057	21325
849.192	21374
849.328	21526
849.463	21374
849.598	21321
849.734	21241
849.869	21245
850.004	21203
850.14	21192
850.275	21165
850.41	20960
850.545	20918
850.68	21020
850.815	21051
850.95	21100
851.085	21233
851.22	21116
851.355	21161
851.49	21062
851.625	20941
851.76	21055
851.895	20960
852.03	20960
852.165	21154
852.299	21176
852.434	21123
852.569	21161
852.703	21047
852.838	21112
852.973	21237
853.107	21313
853.242	21028
853.376	21009
853.511	20769
853.645	20933
853.78	21051
853.914	20891
854.048	20868
854.183	20864
854.317	20861
854.451	21173
854.585	20914
854.72	20921
854.854	21104
854.988	20845
855.122	20861
855.256	20735
855.39	20838
855.524	20971
855.658	20872
855.792	20785
855.926	20956
856.06	20971
856.194	20994
856.327	20842
856.461	20842
856.595	20842
856.729	20902
856.862	20956
856.996	20918
857.13	20937
857.263	21062
857.397	21062
857.53	20819
857.664	20906
857.797	20899
857.931	20933
858.064	20804
858.197	20929
858.331	20868
858.464	20872
858.597	20777
858.731	20929
858.864	20921
858.997	20864
859.13	21013
859.263	20868
859.396	21001
859.529	20845
859.662	20804
859.795	20887
859.928	20899
860.061	21032
860.194	21176
860.327	21028
860.46	20811
860.592	21017
860.725	20971
860.858	21001
860.99	20868
861.123	20819
861.256	20834
861.388	20868
861.521	21709
861.653	20735
861.786	20750
861.918	20773
862.05	20735
862.183	20823
862.315	20849
862.447	20891
862.58	20807
862.712	20682
862.844	20587
862.976	20967
863.108	20617
863.24	20895
863.372	20594
863.504	20659
863.636	20579
863.768	20667
863.9	20560
864.032	20549
864.164	20568
864.296	20792
864.428	20705
864.559	20636
864.691	20686
864.823	20777
864.954	20549
865.086	20602
865.217	20594
865.349	20507
865.48	20522
865.612	20629
865.743	20644
865.875	20545
866.006	20412
866.137	20609
866.269	20545
866.4	20541
866.531	20476
866.662	20480
866.793	20404
866.924	20533
867.055	20545
867.186	20415
867.317	20419
867.448	20415
867.579	20423
867.71	20427
867.841	20423
867.972	20495
868.103	20446
868.233	20469
868.364	20427
868.495	20362
868.625	20636
868.756	20876
868.886	20629
869.017	20701
869.147	20815
869.278	20960
869.408	20667
869.539	20583
869.669	20769
869.799	20743
869.929	20921
870.06	20845
870.19	21074
870.32	21066
870.45	21100
870.58	21051
870.71	21180
870.84	21024
870.97	21169
871.1	21112
871.23	21272
871.36	21412
871.489	21218
871.619	21249
871.749	21077
871.879	21348
872.008	21389
872.138	21294
872.267	21321
872.397	21176
872.526	21138
872.656	21157
872.785	21058
872.915	21336
873.044	21435
873.173	21226
873.303	21424
873.432	21401
873.561	21294
873.69	21241
873.819	21374
873.948	21340
874.077	21298
874.206	21340
874.335	21302
874.464	21420
874.593	21568
874.722	21477
874.851	21538
874.979	21545
875.108	21530
875.237	21572
875.365	21431
875.494	21469
875.623	21629
875.751	21583
875.88	21625
876.008	21667
876.136	21663
876.265	22067
876.393	22162
876.521	22048
876.65	21972
876.778	21972
876.906	21895
877.034	21857
877.162	21983
877.29	21857
877.418	21930
877.546	21968
877.674	21930
877.802	21835
877.93	22040
878.058	21911
878.185	21808
878.313	21880
878.441	21903
878.568	21724
878.696	21816
878.824	21956
878.951	22051
879.079	22131
879.206	22135
879.333	22002
879.461	21998
879.588	22097
879.715	22032
879.842	22226
879.97	21949
880.097	21675
880.224	21846
880.351	21755
880.478	21880
880.605	21648
880.732	21873
880.859	21918
880.986	21755
881.112	21876
881.239	21534
881.366	21412
881.493	21447
881.619	21287
881.746	21291
881.872	21325
881.999	21310
882.125	21241
882.252	21378
882.378	21230
882.505	21317
882.631	21230
882.757	21058
882.883	21272
883.01	21036
883.136	21024
883.262	20857
883.388	20941
883.514	21066
883.64	21108
883.766	21058
883.892	20910
884.018	20921
884.143	21051
884.269	21074
884.395	20769
884.52	20708
884.646	20663
884.772	20651
884.897	20549
885.023	20632
885.148	20807
885.274	20880
885.399	20773
885.524	20731
885.65	20785
885.775	20823
885.9	20674
886.025	20716
886.15	20758
886.275	20632
886.4	20632
886.525	20556
886.65	20590
886.775	20598
886.9	20735
887.025	20849
887.149	20682
887.274	20632
887.399	20461
887.523	20499
887.648	20404
887.773	20351
887.897	20636
888.021	20358
888.146	20389
888.27	20488
888.395	20461
888.519	20625
888.643	20579
888.767	20564
888.891	20301
889.015	20294
889.139	20400
889.263	20122
889.387	20366
889.511	20434
889.635	20423
889.759	20263
889.883	20168
890.006	20252
890.13	20374
890.254	20282
890.377	20259
890.501	20062
890.624	20001
890.748	20058
890.871	19970
890.995	19685
891.118	19868
891.241	19868
891.364	19849
891.488	19997
891.611	19921
891.734	19799
891.857	19868
891.98	19742
892.103	19826
892.226	19875
892.349	19738
892.471	19750
892.594	19772
892.717	19772
892.839	19704
892.962	19655
893.085	19727
893.207	19791
893.33	19639
893.452	19677
893.575	19803
893.697	19712
893.819	19780
893.941	19890
894.064	19902
894.186	19696
894.308	19700
894.43	19830
894.552	19833
894.674	19788
894.796	19689
894.918	19670
895.04	19685
895.161	19887
895.283	19837
895.405	19704
895.526	19780
895.648	19742
895.769	19727
895.891	19841
896.012	19841
896.134	19883
896.255	19791
896.376	19830
896.498	19761
896.619	19841
896.74	19685
896.861	19818
896.982	20024
897.103	20054
897.224	19978
897.345	20020
897.466	19932
897.587	19951
897.708	20180
897.828	19944
897.949	19986
898.07	19871
898.19	19890
898.311	19947
898.431	19974
898.552	20069
898.672	20016
898.792	20062
898.913	19894
899.033	19803
899.153	19742
899.273	19594
899.393	19731
899.513	19837
899.633	19765
899.753	19788
899.873	19677
899.993	19681
900.113	19658
900.232	19845
900.352	19658
900.472	19613
900.591	19392
900.711	19499
900.83	19438
900.95	19605
901.069	19594
901.189	19289
901.308	19293
901.427	19126
901.546	19072
901.665	19213
901.784	19175
901.904	18901
902.023	18935
902.141	18741
902.26	18559
902.379	18734
902.498	18608
902.617	18574
902.735	18688
902.854	18574
902.973	18525
903.091	18296
903.21	18342
903.328	18292
903.446	18239
903.565	18163
903.683	18106
903.801	17961
903.919	18049
904.038	18019
904.156	17874
904.274	17942
904.392	17897
904.51	17687
904.627	17859
904.745	17878
904.863	17889
904.981	17665
905.098	17532
905.216	17581
905.334	17611
905.451	17589
905.569	17611
905.686	17573
905.803	17535
905.921	17421
906.038	17349
906.155	17315
906.272	17208
906.389	17280
906.506	17060
906.623	16987
906.74	17086
906.857	16949
906.974	16911
907.091	17136
907.208	17124
907.324	17064
907.441	17006
907.557	16797
907.674	16885
907.79	16710
907.907	16767
908.023	16854
908.139	16736
908.256	16698
908.372	16702
908.488	16675
908.604	16558
908.72	16580
908.836	16512
908.952	16512
909.068	16580
909.184	16577
909.3	16424
909.415	16599
909.531	16497
909.647	16295
909.762	16276
909.878	16139
909.993	16234
910.108	16207
910.224	16101
910.339	16230
910.454	16051
910.57	16158
910.685	16086
910.8	16268
910.915	16097
911.03	15994
911.145	15865
911.259	15861
911.374	15857
911.489	15781
911.604	15686
911.718	15549
911.833	15542
911.947	15481
912.062	15412
912.176	15587
912.291	15698
912.405	15633
912.519	15724
912.633	15789
912.748	15587
912.862	15549
912.976	15435
913.09	15294
913.204	15393
913.318	15420
913.431	15496
913.545	15473
913.659	15557
913.772	15348
913.886	15237
914	15264
914.113	15272
914.226	15378
914.34	15272
914.453	15081
914.566	15256
914.68	15077
914.793	15093
914.906	14891
915.019	14845
915.132	14807
915.245	14724
915.358	14899
915.47	14765
915.583	14842
915.696	14853
915.809	14906
915.921	14967
916.034	14777
916.146	14750
916.259	14701
916.371	14769
916.483	14765
916.595	14705
916.708	14727
916.82	14602
916.932	14682
917.044	14602
917.156	14556
917.268	14533
917.38	14473
917.491	14571
917.603	14484
917.715	14549
917.826	14549
917.938	14419
918.049	14313
918.161	14381
918.272	14537
918.384	14492
918.495	14423
918.606	14244
918.717	14218
918.828	14278
918.939	14278
919.05	14123
919.161	14187
919.272	14062
919.383	14058
919.494	14237
919.604	14446
919.715	14290
919.826	14145
919.936	14229
920.047	14374
920.157	14237
920.267	14412
920.378	14229
920.488	14187
920.598	14358
920.708	14526
920.818	14377
920.928	14309
921.038	14594
921.148	14484
921.258	14180
921.368	14119
921.477	13887
921.587	13970
921.697	13898
921.806	13944
921.916	13883
922.025	13662
922.134	13601
922.244	13571
922.353	13624
922.462	13544
922.571	13441
922.68	13217
922.789	13255
922.898	13304
923.007	13247
923.116	13251
923.224	13282
923.333	13236
923.442	13156
923.55	13000
923.659	13076
923.767	13141
923.876	13046
923.984	13118
924.092	12920
924.201	13053
924.309	13023
924.417	13019
924.525	12894
924.633	12958
924.741	13833
924.849	12677
924.956	12882
925.064	12741
925.172	12646
925.279	12646
925.387	12783
925.494	12662
925.602	12821
925.709	12764
925.816	12551
925.924	12639
926.031	12726
926.138	12582
926.245	12665
926.352	12532
926.459	12738
926.566	12570
926.673	12536
926.779	12502
926.886	12426
926.993	12311
927.099	12277
927.206	12213
927.312	12228
927.419	12346
927.525	12201
927.631	12350
927.737	12148
927.843	12148
927.95	12011
928.056	12098
928.162	12121
928.267	12186
928.373	12612
928.479	12106
928.585	11931
928.69	11980
928.796	12034
928.901	11999
929.007	11775
929.112	11977
929.218	11878
929.323	11748
929.428	11805
929.533	11958
929.638	11680
929.743	11779
929.848	11779
929.953	11718
930.058	11630
930.163	11482
930.267	11570
930.372	11718
930.477	11528
930.581	11646
930.685	11570
930.79	11402
930.894	11391
930.998	11383
931.103	11524
931.207	11132
931.311	11086
931.415	10995
931.519	10801
931.623	10752
