Data from test_V78500241_3028.txt Node
Date: Fri Mar 25 15:30:56 CST 2022
User: usil
Spectrometer: V785-0024
Trigger mode: 0
Integration Time (sec): 4.000000E-1
Scans to average: 1
Nonlinearity correction enabled: false
Boxcar width: 0
Storing dark spectrum: false
XAxis mode: Wavelengths
Number of Pixels in Spectrum: 1024
>>>>>Begin Spectral Data<<<<<
801.071	27332
801.214	27157
801.356	27043
801.499	26960
801.641	26788
801.783	26902
801.926	26781
802.068	26727
802.211	26697
802.353	26648
802.496	26549
802.638	26499
802.78	26324
802.923	26320
803.065	26259
803.208	26404
803.35	26389
803.492	26415
803.635	26632
803.777	26533
803.919	26453
804.061	27005
804.204	26682
804.346	26556
804.488	26412
804.63	26499
804.773	26457
804.915	26693
805.057	26651
805.199	26511
805.341	26632
805.483	26697
805.626	26701
805.768	26564
805.91	26705
806.052	26663
806.194	26385
806.336	26731
806.478	26609
806.62	26617
806.762	26712
806.904	26785
807.046	27108
807.188	27112
807.33	27138
807.472	27017
807.614	26883
807.756	27001
807.898	26830
808.04	26914
808.182	26834
808.324	26910
808.465	26937
808.607	26960
808.749	27252
808.891	27344
809.033	27416
809.174	27252
809.316	27066
809.458	27249
809.6	27268
809.741	27386
809.883	27420
810.025	27462
810.166	27485
810.308	27515
810.45	27519
810.591	27447
810.733	27226
810.875	27218
811.016	27161
811.158	27096
811.299	27344
811.441	27256
811.582	27488
811.724	27146
811.865	27241
812.007	27203
812.148	27279
812.29	27203
812.431	27431
812.573	27561
812.714	27549
812.855	27694
812.997	27736
813.138	27960
813.279	27880
813.421	27713
813.562	27663
813.703	27568
813.845	27397
813.986	27142
814.127	27013
814.268	26800
814.41	26944
814.551	26861
814.692	26804
814.833	26693
814.974	26857
815.115	26944
815.256	26720
815.397	26754
815.539	26777
815.68	26640
815.821	26503
815.962	26815
816.103	26511
816.244	26594
816.385	26419
816.526	26446
816.666	26389
816.807	26130
816.948	26214
817.089	26176
817.23	26103
817.371	26145
817.512	26062
817.653	26043
817.793	25955
817.934	26062
818.075	26142
818.216	26218
818.356	26054
818.497	25974
818.638	25921
818.778	25795
818.919	25803
819.06	25871
819.2	26024
819.341	26225
819.481	26153
819.622	26298
819.762	26446
819.903	26381
820.043	26183
820.184	26172
820.324	26161
820.465	26366
820.605	26404
820.746	26301
820.886	26046
821.026	26176
821.167	26157
821.307	26218
821.447	26046
821.588	25947
821.728	25963
821.868	25696
822.008	25670
822.149	25476
822.289	25529
822.429	25533
822.569	25099
822.709	25369
822.849	25122
822.99	25061
823.13	25053
823.27	25065
823.41	24913
823.55	24741
823.69	24875
823.83	24894
823.97	24833
824.11	24585
824.25	24741
824.389	24768
824.529	24757
824.669	24798
824.809	24688
824.949	24814
825.089	24798
825.228	24722
825.368	24593
825.508	24517
825.648	24525
825.787	24544
825.927	24620
826.067	24639
826.206	24563
826.346	24688
826.485	24677
826.625	24547
826.765	24623
826.904	24582
827.044	24365
827.183	24372
827.323	24285
827.462	24338
827.601	24319
827.741	24148
827.88	24494
828.02	24205
828.159	24281
828.298	24369
828.437	24414
828.577	24266
828.716	24388
828.855	24224
828.994	24011
829.134	23916
829.273	24038
829.412	23965
829.551	23996
829.69	23939
829.829	23980
829.968	24053
830.107	24136
830.246	23980
830.385	23927
830.524	23885
830.663	23699
830.802	23775
830.941	23570
831.08	23471
831.219	23691
831.357	23604
831.496	23764
831.635	23745
831.774	23551
831.913	23410
832.051	23364
832.19	23345
832.329	23406
832.467	23273
832.606	23269
832.744	23288
832.883	23181
833.022	23322
833.16	23239
833.299	23250
833.437	23288
833.576	23334
833.714	23322
833.852	23402
833.991	23402
834.129	23421
834.267	23364
834.406	23322
834.544	23265
834.682	23307
834.821	23277
834.959	23455
835.097	23242
835.235	23307
835.373	23223
835.511	23288
835.65	23174
835.788	23140
835.926	23143
836.064	22984
836.202	22991
836.34	23231
836.478	23299
836.615	23128
836.753	23121
836.891	23299
837.029	23204
837.167	23166
837.305	23075
837.443	23037
837.58	22946
837.718	23048
837.856	23124
837.993	22866
838.131	22999
838.269	22923
838.406	22915
838.544	22713
838.681	22748
838.819	22626
838.956	22432
839.094	22531
839.231	22542
839.369	22710
839.506	22900
839.643	22611
839.781	22542
839.918	22428
840.055	22394
840.193	22474
840.33	22440
840.467	22421
840.604	22417
840.742	22733
840.879	22394
841.016	22390
841.153	22424
841.29	22462
841.427	22306
841.564	22447
841.701	22478
841.838	22386
841.975	22280
842.112	22417
842.249	22322
842.385	22086
842.522	22390
842.659	22284
842.796	22169
842.933	22139
843.069	22124
843.206	22173
843.343	22291
843.479	22207
843.616	22048
843.752	21873
843.889	21895
844.025	22090
844.162	21953
844.298	22105
844.435	21960
844.571	21827
844.708	21994
844.844	22200
844.98	21945
845.117	22063
845.253	21880
845.389	21755
845.525	21827
845.661	21793
845.798	21690
845.934	21629
846.07	21633
846.206	21675
846.342	21785
846.478	21717
846.614	21420
846.75	21424
846.886	21412
847.022	21496
847.158	21488
847.294	21492
847.429	21492
847.565	21420
847.701	21580
847.837	21188
847.972	21233
848.108	21230
848.244	21154
848.379	21066
848.515	20960
848.65	20941
848.786	21043
848.921	20994
849.057	21116
849.192	21123
849.328	21028
849.463	21077
849.598	20944
849.734	20956
849.869	20796
850.004	20735
850.14	20944
850.275	20830
850.41	20735
850.545	20708
850.68	20731
850.815	20788
850.95	20868
851.085	20883
851.22	20830
851.355	20815
851.49	20587
851.625	20727
851.76	20792
851.895	20800
852.03	20815
852.165	20686
852.299	20788
852.434	20960
852.569	20769
852.703	20731
852.838	20834
852.973	20826
853.107	20918
853.242	20651
853.376	20530
853.511	20484
853.645	20511
853.78	20758
853.914	20579
854.048	20541
854.183	20556
854.317	20625
854.451	20800
854.585	20598
854.72	20613
854.854	20674
854.988	20606
855.122	20590
855.256	20400
855.39	20701
855.524	20754
855.658	20560
855.792	20579
855.926	20727
856.06	20530
856.194	20621
856.327	20526
856.461	20492
856.595	20522
856.729	20442
856.862	20663
856.996	20568
857.13	20556
857.263	20636
857.397	20754
857.53	20564
857.664	20708
857.797	20708
857.931	20659
858.064	20617
858.197	20739
858.331	20594
858.464	20606
858.597	20530
858.731	20655
858.864	20663
858.997	20507
859.13	20689
859.263	20602
859.396	20667
859.529	20636
859.662	20541
859.795	20552
859.928	20564
860.061	20697
860.194	20796
860.327	20758
860.46	20533
860.592	20750
860.725	20724
860.858	20606
860.99	20655
861.123	20545
861.256	20530
861.388	20564
861.521	21173
861.653	20514
861.786	20419
861.918	20374
862.05	20587
862.183	20617
862.315	20537
862.447	20598
862.58	20583
862.712	20271
862.844	20271
862.976	20473
863.108	20450
863.24	20785
863.372	20248
863.504	20164
863.636	20332
863.768	20259
863.9	20309
864.032	20237
864.164	20301
864.296	20263
864.428	20461
864.559	20366
864.691	20415
864.823	20336
864.954	20275
865.086	20320
865.217	20278
865.349	20122
865.48	20233
865.612	20343
865.743	20358
865.875	20244
866.006	20149
866.137	20142
866.269	20187
866.4	20210
866.531	20157
866.662	20092
866.793	20229
866.924	20168
867.055	20172
867.186	20259
867.317	20084
867.448	20172
867.579	20031
867.71	20126
867.841	20107
867.972	20202
868.103	20153
868.233	20153
868.364	20202
868.495	20218
868.625	20473
868.756	20457
868.886	20191
869.017	20339
869.147	20412
869.278	20552
869.408	20336
869.539	20469
869.669	20545
869.799	20442
869.929	20606
870.06	20427
870.19	20689
870.32	20663
870.45	20682
870.58	20864
870.71	20918
870.84	20792
870.97	20883
871.1	20777
871.23	20929
871.36	21009
871.489	20994
871.619	20952
871.749	21055
871.879	21165
872.008	21154
872.138	20963
872.267	21028
872.397	20921
872.526	20777
872.656	20796
872.785	20937
872.915	21119
873.044	21180
873.173	20925
873.303	21135
873.432	21131
873.561	21131
873.69	20979
873.819	20960
873.948	21119
874.077	21036
874.206	20948
874.335	21020
874.464	21108
874.593	21192
874.722	21237
874.851	21344
874.979	21184
875.108	21393
875.237	21222
875.365	21173
875.494	21176
875.623	21336
875.751	21203
875.88	21325
876.008	21416
876.136	21507
876.265	21610
876.393	21869
876.521	21778
876.65	21759
876.778	21682
876.906	21507
877.034	21549
877.162	21545
877.29	21526
877.418	21557
877.546	21682
877.674	21481
877.802	21614
877.93	21595
878.058	21644
878.185	21534
878.313	21618
878.441	21599
878.568	21454
878.696	21580
878.824	21713
878.951	21717
879.079	21709
879.206	21987
879.333	21751
879.461	21561
879.588	21717
879.715	21770
879.842	21804
879.97	21835
880.097	21382
880.224	21458
880.351	21526
880.478	21557
880.605	21367
880.732	21401
880.859	21629
880.986	21443
881.112	21481
881.239	21268
881.366	21138
881.493	21138
881.619	20956
881.746	21119
881.872	20994
881.999	20971
882.125	21066
882.252	20933
882.378	20914
882.505	21081
882.631	20914
882.757	20834
882.883	20792
883.01	20762
883.136	20552
883.262	20716
883.388	20526
883.514	20678
883.64	20735
883.766	20625
883.892	20465
884.018	20545
884.143	20670
884.269	20712
884.395	20518
884.52	20377
884.646	20484
884.772	20244
884.897	20282
885.023	20351
885.148	20533
885.274	20537
885.399	20514
885.524	20461
885.65	20408
885.775	20495
885.9	20240
886.025	20514
886.15	20480
886.275	20271
886.4	20237
886.525	20286
886.65	20256
886.775	20377
886.9	20431
887.025	20636
887.149	20305
887.274	20199
887.399	20187
887.523	20145
887.648	20122
887.773	20096
887.897	20320
888.021	20145
888.146	20065
888.27	20153
888.395	20317
888.519	20240
888.643	20138
888.767	20107
888.891	20195
889.015	19860
889.139	20027
889.263	20001
889.387	20096
889.511	20259
889.635	20062
889.759	19970
889.883	19913
890.006	20020
890.13	20031
890.254	19818
890.377	19856
890.501	19788
890.624	19727
890.748	19677
890.871	19700
890.995	19578
891.118	19430
891.241	19639
891.364	19491
891.488	19693
891.611	19582
891.734	19597
891.857	19491
891.98	19605
892.103	19563
892.226	19502
892.349	19407
892.471	19362
892.594	19426
892.717	19540
892.839	19434
892.962	19441
893.085	19559
893.207	19403
893.33	19225
893.452	19350
893.575	19620
893.697	19518
893.819	19643
893.941	19670
894.064	19578
894.186	19453
894.308	19441
894.43	19559
894.552	19616
894.674	19597
894.796	19502
894.918	19537
895.04	19514
895.161	19502
895.283	19609
895.405	19266
895.526	19499
895.648	19582
895.769	19472
895.891	19487
896.012	19563
896.134	19521
896.255	19472
896.376	19407
896.498	19483
896.619	19578
896.74	19480
896.861	19575
896.982	19734
897.103	19906
897.224	19750
897.345	19788
897.466	19597
897.587	19833
897.708	19814
897.828	19681
897.949	19727
898.07	19540
898.19	19571
898.311	19833
898.431	19647
898.552	19537
898.672	19681
898.792	19715
898.913	19613
899.033	19738
899.153	19365
899.273	19407
899.393	19434
899.513	19502
899.633	19499
899.753	19495
899.873	19381
899.993	19460
900.113	19392
900.232	19533
900.352	19411
900.472	19259
900.591	19324
900.711	19213
900.83	19308
900.95	19301
901.069	19324
901.189	19145
901.308	18878
901.427	18779
901.546	18916
901.665	18897
901.784	18753
901.904	18623
902.023	18601
902.141	18574
902.26	18460
902.379	18498
902.498	18334
902.617	18258
902.735	18471
902.854	18395
902.973	18330
903.091	18072
903.21	18106
903.328	18148
903.446	17958
903.565	17863
903.683	17874
903.801	17722
903.919	17882
904.038	17870
904.156	17672
904.274	17733
904.392	17547
904.51	17646
904.627	17619
904.745	17695
904.863	17680
904.981	17448
905.098	17322
905.216	17341
905.334	17345
905.451	17360
905.569	17261
905.686	17334
905.803	17311
905.921	17083
906.038	17155
906.155	17014
906.272	16980
906.389	16999
906.506	16824
906.623	16831
906.74	16824
906.857	16793
906.974	16694
907.091	16919
907.208	17014
907.324	16774
907.441	16721
907.557	16546
907.674	16542
907.79	16569
907.907	16436
908.023	16611
908.139	16481
908.256	16527
908.372	16447
908.488	16455
908.604	16379
908.72	16295
908.836	16390
908.952	16181
909.068	16207
909.184	16440
909.3	16318
909.415	16238
909.531	16230
909.647	16051
909.762	15960
909.878	15983
909.993	16059
910.108	15956
910.224	15930
910.339	15949
910.454	15968
910.57	15717
910.685	15644
910.8	16010
910.915	15941
911.03	15819
911.145	15641
911.259	15663
911.374	15553
911.489	15466
911.604	15564
911.718	15447
911.833	15329
911.947	15302
912.062	15310
912.176	15359
912.291	15401
912.405	15348
912.519	15557
912.633	15492
912.748	15431
912.862	15302
912.976	15135
913.09	14937
913.204	15116
913.318	15211
913.431	15279
913.545	15287
913.659	15294
913.772	15218
913.886	15074
914	14853
914.113	15104
914.226	15085
914.34	15062
914.453	14845
914.566	14944
914.68	14823
914.793	14800
914.906	14636
915.019	14632
915.132	14560
915.245	14648
915.358	14545
915.47	14644
915.583	14533
915.696	14640
915.809	14731
915.921	14602
916.034	14541
916.146	14568
916.259	14530
916.371	14594
916.483	14587
916.595	14473
916.708	14511
916.82	14393
916.932	14404
917.044	14434
917.156	14362
917.268	14240
917.38	14374
917.491	14282
917.603	14278
917.715	14256
917.826	14366
917.938	14233
918.049	14168
918.161	14233
918.272	14370
918.384	14320
918.495	14195
918.606	14142
918.717	14054
918.828	14062
918.939	14119
919.05	13982
919.161	14039
919.272	13837
919.383	13765
919.494	14100
919.604	14248
919.715	14043
919.826	13925
919.936	14001
920.047	14024
920.157	14065
920.267	14168
920.378	14077
920.488	13978
920.598	14199
920.708	14336
920.818	14191
920.928	14119
921.038	14294
921.148	14225
921.258	13963
921.368	13715
921.477	13772
921.587	13818
921.697	13594
921.806	13845
921.916	13681
922.025	13460
922.134	13316
922.244	13426
922.353	13518
922.462	13308
922.571	13217
922.68	13213
922.789	13122
922.898	13027
923.007	12943
923.116	13031
923.224	13069
923.333	13129
923.442	12783
923.55	12985
923.659	12916
923.767	12993
923.876	12829
923.984	12852
924.092	12753
924.201	12825
924.309	12916
924.417	12817
924.525	12779
924.633	12882
924.741	13483
924.849	12566
924.956	12673
925.064	12604
925.172	12445
925.279	12502
925.387	12646
925.494	12437
925.602	12635
925.709	12471
925.816	12456
925.924	12471
926.031	12570
926.138	12532
926.245	12426
926.352	12414
926.459	12467
926.566	12566
926.673	12414
926.779	12239
926.886	12289
926.993	12148
927.099	12087
927.206	12041
927.312	12083
927.419	12216
927.525	12053
927.631	12083
927.737	11961
927.843	11946
927.95	11859
928.056	11950
928.162	12003
928.267	11973
928.373	12585
928.479	11931
928.585	11775
928.69	11897
928.796	11935
928.901	11783
929.007	11608
929.112	11779
929.218	11745
929.323	11680
929.428	11653
929.533	11832
929.638	11551
929.743	11615
929.848	11657
929.953	11604
930.058	11501
930.163	11360
930.267	11307
930.372	11436
930.477	11372
930.581	11630
930.685	11391
930.79	11311
930.894	11254
930.998	11208
931.103	11303
931.207	11018
931.311	10908
931.415	10805
931.519	10596
931.623	10599
