Data from test_V78500241_2197.txt Node
Date: Fri Mar 25 15:25:09 CST 2022
User: usil
Spectrometer: V785-0024
Trigger mode: 0
Integration Time (sec): 4.000000E-1
Scans to average: 1
Nonlinearity correction enabled: false
Boxcar width: 0
Storing dark spectrum: false
XAxis mode: Wavelengths
Number of Pixels in Spectrum: 1024
>>>>>Begin Spectral Data<<<<<
801.071	27755
801.214	27766
801.356	27477
801.499	27427
801.641	27351
801.783	27287
801.926	27306
802.068	27321
802.211	27222
802.353	27047
802.496	26937
802.638	27001
802.78	26952
802.923	26842
803.065	26758
803.208	26933
803.35	27047
803.492	27135
803.635	27131
803.777	27089
803.919	27112
804.061	27389
804.204	27150
804.346	26952
804.488	27100
804.63	27203
804.773	27009
804.915	27131
805.057	27233
805.199	27062
805.341	27157
805.483	27249
805.626	27184
805.768	27180
805.91	27256
806.052	27317
806.194	27131
806.336	27488
806.478	27237
806.62	27230
806.762	27424
806.904	27572
807.046	27709
807.188	27652
807.33	27778
807.472	27732
807.614	27663
807.756	27713
807.898	27572
808.04	27515
808.182	27504
808.324	27519
808.465	27618
808.607	27949
808.749	27903
808.891	27987
809.033	28025
809.174	27956
809.316	27797
809.458	27972
809.6	27842
809.741	27998
809.883	27876
810.025	28219
810.166	28188
810.308	28101
810.45	28078
810.591	28112
810.733	27838
810.875	27937
811.016	27861
811.158	27690
811.299	27888
811.441	28025
811.582	28017
811.724	27785
811.865	28032
812.007	27842
812.148	27937
812.29	27880
812.431	27968
812.573	28280
812.714	28299
812.855	28447
812.997	28398
813.138	28622
813.279	28512
813.421	28440
813.562	28253
813.703	28223
813.845	28063
813.986	27823
814.127	27530
814.268	27618
814.41	27671
814.551	27618
814.692	27545
814.833	27663
814.974	27511
815.115	27572
815.256	27458
815.397	27504
815.539	27370
815.68	27298
815.821	27226
815.962	27431
816.103	27447
816.244	27218
816.385	27081
816.526	27051
816.666	26861
816.807	26933
816.948	26994
817.089	26979
817.23	26910
817.371	26823
817.512	26834
817.653	26788
817.793	26853
817.934	26819
818.075	26777
818.216	26925
818.356	26800
818.497	26762
818.638	26648
818.778	26701
818.919	26602
819.06	26632
819.2	26712
819.341	26853
819.481	26963
819.622	26963
819.762	27176
819.903	27077
820.043	27005
820.184	26982
820.324	26906
820.465	27047
820.605	26899
820.746	26982
820.886	26811
821.026	26956
821.167	26940
821.307	27028
821.447	26929
821.588	26746
821.728	26632
821.868	26385
822.008	26415
822.149	26484
822.289	26351
822.429	26035
822.569	26069
822.709	26084
822.849	25814
822.99	25841
823.13	25799
823.27	25727
823.41	25696
823.55	25495
823.69	25712
823.83	25609
823.97	25502
824.11	25483
824.25	25407
824.389	25388
824.529	25548
824.669	25487
824.809	25472
824.949	25502
825.089	25510
825.228	25559
825.368	25331
825.508	25194
825.648	25270
825.787	25411
825.927	25289
826.067	25171
826.206	25206
826.346	25301
826.485	25403
826.625	25358
826.765	25381
826.904	25365
827.044	25038
827.183	25069
827.323	25031
827.462	24981
827.601	25065
827.741	25141
827.88	24977
828.02	24829
828.159	24996
828.298	25069
828.437	25110
828.577	24840
828.716	25110
828.855	24768
828.994	24707
829.134	24582
829.273	24787
829.412	24604
829.551	24688
829.69	24749
829.829	24707
829.968	24772
830.107	24749
830.246	24684
830.385	24703
830.524	24631
830.663	24677
830.802	24426
830.941	24277
831.08	24182
831.219	24399
831.357	24410
831.496	24525
831.635	24369
831.774	24277
831.913	24110
832.051	24015
832.19	24194
832.329	24102
832.467	23973
832.606	23912
832.744	24030
832.883	24045
833.022	23999
833.16	24003
833.299	24079
833.437	24076
833.576	24060
833.714	24159
833.852	24182
833.991	24114
834.129	24106
834.267	24079
834.406	23984
834.544	24022
834.682	24045
834.821	24072
834.959	24167
835.097	24015
835.235	24106
835.373	24049
835.511	24076
835.65	23832
835.788	23832
835.926	23672
836.064	23623
836.202	23817
836.34	23779
836.478	23942
836.615	23950
836.753	23954
836.891	23840
837.029	23988
837.167	23821
837.305	23638
837.443	23718
837.58	23718
837.718	23954
837.856	23668
837.993	23604
838.131	23699
838.269	23600
838.406	23592
838.544	23482
838.681	23493
838.819	23406
838.956	23155
839.094	23307
839.231	23246
839.369	23368
839.506	23566
839.643	23368
839.781	23128
839.918	23098
840.055	23155
840.193	23105
840.33	23121
840.467	23094
840.604	23140
840.742	23322
840.879	23014
841.016	23018
841.153	22866
841.29	23166
841.427	22987
841.564	23128
841.701	23136
841.838	23067
841.975	22972
842.112	22919
842.249	22968
842.385	22740
842.522	23147
842.659	22869
842.796	22748
842.933	22923
843.069	22812
843.206	22839
843.343	22942
843.479	22896
843.616	22820
843.752	22660
843.889	22801
844.025	22767
844.162	22641
844.298	22710
844.435	22622
844.571	22611
844.708	22611
844.844	22839
844.98	22744
845.117	22843
845.253	22634
845.389	22451
845.525	22538
845.661	22451
845.798	22341
845.934	22428
846.07	22219
846.206	22402
846.342	22527
846.478	22318
846.614	22211
846.75	22128
846.886	21991
847.022	22173
847.158	22139
847.294	22097
847.429	22051
847.565	22055
847.701	22192
847.837	21838
847.972	21793
848.108	21876
848.244	21797
848.379	21717
848.515	21648
848.65	21660
848.786	21728
848.921	21542
849.057	21641
849.192	21686
849.328	21728
849.463	21648
849.598	21701
849.734	21504
849.869	21401
850.004	21454
850.14	21485
850.275	21408
850.41	21310
850.545	21329
850.68	21477
850.815	21466
850.95	21367
851.085	21618
851.22	21572
851.355	21496
851.49	21568
851.625	21348
851.76	21393
851.895	21344
852.03	21298
852.165	21458
852.299	21488
852.434	21603
852.569	21447
852.703	21370
852.838	21599
852.973	21485
853.107	21583
853.242	21450
853.376	21393
853.511	21123
853.645	21180
853.78	21275
853.914	21252
854.048	21226
854.183	21222
854.317	21325
854.451	21447
854.585	21272
854.72	21226
854.854	21416
854.988	21214
855.122	21294
855.256	21161
855.39	21192
855.524	21408
855.658	21317
855.792	21332
855.926	21367
856.06	21363
856.194	21416
856.327	21226
856.461	21161
856.595	21154
856.729	21241
856.862	21367
856.996	21298
857.13	21408
857.263	21420
857.397	21317
857.53	21435
857.664	21302
857.797	21313
857.931	21424
858.064	21332
858.197	21405
858.331	21294
858.464	21195
858.597	21176
858.731	21230
858.864	21230
858.997	21214
859.13	21237
859.263	21351
859.396	21386
859.529	21214
859.662	21256
859.795	21214
859.928	21161
860.061	21447
860.194	21477
860.327	21389
860.46	21348
860.592	21447
860.725	21382
860.858	21405
860.99	21348
861.123	21241
861.256	21222
861.388	21294
861.521	21869
861.653	21218
861.786	21081
861.918	21081
862.05	21131
862.183	21237
862.315	21230
862.447	21256
862.58	21131
862.712	21005
862.844	20933
862.976	21116
863.108	21108
863.24	21313
863.372	20906
863.504	21081
863.636	20994
863.768	21028
863.9	20975
864.032	20994
864.164	20861
864.296	20891
864.428	21070
864.559	21157
864.691	20979
864.823	21119
864.954	20941
865.086	20876
865.217	20944
865.349	20743
865.48	20815
865.612	20925
865.743	21017
865.875	20849
866.006	20819
866.137	20956
866.269	20853
866.4	20880
866.531	20743
866.662	20838
866.793	20781
866.924	20986
867.055	20807
867.186	20750
867.317	20781
867.448	20735
867.579	20811
867.71	20724
867.841	20743
867.972	20823
868.103	20815
868.233	20834
868.364	20720
868.495	20861
868.625	21039
868.756	21237
868.886	21055
869.017	21142
869.147	21100
869.278	21085
869.408	21024
869.539	20975
869.669	21058
869.799	21138
869.929	21154
870.06	21116
870.19	21325
870.32	21302
870.45	21428
870.58	21450
870.71	21606
870.84	21420
870.97	21408
871.1	21435
871.23	21504
871.36	21610
871.489	21542
871.619	21515
871.749	21755
871.879	21728
872.008	21720
872.138	21610
872.267	21648
872.397	21481
872.526	21625
872.656	21500
872.785	21530
872.915	21743
873.044	21861
873.173	21717
873.303	21709
873.432	21705
873.561	21690
873.69	21732
873.819	21698
873.948	21800
874.077	21599
874.206	21629
874.335	21572
874.464	21937
874.593	21770
874.722	21911
874.851	21903
874.979	21949
875.108	22017
875.237	21880
875.365	21736
875.494	21770
875.623	21911
875.751	21903
875.88	21903
876.008	22074
876.136	22074
876.265	22280
876.393	22447
876.521	22322
876.65	22280
876.778	22295
876.906	22265
877.034	22257
877.162	22306
877.29	22249
877.418	22261
877.546	22223
877.674	22280
877.802	22215
877.93	22276
878.058	22223
878.185	22078
878.313	22280
878.441	22128
878.568	22063
878.696	22143
878.824	22230
878.951	22402
879.079	22428
879.206	22622
879.333	22489
879.461	22261
879.588	22272
879.715	22523
879.842	22561
879.97	22352
880.097	22131
880.224	22070
880.351	22067
880.478	22109
880.605	22013
880.732	22074
880.859	22284
880.986	22086
881.112	22048
881.239	21979
881.366	21903
881.493	21679
881.619	21675
881.746	21755
881.872	21732
881.999	21644
882.125	21610
882.252	21739
882.378	21660
882.505	21835
882.631	21519
882.757	21435
882.883	21542
883.01	21302
883.136	21367
883.262	21230
883.388	21192
883.514	21348
883.64	21298
883.766	21313
883.892	21116
884.018	21116
884.143	21264
884.269	21313
884.395	21077
884.52	20967
884.646	20986
884.772	20823
884.897	20971
885.023	21013
885.148	21157
885.274	21180
885.399	21119
885.524	20975
885.65	21001
885.775	20937
885.9	20876
886.025	20937
886.15	21051
886.275	20918
886.4	20849
886.525	21013
886.65	20975
886.775	21013
886.9	21017
887.025	21256
887.149	20914
887.274	20826
887.399	20724
887.523	20788
887.648	20716
887.773	20640
887.897	20876
888.021	20819
888.146	20609
888.27	20834
888.395	20956
888.519	20727
888.643	20758
888.767	20861
888.891	20655
889.015	20484
889.139	20667
889.263	20473
889.387	20651
889.511	20629
889.635	20514
889.759	20575
889.883	20495
890.006	20625
890.13	20533
890.254	20446
890.377	20511
890.501	20332
890.624	20183
890.748	20427
890.871	20233
890.995	20168
891.118	20039
891.241	20301
891.364	20191
891.488	20214
891.611	20126
891.734	20111
891.857	20157
891.98	20187
892.103	20275
892.226	20100
892.349	20081
892.471	19997
892.594	19940
892.717	20024
892.839	20103
892.962	20077
893.085	20069
893.207	19997
893.33	19917
893.452	19841
893.575	20130
893.697	19982
893.819	20138
893.941	20161
894.064	20210
894.186	19849
894.308	20084
894.43	20126
894.552	20233
894.674	20122
894.796	19970
894.918	20024
895.04	20039
895.161	20096
895.283	20092
895.405	19997
895.526	20001
895.648	20046
895.769	20027
895.891	20107
896.012	20107
896.134	20073
896.255	19947
896.376	19875
896.498	20111
896.619	20039
896.74	20046
896.861	20054
896.982	20298
897.103	20537
897.224	20278
897.345	20309
897.466	20221
897.587	20252
897.708	20305
897.828	20336
897.949	20210
898.07	20130
898.19	20115
898.311	20339
898.431	20286
898.552	20134
898.672	20256
898.792	20313
898.913	20244
899.033	20214
899.153	20058
899.273	19921
899.393	20077
899.513	19928
899.633	19909
899.753	20001
899.873	19719
899.993	20126
900.113	19989
900.232	19986
900.352	19879
900.472	19822
900.591	19788
900.711	19769
900.83	19685
900.95	19864
901.069	20020
901.189	19677
901.308	19426
901.427	19312
901.546	19392
901.665	19396
901.784	19377
901.904	19297
902.023	19103
902.141	19042
902.26	19023
902.379	19038
902.498	18791
902.617	18821
902.735	19053
902.854	18856
902.973	18814
903.091	18623
903.21	18616
903.328	18654
903.446	18513
903.565	18361
903.683	18380
903.801	18304
903.919	18391
904.038	18376
904.156	18174
904.274	18190
904.392	18152
904.51	18057
904.627	18079
904.745	18129
904.863	18053
904.981	17958
905.098	17794
905.216	17832
905.334	17821
905.451	17764
905.569	17828
905.686	17790
905.803	17794
905.921	17630
906.038	17665
906.155	17577
906.272	17482
906.389	17535
906.506	17364
906.623	17452
906.74	17322
906.857	17216
906.974	17284
907.091	17307
907.208	17440
907.324	17299
907.441	17136
907.557	17109
907.674	17045
907.79	16953
907.907	16980
908.023	17075
908.139	17037
908.256	16938
908.372	16896
908.488	16915
908.604	16820
908.72	16881
908.836	16771
908.952	16805
909.068	16828
909.184	16869
909.3	16717
909.415	16812
909.531	16782
909.647	16588
909.762	16462
909.878	16493
909.993	16371
910.108	16542
910.224	16402
910.339	16527
910.454	16382
910.57	16272
910.685	16280
910.8	16455
910.915	16527
911.03	16230
911.145	16074
911.259	16063
911.374	16013
911.489	16006
911.604	16013
911.718	15865
911.833	15823
911.947	15713
912.062	15584
912.176	15778
912.291	15804
912.405	15732
912.519	15892
912.633	15994
912.748	15808
912.862	15842
912.976	15599
913.09	15572
913.204	15595
913.318	15561
913.431	15762
913.545	15686
913.659	15736
913.772	15694
913.886	15511
914	15447
914.113	15477
914.226	15599
914.34	15526
914.453	15287
914.566	15595
914.68	15363
914.793	15203
914.906	15150
915.019	15017
915.132	14979
915.245	15058
915.358	15142
915.47	14975
915.583	15001
915.696	15047
915.809	15169
915.921	15043
916.034	14990
916.146	14876
916.259	14838
916.371	15047
916.483	15032
916.595	14868
916.708	14842
916.82	14830
916.932	14910
917.044	14815
917.156	14872
917.268	14712
917.38	14678
917.491	14590
917.603	14625
917.715	14830
917.826	14697
917.938	14651
918.049	14556
918.161	14667
918.272	14731
918.384	14731
918.495	14564
918.606	14438
918.717	14358
918.828	14552
918.939	14473
919.05	14362
919.161	14511
919.272	14290
919.383	14313
919.494	14412
919.604	14655
919.715	14434
919.826	14393
919.936	14461
920.047	14499
920.157	14362
920.267	14606
920.378	14431
920.488	14370
920.598	14560
920.708	14670
920.818	14495
920.928	14476
921.038	14712
921.148	14667
921.258	14374
921.368	14355
921.477	14199
921.587	14218
921.697	13947
921.806	14218
921.916	14050
922.025	13963
922.134	13715
922.244	13742
922.353	13803
922.462	13681
922.571	13647
922.68	13521
922.789	13430
922.898	13495
923.007	13430
923.116	13472
923.224	13518
923.333	13449
923.442	13384
923.55	13312
923.659	13320
923.767	13430
923.876	13175
923.984	13304
924.092	13171
924.201	13308
924.309	13263
924.417	13217
924.525	13168
924.633	13141
924.741	13845
924.849	12890
924.956	13069
925.064	12939
925.172	12939
925.279	12779
925.387	12920
925.494	12909
925.602	13072
925.709	13015
925.816	12844
925.924	12882
926.031	12932
926.138	12787
926.245	12871
926.352	12738
926.459	12852
926.566	12920
926.673	12837
926.779	12623
926.886	12631
926.993	12540
927.099	12483
927.206	12486
927.312	12441
927.419	12513
927.525	12460
927.631	12563
927.737	12289
927.843	12327
927.95	12213
928.056	12277
928.162	12330
928.267	12346
928.373	12871
928.479	12372
928.585	12163
928.69	12330
928.796	12319
928.901	12197
929.007	11946
929.112	12133
929.218	12076
929.323	12087
929.428	11996
929.533	12117
929.638	11946
929.743	12060
929.848	11954
929.953	11980
930.058	11908
930.163	11726
930.267	11786
930.372	11866
930.477	11657
930.581	11851
930.685	11748
930.79	11630
930.894	11592
930.998	11577
931.103	11665
931.207	11326
931.311	11223
931.415	11227
931.519	10946
931.623	10942
