Data from test_V78500241_3186.txt Node
Date: Fri Mar 25 15:32:02 CST 2022
User: usil
Spectrometer: V785-0024
Trigger mode: 0
Integration Time (sec): 4.000000E-1
Scans to average: 1
Nonlinearity correction enabled: false
Boxcar width: 0
Storing dark spectrum: false
XAxis mode: Wavelengths
Number of Pixels in Spectrum: 1024
>>>>>Begin Spectral Data<<<<<
801.071	27123
801.214	27062
801.356	26853
801.499	26762
801.641	26613
801.783	26579
801.926	26762
802.068	26689
802.211	26522
802.353	26514
802.496	26256
802.638	26423
802.78	26149
802.923	26145
803.065	26164
803.208	26237
803.35	26237
803.492	26473
803.635	26438
803.777	26206
803.919	26453
804.061	26834
804.204	26492
804.346	26423
804.488	26351
804.63	26324
804.773	26332
804.915	26442
805.057	26530
805.199	26298
805.341	26583
805.483	26632
805.626	26499
805.768	26450
805.91	26514
806.052	26670
806.194	26404
806.336	26587
806.478	26492
806.62	26450
806.762	26442
806.904	26777
807.046	27081
807.188	26940
807.33	26956
807.472	26967
807.614	26845
807.756	26743
807.898	26762
808.04	26781
808.182	26807
808.324	26887
808.465	26998
808.607	27062
808.749	27108
808.891	27180
809.033	27218
809.174	27249
809.316	27268
809.458	27093
809.6	27005
809.741	27123
809.883	27272
810.025	27203
810.166	27367
810.308	27386
810.45	27329
810.591	27237
810.733	27192
810.875	26986
811.016	27047
811.158	27009
811.299	27192
811.441	27348
811.582	27329
811.724	26910
811.865	27001
812.007	27104
812.148	26948
812.29	27123
812.431	27203
812.573	27450
812.714	27469
812.855	27523
812.997	27724
813.138	27903
813.279	27800
813.421	27606
813.562	27530
813.703	27519
813.845	27275
813.986	26906
814.127	26940
814.268	26670
814.41	26743
814.551	26659
814.692	26792
814.833	26796
814.974	26602
815.115	26720
815.256	26697
815.397	26621
815.539	26640
815.68	26393
815.821	26336
815.962	26777
816.103	26518
816.244	26480
816.385	26332
816.526	26282
816.666	26134
816.807	25974
816.948	26096
817.089	25986
817.23	26115
817.371	25917
817.512	26084
817.653	26058
817.793	25852
817.934	26107
818.075	25936
818.216	26027
818.356	26107
818.497	25890
818.638	25788
818.778	25689
818.919	25807
819.06	25780
819.2	26012
819.341	26096
819.481	25978
819.622	26240
819.762	26313
819.903	26278
820.043	26259
820.184	26134
820.324	26142
820.465	26252
820.605	26145
820.746	25974
820.886	26107
821.026	26115
821.167	26111
821.307	26100
821.447	25970
821.588	25913
821.728	25776
821.868	25601
822.008	25514
822.149	25518
822.289	25411
822.429	25152
822.569	25103
822.709	25213
822.849	25072
822.99	24909
823.13	25034
823.27	24878
823.41	24939
823.55	24817
823.69	24901
823.83	24764
823.97	24863
824.11	24612
824.25	24566
824.389	24604
824.529	24681
824.669	24673
824.809	24741
824.949	24726
825.089	24673
825.228	24669
825.368	24498
825.508	24555
825.648	24479
825.787	24532
825.927	24551
826.067	24517
826.206	24395
826.346	24555
826.485	24563
826.625	24437
826.765	24604
826.904	24555
827.044	24277
827.183	24129
827.323	24296
827.462	24205
827.601	24201
827.741	24102
827.88	24289
828.02	24117
828.159	24216
828.298	24064
828.437	24186
828.577	24171
828.716	24296
828.855	24239
828.994	23817
829.134	23931
829.273	23920
829.412	23843
829.551	23821
829.69	23912
829.829	23885
829.968	24076
830.107	23931
830.246	23836
830.385	23832
830.524	23863
830.663	23741
830.802	23634
830.941	23539
831.08	23589
831.219	23551
831.357	23585
831.496	23783
831.635	23562
831.774	23398
831.913	23433
832.051	23345
832.19	23220
832.329	23425
832.467	23322
832.606	23048
832.744	23189
832.883	23174
833.022	23170
833.16	23067
833.299	23296
833.437	23208
833.576	23258
833.714	23277
833.852	23356
833.991	23269
834.129	23467
834.267	23315
834.406	23318
834.544	23284
834.682	23250
834.821	23208
834.959	23547
835.097	23220
835.235	23296
835.373	23334
835.511	23307
835.65	23083
835.788	23193
835.926	23090
836.064	22961
836.202	23018
836.34	23033
836.478	23250
836.615	23159
836.753	23117
836.891	23242
837.029	23105
837.167	23147
837.305	23067
837.443	23003
837.58	23018
837.718	22980
837.856	23010
837.993	22965
838.131	23003
838.269	22911
838.406	22892
838.544	22733
838.681	22672
838.819	22554
838.956	22398
839.094	22417
839.231	22497
839.369	22577
839.506	22767
839.643	22683
839.781	22527
839.918	22478
840.055	22451
840.193	22417
840.33	22405
840.467	22272
840.604	22504
840.742	22755
840.879	22303
841.016	22367
841.153	22299
841.29	22519
841.427	22478
841.564	22291
841.701	22447
841.838	22356
841.975	22314
842.112	22291
842.249	22200
842.385	22169
842.522	22379
842.659	22211
842.796	22040
842.933	22139
843.069	22265
843.206	21941
843.343	22253
843.479	22265
843.616	22200
843.752	21876
843.889	21960
844.025	22090
844.162	21895
844.298	22051
844.435	21831
844.571	21926
844.708	21888
844.844	22002
844.98	22063
845.117	21972
845.253	21797
845.389	21675
845.525	21960
845.661	21759
845.798	21656
845.934	21690
846.07	21606
846.206	21728
846.342	21804
846.478	21587
846.614	21572
846.75	21397
846.886	21469
847.022	21500
847.158	21408
847.294	21428
847.429	21447
847.565	21302
847.701	21686
847.837	21176
847.972	21009
848.108	21302
848.244	21260
848.379	21062
848.515	20979
848.65	21024
848.786	21039
848.921	21032
849.057	21176
849.192	21096
849.328	21009
849.463	20975
849.598	20895
849.734	20925
849.869	20853
850.004	20826
850.14	20815
850.275	20811
850.41	20686
850.545	20758
850.68	20617
850.815	20762
850.95	20804
851.085	21005
851.22	20910
851.355	20834
851.49	20739
851.625	20697
851.76	20773
851.895	20648
852.03	20636
852.165	20667
852.299	20682
852.434	20800
852.569	20804
852.703	20861
852.838	20754
852.973	20868
853.107	20823
853.242	20758
853.376	20625
853.511	20499
853.645	20549
853.78	20617
853.914	20636
854.048	20648
854.183	20560
854.317	20579
854.451	20834
854.585	20560
854.72	20465
854.854	20568
854.988	20522
855.122	20530
855.256	20530
855.39	20541
855.524	20720
855.658	20655
855.792	20606
855.926	20549
856.06	20663
856.194	20674
856.327	20587
856.461	20541
856.595	20560
856.729	20598
856.862	20769
856.996	20556
857.13	20682
857.263	20712
857.397	20743
857.53	20488
857.664	20587
857.797	20682
857.931	20670
858.064	20682
858.197	20693
858.331	20587
858.464	20549
858.597	20571
858.731	20606
858.864	20533
858.997	20636
859.13	20651
859.263	20564
859.396	20739
859.529	20514
859.662	20541
859.795	20476
859.928	20450
860.061	20826
860.194	20731
860.327	20602
860.46	20724
860.592	20705
860.725	20743
860.858	20697
860.99	20594
861.123	20484
861.256	20530
861.388	20568
861.521	21218
861.653	20370
861.786	20446
861.918	20507
862.05	20355
862.183	20492
862.315	20568
862.447	20621
862.58	20495
862.712	20324
862.844	20199
862.976	20431
863.108	20343
863.24	20689
863.372	20214
863.504	20362
863.636	20294
863.768	20237
863.9	20408
864.032	20214
864.164	20237
864.296	20294
864.428	20377
864.559	20423
864.691	20339
864.823	20191
864.954	20256
865.086	20256
865.217	20290
865.349	20046
865.48	20183
865.612	20202
865.743	20309
865.875	20240
866.006	20092
866.137	20282
866.269	20275
866.4	20126
866.531	20142
866.662	20119
866.793	20100
866.924	20103
867.055	20191
867.186	20180
867.317	20119
867.448	20031
867.579	20138
867.71	20088
867.841	20031
867.972	20164
868.103	20081
868.233	20259
868.364	20035
868.495	20381
868.625	20362
868.756	20385
868.886	20343
869.017	20385
869.147	20495
869.278	20602
869.408	20377
869.539	20309
869.669	20320
869.799	20415
869.929	20480
870.06	20526
870.19	20644
870.32	20674
870.45	20667
870.58	20712
870.71	20910
870.84	20781
870.97	20735
871.1	20746
871.23	20918
871.36	21005
871.489	20899
871.619	21020
871.749	21005
871.879	21081
872.008	21176
872.138	21062
872.267	21051
872.397	20956
872.526	20815
872.656	20857
872.785	20762
872.915	20979
873.044	21093
873.173	20941
873.303	20963
873.432	21047
873.561	21032
873.69	21017
873.819	21024
873.948	21089
874.077	21005
874.206	21001
874.335	21085
874.464	21195
874.593	21214
874.722	21279
874.851	21241
874.979	21329
875.108	21294
875.237	21233
875.365	21222
875.494	21218
875.623	21203
875.751	21211
875.88	21184
876.008	21351
876.136	21443
876.265	21667
876.393	21747
876.521	21694
876.65	21698
876.778	21564
876.906	21606
877.034	21511
877.162	21534
877.29	21583
877.418	21606
877.546	21561
877.674	21492
877.802	21671
877.93	21644
878.058	21610
878.185	21507
878.313	21641
878.441	21549
878.568	21462
878.696	21561
878.824	21663
878.951	21545
879.079	21762
879.206	21907
879.333	21766
879.461	21583
879.588	21663
879.715	21774
879.842	21854
879.97	21606
880.097	21485
880.224	21431
880.351	21428
880.478	21424
880.605	21401
880.732	21420
880.859	21644
880.986	21386
881.112	21420
881.239	21382
881.366	21249
881.493	21127
881.619	20960
881.746	21009
881.872	21138
881.999	20967
882.125	21017
882.252	21112
882.378	20963
882.505	21104
882.631	20891
882.757	20845
882.883	20868
883.01	20811
883.136	20648
883.262	20674
883.388	20537
883.514	20670
883.64	20712
883.766	20708
883.892	20518
884.018	20526
884.143	20739
884.269	20868
884.395	20469
884.52	20366
884.646	20362
884.772	20336
884.897	20263
885.023	20355
885.148	20412
885.274	20499
885.399	20499
885.524	20252
885.65	20450
885.775	20317
885.9	20415
886.025	20602
886.15	20503
886.275	20317
886.4	20221
886.525	20469
886.65	20221
886.775	20374
886.9	20480
887.025	20568
887.149	20317
887.274	20221
887.399	20240
887.523	20153
887.648	20039
887.773	20027
887.897	20294
888.021	20214
888.146	20069
888.27	20195
888.395	20282
888.519	20263
888.643	20214
888.767	20088
888.891	20031
889.015	20046
889.139	20092
889.263	20073
889.387	20183
889.511	20126
889.635	20046
889.759	19803
889.883	20016
890.006	19890
890.13	20092
890.254	19871
890.377	19875
890.501	19845
890.624	19784
890.748	19772
890.871	19677
890.995	19510
891.118	19430
891.241	19597
891.364	19472
891.488	19693
891.611	19548
891.734	19552
891.857	19590
891.98	19590
892.103	19677
892.226	19514
892.349	19575
892.471	19354
892.594	19411
892.717	19552
892.839	19476
892.962	19499
893.085	19460
893.207	19502
893.33	19392
893.452	19453
893.575	19506
893.697	19419
893.819	19624
893.941	19597
894.064	19609
894.186	19308
894.308	19392
894.43	19510
894.552	19639
894.674	19575
894.796	19362
894.918	19533
895.04	19449
895.161	19518
895.283	19533
895.405	19464
895.526	19529
895.648	19476
895.769	19544
895.891	19480
896.012	19518
896.134	19533
896.255	19438
896.376	19510
896.498	19540
896.619	19480
896.74	19518
896.861	19556
896.982	19837
897.103	20024
897.224	19776
897.345	19674
897.466	19590
897.587	19658
897.708	19807
897.828	19742
897.949	19681
898.07	19529
898.19	19651
898.311	19852
898.431	19567
898.552	19693
898.672	19833
898.792	19811
898.913	19594
899.033	19647
899.153	19514
899.273	19369
899.393	19552
899.513	19563
899.633	19521
899.753	19499
899.873	19381
899.993	19529
900.113	19377
900.232	19362
900.352	19510
900.472	19316
900.591	19206
900.711	19297
900.83	19084
900.95	19274
901.069	19289
901.189	19194
901.308	18973
901.427	18791
901.546	18764
901.665	18867
901.784	18840
901.904	18707
902.023	18688
902.141	18422
902.26	18361
902.379	18445
902.498	18235
902.617	18369
902.735	18391
902.854	18399
902.973	18338
903.091	18091
903.21	18019
903.328	18102
903.446	17923
903.565	17946
903.683	17802
903.801	17760
903.919	17775
904.038	17771
904.156	17657
904.274	17661
904.392	17501
904.51	17520
904.627	17611
904.745	17699
904.863	17684
904.981	17448
905.098	17318
905.216	17284
905.334	17322
905.451	17299
905.569	17265
905.686	17395
905.803	17372
905.921	17064
906.038	17117
906.155	17117
906.272	16972
906.389	17025
906.506	16839
906.623	16915
906.74	16866
906.857	16820
906.974	16736
907.091	16911
907.208	16934
907.324	16919
907.441	16759
907.557	16550
907.674	16596
907.79	16527
907.907	16565
908.023	16626
908.139	16561
908.256	16504
908.372	16352
908.488	16337
908.604	16295
908.72	16341
908.836	16348
908.952	16329
909.068	16276
909.184	16402
909.3	16299
909.415	16287
909.531	16322
909.647	16029
909.762	16086
909.878	15918
909.993	15945
910.108	16059
910.224	15968
910.339	15884
910.454	15956
910.57	15774
910.685	15918
910.8	16063
910.915	16013
911.03	15816
911.145	15663
911.259	15641
911.374	15633
911.489	15580
911.604	15511
911.718	15321
911.833	15386
911.947	15188
912.062	15230
912.176	15389
912.291	15332
912.405	15325
912.519	15542
912.633	15545
912.748	15416
912.862	15287
912.976	15142
913.09	15089
913.204	15169
913.318	15123
913.431	15249
913.545	15249
913.659	15287
913.772	15036
913.886	15005
914	15043
914.113	15062
914.226	15154
914.34	15116
914.453	14861
914.566	15024
914.68	14918
914.793	14819
914.906	14735
915.019	14568
915.132	14556
915.245	14583
915.358	14568
915.47	14686
915.583	14564
915.696	14727
915.809	14724
915.921	14807
916.034	14495
916.146	14518
916.259	14526
916.371	14598
916.483	14552
916.595	14412
916.708	14415
916.82	14450
916.932	14438
917.044	14408
917.156	14450
917.268	14298
917.38	14278
917.491	14256
917.603	14191
917.715	14309
917.826	14377
917.938	14240
918.049	14142
918.161	14191
918.272	14412
918.384	14358
918.495	14301
918.606	13978
918.717	13944
918.828	14134
918.939	14107
919.05	13940
919.161	14039
919.272	13822
919.383	13868
919.494	14054
919.604	14263
919.715	13955
919.826	13940
919.936	14001
920.047	14115
920.157	14050
920.267	14218
920.378	13978
920.488	14024
920.598	14218
920.708	14355
920.818	14164
920.928	14199
921.038	14256
921.148	14191
921.258	13921
921.368	13818
921.477	13833
921.587	13784
921.697	13609
921.806	13822
921.916	13628
922.025	13434
922.134	13468
922.244	13396
922.353	13468
922.462	13392
922.571	13316
922.68	13091
922.789	13080
922.898	13050
923.007	12894
923.116	13168
923.224	13114
923.333	13042
923.442	12901
923.55	12867
923.659	12943
923.767	12947
923.876	12817
923.984	12894
924.092	12829
924.201	12886
924.309	12852
924.417	12844
924.525	12692
924.633	12768
924.741	13655
924.849	12631
924.956	12597
925.064	12582
925.172	12429
925.279	12506
925.387	12525
925.494	12532
925.602	12608
925.709	12532
925.816	12433
925.924	12395
926.031	12528
926.138	12429
926.245	12517
926.352	12426
926.459	12410
926.566	12551
926.673	12338
926.779	12311
926.886	12235
926.993	12152
927.099	12106
927.206	12068
927.312	12053
927.419	12159
927.525	12038
927.631	12159
927.737	11935
927.843	11969
927.95	11824
928.056	11889
928.162	11958
928.267	12026
928.373	12578
928.479	11958
928.585	11756
928.69	11870
928.796	11912
928.901	11779
929.007	11661
929.112	11828
929.218	11691
929.323	11638
929.428	11646
929.533	11775
929.638	11562
929.743	11619
929.848	11691
929.953	11703
930.058	11516
930.163	11296
930.267	11322
930.372	11490
930.477	11345
930.581	11615
930.685	11395
930.79	11201
930.894	11280
930.998	11239
931.103	11345
931.207	11003
931.311	10881
931.415	10839
931.519	10717
931.623	10675
