Data from test_V78500241_544.txt Node
Date: Fri Mar 25 15:13:38 CST 2022
User: usil
Spectrometer: V785-0024
Trigger mode: 0
Integration Time (sec): 4.000000E-1
Scans to average: 1
Nonlinearity correction enabled: false
Boxcar width: 0
Storing dark spectrum: false
XAxis mode: Wavelengths
Number of Pixels in Spectrum: 1024
>>>>>Begin Spectral Data<<<<<
801.071	27306
801.214	27176
801.356	26979
801.499	26899
801.641	26838
801.783	26853
801.926	26792
802.068	26830
802.211	26625
802.353	26594
802.496	26613
802.638	26389
802.78	26450
802.923	26366
803.065	26294
803.208	26408
803.35	26339
803.492	26522
803.635	26453
803.777	26412
803.919	26560
804.061	26781
804.204	26568
804.346	26598
804.488	26423
804.63	26511
804.773	26366
804.915	26461
805.057	26594
805.199	26522
805.341	26606
805.483	26667
805.626	26632
805.768	26549
805.91	26678
806.052	26549
806.194	26552
806.336	26773
806.478	26629
806.62	26697
806.762	26735
806.904	26956
807.046	27036
807.188	27176
807.33	27047
807.472	27036
807.614	26937
807.756	26990
807.898	26861
808.04	26785
808.182	26853
808.324	26712
808.465	26956
808.607	26960
808.749	27173
808.891	27317
809.033	27260
809.174	27230
809.316	27348
809.458	27336
809.6	27203
809.741	27245
809.883	27359
810.025	27431
810.166	27523
810.308	27427
810.45	27561
810.591	27545
810.733	27325
810.875	27412
811.016	27173
811.158	27142
811.299	27294
811.441	27363
811.582	27268
811.724	27230
811.865	27131
812.007	27176
812.148	27127
812.29	27218
812.431	27325
812.573	27549
812.714	27542
812.855	27720
812.997	27854
813.138	27987
813.279	27873
813.421	27751
813.562	27755
813.703	27580
813.845	27397
813.986	27104
814.127	26883
814.268	26990
814.41	26944
814.551	26819
814.692	26975
814.833	26773
814.974	26804
815.115	26861
815.256	26815
815.397	26758
815.539	26842
815.68	26678
815.821	26640
815.962	26716
816.103	26739
816.244	26355
816.385	26507
816.526	26492
816.666	26301
816.807	26012
816.948	26039
817.089	26271
817.23	26107
817.371	26115
817.512	26180
817.653	26100
817.793	26122
817.934	26138
818.075	26202
818.216	26138
818.356	26122
818.497	25951
818.638	25947
818.778	25947
818.919	26005
819.06	26001
819.2	26149
819.341	26206
819.481	26157
819.622	26389
819.762	26526
819.903	26442
820.043	26309
820.184	26339
820.324	26374
820.465	26301
820.605	26221
820.746	26358
820.886	26092
821.026	26252
821.167	26206
821.307	26138
821.447	26176
821.588	26107
821.728	25932
821.868	25769
822.008	25624
822.149	25628
822.289	25674
822.429	25445
822.569	25369
822.709	25343
822.849	25160
822.99	25126
823.13	25148
823.27	25114
823.41	24935
823.55	24863
823.69	25080
823.83	24939
823.97	24924
824.11	24741
824.25	24635
824.389	24810
824.529	24894
824.669	24745
824.809	24905
824.949	24939
825.089	24745
825.228	24890
825.368	24627
825.508	24601
825.648	24544
825.787	24707
825.927	24620
826.067	24719
826.206	24646
826.346	24791
826.485	24650
826.625	24536
826.765	24681
826.904	24726
827.044	24388
827.183	24433
827.323	24315
827.462	24513
827.601	24262
827.741	24251
827.88	24327
828.02	24289
828.159	24311
828.298	24429
828.437	24327
828.577	24239
828.716	24441
828.855	24182
828.994	24129
829.134	24057
829.273	24018
829.412	24057
829.551	24034
829.69	24007
829.829	24057
829.968	24144
830.107	24087
830.246	24022
830.385	24098
830.524	23969
830.663	23897
830.802	23752
830.941	23543
831.08	23463
831.219	23657
831.357	23722
831.496	23969
831.635	23752
831.774	23471
831.913	23448
832.051	23486
832.19	23592
832.329	23463
832.467	23391
832.606	23330
832.744	23258
832.883	23334
833.022	23376
833.16	23421
833.299	23299
833.437	23356
833.576	23467
833.714	23433
833.852	23539
833.991	23467
834.129	23516
834.267	23562
834.406	23433
834.544	23490
834.682	23364
834.821	23414
834.959	23562
835.097	23345
835.235	23493
835.373	23303
835.511	23490
835.65	23254
835.788	23235
835.926	23083
836.064	22995
836.202	23162
836.34	23307
836.478	23315
836.615	23128
836.753	23181
836.891	23391
837.029	23246
837.167	23140
837.305	23235
837.443	23174
837.58	22991
837.718	23193
837.856	23185
837.993	23025
838.131	23025
838.269	22915
838.406	22900
838.544	22949
838.681	22691
838.819	22748
838.956	22561
839.094	22573
839.231	22740
839.369	22687
839.506	22862
839.643	22987
839.781	22516
839.918	22603
840.055	22592
840.193	22679
840.33	22504
840.467	22618
840.604	22611
840.742	22835
840.879	22451
841.016	22497
841.153	22417
841.29	22516
841.427	22538
841.564	22573
841.701	22481
841.838	22440
841.975	22432
842.112	22348
842.249	22341
842.385	22356
842.522	22409
842.659	22379
842.796	22204
842.933	22337
843.069	22181
843.206	22211
843.343	22371
843.479	22215
843.616	22230
843.752	21979
843.889	22017
844.025	22070
844.162	21899
844.298	22246
844.435	22017
844.571	21934
844.708	22093
844.844	22284
844.98	22211
845.117	22070
845.253	22090
845.389	21922
845.525	21884
845.661	21922
845.798	21857
845.934	21751
846.07	21797
846.206	21800
846.342	21873
846.478	21724
846.614	21587
846.75	21492
846.886	21580
847.022	21625
847.158	21523
847.294	21511
847.429	21534
847.565	21473
847.701	21789
847.837	21370
847.972	21302
848.108	21321
848.244	21386
848.379	21142
848.515	21108
848.65	21173
848.786	21043
848.921	21188
849.057	21173
849.192	21230
849.328	21131
849.463	20952
849.598	21017
849.734	20982
849.869	20986
850.004	20830
850.14	20960
850.275	20910
850.41	20876
850.545	20910
850.68	20727
850.815	20861
850.95	20834
851.085	21039
851.22	20906
851.355	21070
851.49	20914
851.625	20823
851.76	20914
851.895	20777
852.03	20929
852.165	20861
852.299	20857
852.434	20952
852.569	20800
852.703	20929
852.838	20857
852.973	21093
853.107	21013
853.242	20906
853.376	20758
853.511	20461
853.645	20750
853.78	20868
853.914	20609
854.048	20648
854.183	20659
854.317	20758
854.451	20811
854.585	20667
854.72	20708
854.854	20746
854.988	20556
855.122	20716
855.256	20499
855.39	20587
855.524	20724
855.658	20735
855.792	20735
855.926	20743
856.06	20731
856.194	20796
856.327	20804
856.461	20674
856.595	20609
856.729	20674
856.862	20758
856.996	20670
857.13	20735
857.263	20785
857.397	20758
857.53	20727
857.664	20765
857.797	20739
857.931	20769
858.064	20765
858.197	20830
858.331	20625
858.464	20644
858.597	20644
858.731	20629
858.864	20625
858.997	20712
859.13	20712
859.263	20598
859.396	20731
859.529	20625
859.662	20697
859.795	20686
859.928	20689
860.061	20849
860.194	20762
860.327	20777
860.46	20724
860.592	20876
860.725	20925
860.858	20830
860.99	20644
861.123	20545
861.256	20674
861.388	20693
861.521	21336
861.653	20560
861.786	20545
861.918	20488
862.05	20499
862.183	20644
862.315	20659
862.447	20560
862.58	20571
862.712	20404
862.844	20370
862.976	20549
863.108	20484
863.24	20918
863.372	20339
863.504	20370
863.636	20309
863.768	20434
863.9	20480
864.032	20294
864.164	20404
864.296	20355
864.428	20533
864.559	20514
864.691	20419
864.823	20419
864.954	20362
865.086	20400
865.217	20396
865.349	20263
865.48	20320
865.612	20282
865.743	20358
865.875	20328
866.006	20256
866.137	20313
866.269	20366
866.4	20286
866.531	20294
866.662	20278
866.793	20328
866.924	20290
867.055	20301
867.186	20347
867.317	20332
867.448	20111
867.579	20168
867.71	20218
867.841	20218
867.972	20244
868.103	20237
868.233	20263
868.364	20161
868.495	20381
868.625	20571
868.756	20602
868.886	20385
869.017	20495
869.147	20571
869.278	20609
869.408	20541
869.539	20518
869.669	20541
869.799	20575
869.929	20708
870.06	20621
870.19	20613
870.32	20823
870.45	20834
870.58	20872
870.71	20952
870.84	21020
870.97	21013
871.1	20883
871.23	21074
871.36	21089
871.489	21009
871.619	21070
871.749	21001
871.879	21017
872.008	21237
872.138	21096
872.267	21028
872.397	20975
872.526	20868
872.656	20876
872.785	21013
872.915	21150
873.044	21237
873.173	21131
873.303	21272
873.432	21226
873.561	21135
873.69	21146
873.819	21062
873.948	21192
874.077	21222
874.206	21020
874.335	21024
874.464	21287
874.593	21378
874.722	21233
874.851	21332
874.979	21412
875.108	21310
875.237	21325
875.365	21336
875.494	21382
875.623	21401
875.751	21317
875.88	21435
876.008	21557
876.136	21633
876.265	21823
876.393	21816
876.521	21869
876.65	21880
876.778	21698
876.906	21701
877.034	21694
877.162	21701
877.29	21606
877.418	21789
877.546	21774
877.674	21633
877.802	21583
877.93	21732
878.058	21622
878.185	21595
878.313	21701
878.441	21747
878.568	21667
878.696	21701
878.824	21713
878.951	21804
879.079	21884
879.206	22067
879.333	21888
879.461	21732
879.588	21827
879.715	21953
879.842	21972
879.97	21804
880.097	21663
880.224	21378
880.351	21610
880.478	21545
880.605	21443
880.732	21492
880.859	21785
880.986	21576
881.112	21622
881.239	21591
881.366	21310
881.493	21165
881.619	21252
881.746	21077
881.872	21199
881.999	21032
882.125	21093
882.252	21192
882.378	21032
882.505	21260
882.631	20971
882.757	20857
882.883	20823
883.01	20807
883.136	20906
883.262	20804
883.388	20598
883.514	20876
883.64	21020
883.766	20792
883.892	20537
884.018	20640
884.143	20746
884.269	20906
884.395	20503
884.52	20530
884.646	20514
884.772	20454
884.897	20385
885.023	20480
885.148	20530
885.274	20678
885.399	20541
885.524	20495
885.65	20450
885.775	20408
885.9	20404
886.025	20636
886.15	20522
886.275	20503
886.4	20473
886.525	20415
886.65	20427
886.775	20446
886.9	20545
887.025	20609
887.149	20488
887.274	20286
887.399	20244
887.523	20396
887.648	20309
887.773	20180
887.897	20305
888.021	20267
888.146	20176
888.27	20423
888.395	20370
888.519	20191
888.643	20305
888.767	20305
888.891	20183
889.015	19993
889.139	20008
889.263	20039
889.387	20161
889.511	20225
889.635	20092
889.759	20084
889.883	20065
890.006	20088
890.13	20183
890.254	19860
890.377	19921
890.501	19856
890.624	19696
890.748	19906
890.871	19700
890.995	19624
891.118	19426
891.241	19670
891.364	19719
891.488	19791
891.611	19605
891.734	19655
891.857	19616
891.98	19670
892.103	19712
892.226	19616
892.349	19666
892.471	19438
892.594	19601
892.717	19483
892.839	19540
892.962	19544
893.085	19582
893.207	19537
893.33	19483
893.452	19472
893.575	19525
893.697	19518
893.819	19639
893.941	19723
894.064	19662
894.186	19480
894.308	19460
894.43	19567
894.552	19681
894.674	19620
894.796	19499
894.918	19502
895.04	19548
895.161	19731
895.283	19616
895.405	19540
895.526	19582
895.648	19510
895.769	19472
895.891	19655
896.012	19533
896.134	19620
896.255	19590
896.376	19559
896.498	19597
896.619	19616
896.74	19628
896.861	19502
896.982	19944
897.103	20043
897.224	19757
897.345	19750
897.466	19704
897.587	19723
897.708	19830
897.828	19750
897.949	19788
898.07	19670
898.19	19742
898.311	19795
898.431	19708
898.552	19746
898.672	19780
898.792	19868
898.913	19795
899.033	19734
899.153	19540
899.273	19514
899.393	19544
899.513	19575
899.633	19556
899.753	19529
899.873	19293
899.993	19715
900.113	19426
900.232	19472
900.352	19438
900.472	19316
900.591	19240
900.711	19316
900.83	19289
900.95	19460
901.069	19430
901.189	19183
901.308	19053
901.427	18909
901.546	18947
901.665	18848
901.784	18871
901.904	18707
902.023	18566
902.141	18483
902.26	18544
902.379	18494
902.498	18395
902.617	18471
902.735	18483
902.854	18342
902.973	18330
903.091	18083
903.21	18186
903.328	18159
903.446	17973
903.565	17901
903.683	17912
903.801	17859
903.919	17931
904.038	17843
904.156	17649
904.274	17684
904.392	17672
904.51	17691
904.627	17630
904.745	17729
904.863	17733
904.981	17558
905.098	17383
905.216	17440
905.334	17368
905.451	17429
905.569	17242
905.686	17315
905.803	17353
905.921	17155
906.038	17178
906.155	17296
906.272	17117
906.389	16995
906.506	16896
906.623	16949
906.74	16858
906.857	16862
906.974	16858
907.091	17022
907.208	17075
907.324	16923
907.441	16771
907.557	16717
907.674	16634
907.79	16615
907.907	16599
908.023	16641
908.139	16763
908.256	16611
908.372	16527
908.488	16516
908.604	16306
908.72	16367
908.836	16394
908.952	16310
909.068	16299
909.184	16500
909.3	16265
909.415	16344
909.531	16303
909.647	16101
909.762	16097
909.878	16120
909.993	16029
910.108	16078
910.224	15987
910.339	16131
910.454	15983
910.57	15975
910.685	15907
910.8	15979
910.915	15975
911.03	15770
911.145	15766
911.259	15690
911.374	15713
911.489	15633
911.604	15557
911.718	15363
911.833	15351
911.947	15256
912.062	15245
912.176	15367
912.291	15344
912.405	15363
912.519	15641
912.633	15614
912.748	15424
912.862	15389
912.976	15249
913.09	15142
913.204	15180
913.318	15211
913.431	15287
913.545	15325
913.659	15275
913.772	15207
913.886	15070
914	15089
914.113	15161
914.226	15169
914.34	15119
914.453	14952
914.566	14967
914.68	14956
914.793	14933
914.906	14712
915.019	14659
915.132	14598
915.245	14720
915.358	14731
915.47	14568
915.583	14617
915.696	14720
915.809	14750
915.921	14804
916.034	14625
916.146	14492
916.259	14499
916.371	14651
916.483	14610
916.595	14484
916.708	14484
916.82	14511
916.932	14434
917.044	14389
917.156	14457
917.268	14358
917.38	14320
917.491	14343
917.603	14339
917.715	14457
917.826	14377
917.938	14248
918.049	14202
918.161	14271
918.272	14377
918.384	14469
918.495	14259
918.606	14126
918.717	14138
918.828	14096
918.939	14096
919.05	14081
919.161	14088
919.272	13845
919.383	13852
919.494	14107
919.604	14317
919.715	14096
919.826	14008
919.936	14046
920.047	14084
920.157	14046
920.267	14294
920.378	13963
920.488	14267
920.598	14233
920.708	14351
920.818	14187
920.928	14119
921.038	14362
921.148	14355
921.258	14069
921.368	13989
921.477	13909
921.587	13868
921.697	13696
921.806	13837
921.916	13674
922.025	13514
922.134	13563
922.244	13403
922.353	13544
922.462	13384
922.571	13285
922.68	13175
922.789	13114
922.898	13050
923.007	13008
923.116	13137
923.224	13107
923.333	13084
923.442	12943
923.55	13015
923.659	13095
923.767	13103
923.876	12791
923.984	13110
924.092	12821
924.201	12958
924.309	12837
924.417	12814
924.525	12749
924.633	12760
924.741	13605
924.849	12582
924.956	12722
925.064	12582
925.172	12536
925.279	12540
925.387	12604
925.494	12574
925.602	12654
925.709	12620
925.816	12410
925.924	12547
926.031	12608
926.138	12475
926.245	12509
926.352	12471
926.459	12509
926.566	12544
926.673	12456
926.779	12338
926.886	12254
926.993	12152
927.099	12171
927.206	12102
927.312	12091
927.419	12197
927.525	12106
927.631	12129
927.737	12049
927.843	11935
927.95	11817
928.056	11931
928.162	11973
928.267	11969
928.373	12502
928.479	12057
928.585	11752
928.69	12003
928.796	11901
928.901	11832
929.007	11691
929.112	11786
929.218	11805
929.323	11699
929.428	11733
929.533	11798
929.638	11592
929.743	11638
929.848	11771
929.953	11691
930.058	11532
930.163	11376
930.267	11425
930.372	11543
930.477	11307
930.581	11570
930.685	11452
930.79	11307
930.894	11311
930.998	11299
931.103	11463
931.207	11033
931.311	11022
931.415	10850
931.519	10683
931.623	10691
