Data from test_V78500241_1563.txt Node
Date: Fri Mar 25 15:20:44 CST 2022
User: usil
Spectrometer: V785-0024
Trigger mode: 0
Integration Time (sec): 4.000000E-1
Scans to average: 1
Nonlinearity correction enabled: false
Boxcar width: 0
Storing dark spectrum: false
XAxis mode: Wavelengths
Number of Pixels in Spectrum: 1024
>>>>>Begin Spectral Data<<<<<
801.071	27880
801.214	27785
801.356	27667
801.499	27572
801.641	27473
801.783	27545
801.926	27469
802.068	27473
802.211	27481
802.353	27420
802.496	27203
802.638	27085
802.78	27199
802.923	27051
803.065	27047
803.208	27047
803.35	27199
803.492	27275
803.635	27321
803.777	27302
803.919	27340
804.061	27580
804.204	27462
804.346	27214
804.488	27287
804.63	27283
804.773	27355
804.915	27199
805.057	27397
805.199	27146
805.341	27580
805.483	27519
805.626	27420
805.768	27336
805.91	27481
806.052	27439
806.194	27351
806.336	27542
806.478	27317
806.62	27378
806.762	27553
806.904	27637
807.046	27960
807.188	27850
807.33	27789
807.472	27964
807.614	27838
807.756	27751
807.898	27804
808.04	27720
808.182	27736
808.324	27873
808.465	27785
808.607	27918
808.749	28013
808.891	28169
809.033	28128
809.174	28101
809.316	28124
809.458	28040
809.6	28040
809.741	28173
809.883	28257
810.025	28337
810.166	28401
810.308	28478
810.45	28360
810.591	28276
810.733	28116
810.875	28131
811.016	27994
811.158	27964
811.299	28188
811.441	28215
811.582	28169
811.724	28036
811.865	28215
812.007	27956
812.148	28150
812.29	28051
812.431	28276
812.573	28306
812.714	28462
812.855	28447
812.997	28672
813.138	28869
813.279	28744
813.421	28531
813.562	28432
813.703	28504
813.845	28348
813.986	28105
814.127	27884
814.268	27857
814.41	27793
814.551	27614
814.692	27975
814.833	27812
814.974	27671
815.115	27819
815.256	27614
815.397	27625
815.539	27762
815.68	27625
815.821	27622
815.962	27644
816.103	27591
816.244	27431
816.385	27443
816.526	27367
816.666	27252
816.807	27047
816.948	27176
817.089	27176
817.23	27306
817.371	27104
817.512	27161
817.653	27138
817.793	26944
817.934	27074
818.075	27089
818.216	27066
818.356	27146
818.497	26971
818.638	26914
818.778	26834
818.919	26826
819.06	26937
819.2	26944
819.341	27089
819.481	27096
819.622	27226
819.762	27462
819.903	27370
820.043	27169
820.184	27272
820.324	27154
820.465	27291
820.605	27055
820.746	27256
820.886	27055
821.026	27138
821.167	27081
821.307	27138
821.447	27055
821.588	27070
821.728	26849
821.868	26712
822.008	26476
822.149	26598
822.289	26427
822.429	26328
822.569	26210
822.709	26180
822.849	26138
822.99	26111
823.13	26012
823.27	26065
823.41	25879
823.55	25761
823.69	25902
823.83	25811
823.97	25811
824.11	25613
824.25	25712
824.389	25742
824.529	25700
824.669	25731
824.809	25757
824.949	25772
825.089	25700
825.228	25750
825.368	25495
825.508	25597
825.648	25419
825.787	25556
825.927	25651
826.067	25552
826.206	25601
826.346	25708
826.485	25651
826.625	25491
826.765	25696
826.904	25613
827.044	25251
827.183	25369
827.323	25213
827.462	25304
827.601	25419
827.741	25236
827.88	25358
828.02	25259
828.159	25221
828.298	25103
828.437	25362
828.577	25202
828.716	25384
828.855	25137
828.994	25091
829.134	25027
829.273	25031
829.412	24875
829.551	24878
829.69	24909
829.829	24909
829.968	24973
830.107	25057
830.246	24992
830.385	24875
830.524	24932
830.663	24840
830.802	24772
830.941	24467
831.08	24525
831.219	24711
831.357	24696
831.496	24875
831.635	24658
831.774	24456
831.913	24525
832.051	24395
832.19	24365
832.329	24395
832.467	24277
832.606	24133
832.744	24159
832.883	24228
833.022	24239
833.16	24197
833.299	24311
833.437	24304
833.576	24300
833.714	24243
833.852	24464
833.991	24399
834.129	24395
834.267	24445
834.406	24342
834.544	24342
834.682	24308
834.821	24296
834.959	24528
835.097	24182
835.235	24353
835.373	24308
835.511	24232
835.65	24167
835.788	24117
835.926	24095
836.064	23908
836.202	23832
836.34	24114
836.478	24129
836.615	24038
836.753	24064
836.891	24144
837.029	24243
837.167	24053
837.305	23935
837.443	23935
837.58	23889
837.718	24178
837.856	24068
837.993	23992
838.131	24011
838.269	23874
838.406	23889
838.544	23722
838.681	23672
838.819	23554
838.956	23433
839.094	23421
839.231	23425
839.369	23630
839.506	23805
839.643	23779
839.781	23311
839.918	23311
840.055	23581
840.193	23425
840.33	23440
840.467	23440
840.604	23539
840.742	23543
840.879	23242
841.016	23212
841.153	23231
841.29	23482
841.427	23410
841.564	23372
841.701	23349
841.838	23227
841.975	23246
842.112	23265
842.249	23132
842.385	23181
842.522	23303
842.659	23212
842.796	23083
842.933	23003
843.069	23048
843.206	23090
843.343	23174
843.479	23052
843.616	23136
843.752	22915
843.889	22900
844.025	23124
844.162	22744
844.298	23052
844.435	22900
844.571	22767
844.708	22923
844.844	22995
844.98	22873
845.117	22965
845.253	22809
845.389	22626
845.525	22786
845.661	22790
845.798	22531
845.934	22656
846.07	22527
846.206	22702
846.342	22599
846.478	22668
846.614	22390
846.75	22284
846.886	22325
847.022	22550
847.158	22348
847.294	22299
847.429	22390
847.565	22440
847.701	22626
847.837	22013
847.972	22006
848.108	22162
848.244	22150
848.379	21934
848.515	21983
848.65	21857
848.786	21907
848.921	21895
849.057	22078
849.192	22025
849.328	21854
849.463	22013
849.598	21964
849.734	21781
849.869	21785
850.004	21622
850.14	21785
850.275	21789
850.41	21648
850.545	21686
850.68	21599
850.815	21652
850.95	21686
851.085	21907
851.22	21800
851.355	21663
851.49	21671
851.625	21747
851.76	21717
851.895	21610
852.03	21614
852.165	21717
852.299	21717
852.434	21751
852.569	21690
852.703	21614
852.838	21876
852.973	21789
853.107	21819
853.242	21637
853.376	21367
853.511	21393
853.645	21534
853.78	21606
853.914	21583
854.048	21397
854.183	21382
854.317	21507
854.451	21606
854.585	21583
854.72	21545
854.854	21637
854.988	21549
855.122	21466
855.256	21416
855.39	21526
855.524	21557
855.658	21435
855.792	21587
855.926	21485
856.06	21542
856.194	21492
856.327	21439
856.461	21500
856.595	21481
856.729	21500
856.862	21656
856.996	21595
857.13	21488
857.263	21686
857.397	21717
857.53	21466
857.664	21435
857.797	21424
857.931	21606
858.064	21542
858.197	21698
858.331	21545
858.464	21473
858.597	21405
858.731	21488
858.864	21587
858.997	21397
859.13	21641
859.263	21572
859.396	21652
859.529	21496
859.662	21526
859.795	21500
859.928	21603
860.061	21648
860.194	21675
860.327	21595
860.46	21591
860.592	21561
860.725	21736
860.858	21595
860.99	21462
861.123	21428
861.256	21405
861.388	21553
861.521	22268
861.653	21367
861.786	21230
861.918	21431
862.05	21344
862.183	21397
862.315	21408
862.447	21428
862.58	21454
862.712	21245
862.844	21104
862.976	21207
863.108	21317
863.24	21694
863.372	21135
863.504	21108
863.636	21146
863.768	21233
863.9	21294
864.032	21184
864.164	21188
864.296	21184
864.428	21195
864.559	21291
864.691	21272
864.823	21268
864.954	21199
865.086	21226
865.217	21169
865.349	21093
865.48	21096
865.612	20975
865.743	21214
865.875	21169
866.006	20956
866.137	21146
866.269	21176
866.4	21028
866.531	21058
866.662	21024
866.793	20998
866.924	21009
867.055	21001
867.186	21062
867.317	20925
867.448	20952
867.579	20925
867.71	20956
867.841	20952
867.972	21077
868.103	21089
868.233	21131
868.364	21180
868.495	21165
868.625	21230
868.756	21325
868.886	21264
869.017	21275
869.147	21450
869.278	21439
869.408	21401
869.539	21207
869.669	21549
869.799	21302
869.929	21393
870.06	21348
870.19	21545
870.32	21576
870.45	21766
870.58	21648
870.71	21667
870.84	21770
870.97	21652
871.1	21625
871.23	21778
871.36	21827
871.489	21724
871.619	21781
871.749	21903
871.879	21911
872.008	21964
872.138	21869
872.267	21960
872.397	21869
872.526	21720
872.656	21660
872.785	21633
872.915	21926
873.044	22029
873.173	21987
873.303	21915
873.432	21964
873.561	22025
873.69	21869
873.819	21930
873.948	22002
874.077	21911
874.206	21785
874.335	21880
874.464	21945
874.593	22173
874.722	22055
874.851	22128
874.979	22040
875.108	22112
875.237	22097
875.365	21994
875.494	22059
875.623	22105
875.751	21991
875.88	22093
876.008	22200
876.136	22318
876.265	22489
876.393	22630
876.521	22622
876.65	22706
876.778	22459
876.906	22424
877.034	22489
877.162	22489
877.29	22516
877.418	22500
877.546	22402
877.674	22436
877.802	22363
877.93	22485
878.058	22489
878.185	22306
878.313	22440
878.441	22409
878.568	22207
878.696	22405
878.824	22489
878.951	22455
879.079	22519
879.206	22744
879.333	22656
879.461	22470
879.588	22504
879.715	22611
879.842	22748
879.97	22504
880.097	22306
880.224	22421
880.351	22253
880.478	22394
880.605	22147
880.732	22261
880.859	22668
880.986	22303
881.112	22371
881.239	22063
881.366	21918
881.493	21968
881.619	21808
881.746	21888
881.872	21838
881.999	21846
882.125	21660
882.252	21789
882.378	21762
882.505	21953
882.631	21633
882.757	21538
882.883	21500
883.01	21530
883.136	21351
883.262	21378
883.388	21447
883.514	21576
883.64	21538
883.766	21492
883.892	21386
884.018	21340
884.143	21500
884.269	21500
884.395	21226
884.52	21066
884.646	21161
884.772	21074
884.897	21055
885.023	21233
885.148	21291
885.274	21157
885.399	21367
885.524	21188
885.65	21188
885.775	21249
885.9	21131
886.025	21298
886.15	21275
886.275	21218
886.4	21028
886.525	21195
886.65	21066
886.775	20956
886.9	21317
887.025	21382
887.149	21085
887.274	21017
887.399	20963
887.523	20838
887.648	20807
887.773	20883
887.897	20956
888.021	20998
888.146	20857
888.27	21074
888.395	21070
888.519	20963
888.643	21009
888.767	20948
888.891	20796
889.015	20830
889.139	20765
889.263	20758
889.387	20868
889.511	20998
889.635	20781
889.759	20750
889.883	20807
890.006	20724
890.13	20834
890.254	20594
890.377	20613
890.501	20560
890.624	20389
890.748	20568
890.871	20328
890.995	20263
891.118	20355
891.241	20313
891.364	20286
891.488	20488
891.611	20248
891.734	20393
891.857	20324
891.98	20412
892.103	20339
892.226	20339
892.349	20210
892.471	20168
892.594	20290
892.717	20263
892.839	20210
892.962	20332
893.085	20305
893.207	20366
893.33	20126
893.452	20195
893.575	20290
893.697	20320
893.819	20339
893.941	20530
894.064	20355
894.186	20164
894.308	20138
894.43	20298
894.552	20278
894.674	20313
894.796	20046
894.918	20301
895.04	20176
895.161	20267
895.283	20237
895.405	20206
895.526	20309
895.648	20278
895.769	20275
895.891	20248
896.012	20294
896.134	20298
896.255	20248
896.376	20298
896.498	20256
896.619	20351
896.74	20252
896.861	20183
896.982	20648
897.103	20785
897.224	20518
897.345	20499
897.466	20446
897.587	20480
897.708	20602
897.828	20423
897.949	20537
898.07	20366
898.19	20408
898.311	20450
898.431	20385
898.552	20457
898.672	20686
898.792	20583
898.913	20507
899.033	20347
899.153	20210
899.273	20122
899.393	20153
899.513	20081
899.633	20153
899.753	20206
899.873	20096
899.993	20267
900.113	20031
900.232	20164
900.352	20008
900.472	20012
900.591	19875
900.711	20050
900.83	19982
900.95	20092
901.069	20073
901.189	19765
901.308	19624
901.427	19700
901.546	19575
901.665	19552
901.784	19586
901.904	19388
902.023	19343
902.141	19209
902.26	19118
902.379	19088
902.498	19133
902.617	18947
902.735	19088
902.854	18977
902.973	18989
903.091	18532
903.21	18772
903.328	18840
903.446	18745
903.565	18597
903.683	18639
903.801	18414
903.919	18578
904.038	18407
904.156	18346
904.274	18407
904.392	18296
904.51	18315
904.627	18361
904.745	18296
904.863	18262
904.981	18049
905.098	17988
905.216	18068
905.334	17950
905.451	17973
905.569	18038
905.686	17996
905.803	18041
905.921	17840
906.038	17859
906.155	17813
906.272	17729
906.389	17771
906.506	17634
906.623	17539
906.74	17520
906.857	17425
906.974	17543
907.091	17543
907.208	17649
907.324	17653
907.441	17387
907.557	17292
907.674	17261
907.79	17220
907.907	17212
908.023	17269
908.139	17269
908.256	17181
908.372	17174
908.488	17117
908.604	16904
908.72	16927
908.836	16972
908.952	16843
909.068	16953
909.184	17045
909.3	16949
909.415	16885
909.531	16953
909.647	16649
909.762	16694
909.878	16641
909.993	16679
910.108	16683
910.224	16584
910.339	16588
910.454	16497
910.57	16588
910.685	16325
910.8	16687
910.915	16664
911.03	16417
911.145	16280
911.259	16280
911.374	16306
911.489	16116
911.604	16116
911.718	16013
911.833	16017
911.947	15945
912.062	15717
912.176	15953
912.291	16051
912.405	16002
912.519	16120
912.633	16150
912.748	16002
912.862	15949
912.976	15816
913.09	15755
913.204	15652
913.318	15831
913.431	15827
913.545	15842
913.659	15964
913.772	15717
913.886	15629
914	15633
914.113	15637
914.226	15808
914.34	15694
914.453	15363
914.566	15553
914.68	15500
914.793	15416
914.906	15310
915.019	15165
915.132	15127
915.245	15214
915.358	15279
915.47	15245
915.583	15230
915.696	15268
915.809	15287
915.921	15279
916.034	15112
916.146	15203
916.259	15104
916.371	15192
916.483	15252
916.595	15047
916.708	15070
916.82	15009
916.932	14956
917.044	14975
917.156	14986
917.268	14800
917.38	14876
917.491	14842
917.603	14853
917.715	14899
917.826	15024
917.938	14899
918.049	14720
918.161	14876
918.272	14925
918.384	14929
918.495	14872
918.606	14621
918.717	14594
918.828	14598
918.939	14629
919.05	14495
919.161	14594
919.272	14396
919.383	14461
919.494	14663
919.604	14727
919.715	14549
919.826	14514
919.936	14590
920.047	14617
920.157	14610
920.267	14758
920.378	14564
920.488	14499
920.598	14640
920.708	14838
920.818	14693
920.928	14697
921.038	14800
921.148	14746
921.258	14583
921.368	14438
921.477	14358
921.587	14240
921.697	14221
921.806	14366
921.916	14286
922.025	14035
922.134	14012
922.244	13830
922.353	14043
922.462	13826
922.571	13818
922.68	13590
922.789	13620
922.898	13601
923.007	13639
923.116	13616
923.224	13499
923.333	13559
923.442	13502
923.55	13434
923.659	13354
923.767	13575
923.876	13438
923.984	13411
924.092	13354
924.201	13468
924.309	13396
924.417	13244
924.525	13209
924.633	13289
924.741	14035
924.849	13160
924.956	13129
925.064	13053
925.172	12970
925.279	12935
925.387	13012
925.494	13019
925.602	13107
925.709	12996
925.816	12894
925.924	12928
926.031	12993
926.138	13019
926.245	13023
926.352	12875
926.459	12962
926.566	12993
926.673	12909
926.779	12719
926.886	12726
926.993	12620
927.099	12544
927.206	12486
927.312	12566
927.419	12673
927.525	12471
927.631	12547
927.737	12437
927.843	12525
927.95	12209
928.056	12350
928.162	12410
928.267	12506
928.373	13129
928.479	12410
928.585	12197
928.69	12311
928.796	12304
928.901	12239
929.007	12144
929.112	12205
929.218	12247
929.323	12186
929.428	12053
929.533	12201
929.638	12076
929.743	11988
929.848	12159
929.953	12034
930.058	12034
930.163	11786
930.267	11779
930.372	11950
930.477	11790
930.581	11988
930.685	11851
930.79	11691
930.894	11695
930.998	11623
931.103	11878
931.207	11444
931.311	11330
931.415	11292
931.519	11067
931.623	11052
