Data from test_V78500241_378.txt Node
Date: Fri Mar 25 15:12:29 CST 2022
User: usil
Spectrometer: V785-0024
Trigger mode: 0
Integration Time (sec): 4.000000E-1
Scans to average: 1
Nonlinearity correction enabled: false
Boxcar width: 0
Storing dark spectrum: false
XAxis mode: Wavelengths
Number of Pixels in Spectrum: 1024
>>>>>Begin Spectral Data<<<<<
801.071	26880
801.214	26849
801.356	26636
801.499	26629
801.641	26587
801.783	26453
801.926	26609
802.068	26492
802.211	26309
802.353	26282
802.496	26073
802.638	26088
802.78	26138
802.923	25970
803.065	26111
803.208	26084
803.35	26187
803.492	26195
803.635	26366
803.777	26081
803.919	26339
804.061	26629
804.204	26210
804.346	26145
804.488	26138
804.63	26073
804.773	26058
804.915	26149
805.057	26324
805.199	26294
805.341	26233
805.483	26267
805.626	26396
805.768	26088
805.91	26336
806.052	26332
806.194	26286
806.336	26370
806.478	26317
806.62	26271
806.762	26541
806.904	26450
807.046	26857
807.188	26750
807.33	26659
807.472	26842
807.614	26769
807.756	26811
807.898	26606
808.04	26434
808.182	26537
808.324	26629
808.465	26587
808.607	26682
808.749	26895
808.891	27005
809.033	26948
809.174	26994
809.316	26743
809.458	26979
809.6	26910
809.741	26815
809.883	27127
810.025	27135
810.166	27173
810.308	27256
810.45	27195
810.591	27161
810.733	26963
810.875	26933
811.016	26727
811.158	26663
811.299	26925
811.441	27222
811.582	26937
811.724	26731
811.865	26758
812.007	26872
812.148	26800
812.29	27001
812.431	27192
812.573	27264
812.714	27199
812.855	27348
812.997	27500
813.138	27656
813.279	27595
813.421	27393
813.562	27477
813.703	27146
813.845	27233
813.986	26929
814.127	26587
814.268	26636
814.41	26541
814.551	26374
814.692	26526
814.833	26476
814.974	26507
815.115	26545
815.256	26404
815.397	26427
815.539	26358
815.68	26332
815.821	26271
815.962	26377
816.103	26351
816.244	26119
816.385	26073
816.526	26039
816.666	25951
816.807	25715
816.948	25951
817.089	26027
817.23	25864
817.371	25811
817.512	25662
817.653	25772
817.793	25814
817.934	25845
818.075	25807
818.216	25803
818.356	25868
818.497	25651
818.638	25609
818.778	25499
818.919	25540
819.06	25445
819.2	25708
819.341	25765
819.481	25765
819.622	25936
819.762	26103
819.903	26103
820.043	25963
820.184	26046
820.324	25909
820.465	25860
820.605	25913
820.746	25917
820.886	25791
821.026	25845
821.167	25913
821.307	25868
821.447	25639
821.588	25662
821.728	25537
821.868	25453
822.008	25263
822.149	25206
822.289	25316
822.429	25057
822.569	25091
822.709	24901
822.849	24909
822.99	24814
823.13	24654
823.27	24620
823.41	24688
823.55	24544
823.69	24601
823.83	24502
823.97	24578
824.11	24262
824.25	24365
824.389	24281
824.529	24597
824.669	24467
824.809	24505
824.949	24399
825.089	24601
825.228	24361
825.368	24281
825.508	24330
825.648	24292
825.787	24277
825.927	24391
826.067	24292
826.206	24258
826.346	24456
826.485	24144
826.625	24262
826.765	24422
826.904	24224
827.044	24003
827.183	24018
827.323	23988
827.462	24045
827.601	23805
827.741	23996
827.88	24098
828.02	23870
828.159	23912
828.298	24121
828.437	24144
828.577	23889
828.716	24049
828.855	24015
828.994	23756
829.134	23691
829.273	23775
829.412	23653
829.551	23604
829.69	23783
829.829	23691
829.968	23855
830.107	23707
830.246	23710
830.385	23577
830.524	23535
830.663	23524
830.802	23448
830.941	23341
831.08	23353
831.219	23440
831.357	23463
831.496	23391
831.635	23360
831.774	23162
831.913	23235
832.051	23185
832.19	23117
832.329	23376
832.467	23162
832.606	23113
832.744	23052
832.883	23064
833.022	22965
833.16	23083
833.299	23003
833.437	23113
833.576	23025
833.714	23143
833.852	23121
833.991	23075
834.129	23044
834.267	23216
834.406	23200
834.544	23075
834.682	23025
834.821	23151
834.959	23261
835.097	22972
835.235	23174
835.373	23079
835.511	23090
835.65	23067
835.788	22984
835.926	22820
836.064	22649
836.202	22790
836.34	23003
836.478	23037
836.615	22968
836.753	22759
836.891	23109
837.029	23003
837.167	22965
837.305	22839
837.443	22816
837.58	22774
837.718	22801
837.856	22679
837.993	22744
838.131	22862
838.269	22717
838.406	22713
838.544	22664
838.681	22474
838.819	22451
838.956	22249
839.094	22306
839.231	22314
839.369	22428
839.506	22660
839.643	22599
839.781	22398
839.918	22147
840.055	22143
840.193	22253
840.33	22242
840.467	22341
840.604	22230
840.742	22527
840.879	22048
841.016	22044
841.153	22101
841.29	22348
841.427	22112
841.564	22154
841.701	22120
841.838	22078
841.975	22207
842.112	22067
842.249	21903
842.385	21892
842.522	22173
842.659	22101
842.796	21960
842.933	21987
843.069	21926
843.206	21907
843.343	22086
843.479	21983
843.616	21930
843.752	21759
843.889	21701
844.025	21823
844.162	21751
844.298	21831
844.435	21709
844.571	21732
844.708	21739
844.844	21934
844.98	21869
845.117	21930
845.253	21717
845.389	21759
845.525	21568
845.661	21633
845.798	21504
845.934	21534
846.07	21466
846.206	21492
846.342	21545
846.478	21610
846.614	21272
846.75	21260
846.886	21264
847.022	21416
847.158	21199
847.294	21424
847.429	21336
847.565	21157
847.701	21386
847.837	20914
847.972	20952
848.108	20960
848.244	21032
848.379	20731
848.515	20785
848.65	20861
848.786	20925
848.921	20857
849.057	21055
849.192	20979
849.328	20823
849.463	20800
849.598	20769
849.734	20735
849.869	20792
850.004	20640
850.14	20792
850.275	20765
850.41	20476
850.545	20507
850.68	20556
850.815	20499
850.95	20651
851.085	20834
851.22	20648
851.355	20606
851.49	20594
851.625	20545
851.76	20549
851.895	20526
852.03	20400
852.165	20594
852.299	20537
852.434	20670
852.569	20598
852.703	20617
852.838	20530
852.973	20708
853.107	20655
853.242	20556
853.376	20541
853.511	20377
853.645	20381
853.78	20587
853.914	20465
854.048	20415
854.183	20469
854.317	20469
854.451	20564
854.585	20393
854.72	20431
854.854	20590
854.988	20465
855.122	20381
855.256	20214
855.39	20488
855.524	20499
855.658	20549
855.792	20476
855.926	20427
856.06	20328
856.194	20442
856.327	20419
856.461	20366
856.595	20454
856.729	20415
856.862	20541
856.996	20358
857.13	20492
857.263	20549
857.397	20575
857.53	20362
857.664	20415
857.797	20412
857.931	20415
858.064	20347
858.197	20549
858.331	20404
858.464	20229
858.597	20313
858.731	20457
858.864	20427
858.997	20393
859.13	20396
859.263	20450
859.396	20495
859.529	20431
859.662	20275
859.795	20347
859.928	20358
860.061	20568
860.194	20625
860.327	20469
860.46	20343
860.592	20571
860.725	20541
860.858	20522
860.99	20412
861.123	20343
861.256	20393
861.388	20545
861.521	21051
861.653	20298
861.786	20168
861.918	20290
862.05	20355
862.183	20339
862.315	20343
862.447	20434
862.58	20446
862.712	20092
862.844	20134
862.976	20225
863.108	20263
863.24	20629
863.372	20149
863.504	20221
863.636	20096
863.768	20210
863.9	20142
864.032	20084
864.164	20088
864.296	20103
864.428	20256
864.559	20153
864.691	20328
864.823	20278
864.954	20062
865.086	20119
865.217	20081
865.349	20035
865.48	20084
865.612	19982
865.743	20199
865.875	20096
866.006	19940
866.137	20043
866.269	19986
866.4	20081
866.531	19993
866.662	19833
866.793	19989
866.924	19871
867.055	20016
867.186	19967
867.317	19894
867.448	19898
867.579	19997
867.71	19955
867.841	19925
867.972	19955
868.103	20058
868.233	19970
868.364	20008
868.495	20100
868.625	20164
868.756	20275
868.886	20172
869.017	20164
869.147	20377
869.278	20309
869.408	20381
869.539	20206
869.669	20358
869.799	20290
869.929	20461
870.06	20423
870.19	20579
870.32	20560
870.45	20640
870.58	20571
870.71	20746
870.84	20769
870.97	20598
871.1	20644
871.23	20807
871.36	20864
871.489	20758
871.619	20929
871.749	20773
871.879	20804
872.008	20891
872.138	20758
872.267	20762
872.397	20743
872.526	20613
872.656	20598
872.785	20762
872.915	20819
873.044	21020
873.173	20933
873.303	20994
873.432	21005
873.561	21001
873.69	20842
873.819	20880
873.948	20880
874.077	20743
874.206	20826
874.335	20902
874.464	20891
874.593	21188
874.722	21093
874.851	21165
874.979	21112
875.108	21127
875.237	21077
875.365	21066
875.494	21051
875.623	21184
875.751	21043
875.88	21157
876.008	21207
876.136	21298
876.265	21412
876.393	21610
876.521	21599
876.65	21618
876.778	21405
876.906	21382
877.034	21500
877.162	21374
877.29	21511
877.418	21519
877.546	21557
877.674	21443
877.802	21416
877.93	21469
878.058	21363
878.185	21454
878.313	21492
878.441	21477
878.568	21264
878.696	21564
878.824	21523
878.951	21500
879.079	21568
879.206	21747
879.333	21732
879.461	21386
879.588	21496
879.715	21599
879.842	21732
879.97	21614
880.097	21329
880.224	21256
880.351	21321
880.478	21218
880.605	21283
880.732	21268
880.859	21526
880.986	21093
881.112	21291
881.239	21100
881.366	21024
881.493	21032
881.619	20739
881.746	20826
881.872	20902
881.999	20815
882.125	20758
882.252	20902
882.378	20800
882.505	20857
882.631	20807
882.757	20765
882.883	20705
883.01	20655
883.136	20431
883.262	20514
883.388	20393
883.514	20594
883.64	20598
883.766	20393
883.892	20248
884.018	20431
884.143	20541
884.269	20613
884.395	20332
884.52	20107
884.646	20317
884.772	20054
884.897	20077
885.023	20275
885.148	20343
885.274	20389
885.399	20362
885.524	20286
885.65	20267
885.775	20191
885.9	20199
886.025	20374
886.15	20305
886.275	20282
886.4	20183
886.525	20240
886.65	20161
886.775	20176
886.9	20305
887.025	20454
887.149	20233
887.274	20039
887.399	20031
887.523	19932
887.648	20012
887.773	19963
887.897	20126
888.021	20161
888.146	19925
888.27	20119
888.395	20130
888.519	19951
888.643	20008
888.767	20077
888.891	19970
889.015	19795
889.139	19894
889.263	19788
889.387	19860
889.511	19978
889.635	19959
889.759	19811
889.883	19856
890.006	19841
890.13	19940
890.254	19734
890.377	19704
890.501	19499
890.624	19472
890.748	19567
890.871	19491
890.995	19415
891.118	19316
891.241	19499
891.364	19282
891.488	19434
891.611	19396
891.734	19327
891.857	19525
891.98	19350
892.103	19403
892.226	19384
892.349	19362
892.471	19236
892.594	19297
892.717	19415
892.839	19228
892.962	19324
893.085	19335
893.207	19324
893.33	19198
893.452	19202
893.575	19457
893.697	19324
893.819	19365
893.941	19468
894.064	19445
894.186	19350
894.308	19160
894.43	19358
894.552	19464
894.674	19301
894.796	19145
894.918	19228
895.04	19221
895.161	19377
895.283	19320
895.405	19236
895.526	19335
895.648	19350
895.769	19411
895.891	19441
896.012	19335
896.134	19381
896.255	19335
896.376	19259
896.498	19263
896.619	19266
896.74	19403
896.861	19343
896.982	19662
897.103	19860
897.224	19521
897.345	19480
897.466	19518
897.587	19662
897.708	19601
897.828	19658
897.949	19487
898.07	19483
898.19	19445
898.311	19575
898.431	19552
898.552	19464
898.672	19556
898.792	19628
898.913	19552
899.033	19441
899.153	19464
899.273	19343
899.393	19339
899.513	19343
899.633	19282
899.753	19293
899.873	19297
899.993	19350
900.113	19190
900.232	19381
900.352	19327
900.472	19122
900.591	19114
900.711	19202
900.83	19034
900.95	19179
901.069	19270
901.189	18935
901.308	18821
901.427	18707
901.546	18623
901.665	18787
901.784	18749
901.904	18582
902.023	18433
902.141	18235
902.26	18254
902.379	18270
902.498	18239
902.617	18205
902.735	18232
902.854	18133
902.973	18220
903.091	17942
903.21	17843
903.328	17984
903.446	17859
903.565	17691
903.683	17668
903.801	17478
903.919	17668
904.038	17722
904.156	17528
904.274	17501
904.392	17417
904.51	17448
904.627	17528
904.745	17436
904.863	17630
904.981	17372
905.098	17197
905.216	17159
905.334	17166
905.451	17277
905.569	17212
905.686	17269
905.803	17102
905.921	16938
906.038	16999
906.155	16892
906.272	16816
906.389	16831
906.506	16755
906.623	16713
906.74	16672
906.857	16474
906.974	16675
907.091	16786
907.208	16809
907.324	16752
907.441	16611
907.557	16485
907.674	16531
907.79	16310
907.907	16386
908.023	16512
908.139	16394
908.256	16405
908.372	16394
908.488	16314
908.604	16188
908.72	16192
908.836	16169
908.952	16040
909.068	16116
909.184	16261
909.3	16181
909.415	16211
909.531	16071
909.647	15918
909.762	15953
909.878	15797
909.993	15899
910.108	15861
910.224	15812
910.339	15781
910.454	15785
910.57	15637
910.685	15656
910.8	15850
910.915	15838
911.03	15641
911.145	15485
911.259	15488
911.374	15507
911.489	15424
911.604	15370
911.718	15294
911.833	15233
911.947	15104
912.062	14952
912.176	15150
912.291	15237
912.405	15176
912.519	15428
912.633	15298
912.748	15279
912.862	15081
912.976	14967
913.09	15017
913.204	14994
913.318	15043
913.431	15100
913.545	15173
913.659	15058
913.772	15017
913.886	14849
914	14788
914.113	14921
914.226	15013
914.34	14849
914.453	14746
914.566	14933
914.68	14826
914.793	14788
914.906	14495
915.019	14484
915.132	14446
915.245	14454
915.358	14488
915.47	14530
915.583	14438
915.696	14499
915.809	14507
915.921	14564
916.034	14366
916.146	14374
916.259	14305
916.371	14454
916.483	14465
916.595	14358
916.708	14473
916.82	14343
916.932	14298
917.044	14355
917.156	14294
917.268	14100
917.38	14138
917.491	14065
917.603	14168
917.715	14157
917.826	14187
917.938	14126
918.049	13986
918.161	14180
918.272	14301
918.384	14199
918.495	14157
918.606	14005
918.717	13879
918.828	13936
918.939	13925
919.05	13917
919.161	13936
919.272	13704
919.383	13791
919.494	13917
919.604	14172
919.715	14001
919.826	13830
919.936	13868
920.047	13997
920.157	13932
920.267	14111
920.378	13944
920.488	13849
920.598	14111
920.708	14195
920.818	14073
920.928	14001
921.038	14244
921.148	14176
921.258	13860
921.368	13780
921.477	13708
921.587	13677
921.697	13601
921.806	13727
921.916	13529
922.025	13365
922.134	13335
922.244	13346
922.353	13297
922.462	13160
922.571	13095
922.68	12985
922.789	12909
922.898	12947
923.007	12886
923.116	12996
923.224	13023
923.333	12875
923.442	12779
923.55	12798
923.659	12878
923.767	12890
923.876	12734
923.984	12848
924.092	12627
924.201	12749
924.309	12688
924.417	12791
924.525	12662
924.633	12635
924.741	13369
924.849	12445
924.956	12631
925.064	12448
925.172	12391
925.279	12433
925.387	12528
925.494	12410
925.602	12540
925.709	12566
925.816	12342
925.924	12365
926.031	12467
926.138	12380
926.245	12494
926.352	12251
926.459	12376
926.566	12391
926.673	12308
926.779	12167
926.886	12152
926.993	12034
927.099	11958
927.206	11878
927.312	11984
927.419	12049
927.525	11999
927.631	11931
927.737	11870
927.843	11859
927.95	11729
928.056	11783
928.162	11821
928.267	11878
928.373	12479
928.479	11843
928.585	11653
928.69	11775
928.796	11809
928.901	11695
929.007	11611
929.112	11718
929.218	11646
929.323	11592
929.428	11558
929.533	11691
929.638	11520
929.743	11573
929.848	11581
929.953	11547
930.058	11398
930.163	11235
930.267	11356
930.372	11402
930.477	11246
930.581	11509
930.685	11303
930.79	11223
930.894	11239
930.998	11079
931.103	11299
931.207	10923
931.311	10911
931.415	10721
931.519	10573
931.623	10561
