Data from test_V78500241_1644.txt Node
Date: Fri Mar 25 15:21:18 CST 2022
User: usil
Spectrometer: V785-0024
Trigger mode: 0
Integration Time (sec): 4.000000E-1
Scans to average: 1
Nonlinearity correction enabled: false
Boxcar width: 0
Storing dark spectrum: false
XAxis mode: Wavelengths
Number of Pixels in Spectrum: 1024
>>>>>Begin Spectral Data<<<<<
801.071	27599
801.214	27496
801.356	27332
801.499	27310
801.641	27329
801.783	27294
801.926	27161
802.068	27272
802.211	27241
802.353	27074
802.496	26940
802.638	26880
802.78	26891
802.923	26838
803.065	26826
803.208	26765
803.35	26910
803.492	27005
803.635	26967
803.777	26925
803.919	27066
804.061	27272
804.204	27077
804.346	27005
804.488	26975
804.63	26994
804.773	27036
804.915	27138
805.057	27188
805.199	27074
805.341	27119
805.483	27226
805.626	27131
805.768	27062
805.91	27142
806.052	27374
806.194	27093
806.336	27321
806.478	27199
806.62	27207
806.762	27249
806.904	27542
807.046	27580
807.188	27549
807.33	27614
807.472	27641
807.614	27557
807.756	27622
807.898	27439
808.04	27553
808.182	27340
808.324	27405
808.465	27355
808.607	27660
808.749	27846
808.891	27793
809.033	28055
809.174	27831
809.316	27774
809.458	27743
809.6	27964
809.741	27846
809.883	27934
810.025	28116
810.166	28055
810.308	28226
810.45	27960
810.591	27861
810.733	27808
810.875	27755
811.016	27595
811.158	27663
811.299	27781
811.441	27911
811.582	27968
811.724	27793
811.865	27724
812.007	27633
812.148	27888
812.29	27838
812.431	27869
812.573	28032
812.714	28284
812.855	28287
812.997	28265
813.138	28546
813.279	28409
813.421	28280
813.562	28257
813.703	28048
813.845	28002
813.986	27667
814.127	27405
814.268	27466
814.41	27523
814.551	27462
814.692	27435
814.833	27405
814.974	27378
815.115	27469
815.256	27367
815.397	27382
815.539	27408
815.68	27298
815.821	27173
815.962	27245
816.103	27230
816.244	26979
816.385	26990
816.526	26910
816.666	26967
816.807	26781
816.948	26834
817.089	26785
817.23	26940
817.371	26796
817.512	26792
817.653	26785
817.793	26598
817.934	26590
818.075	26788
818.216	26785
818.356	26689
818.497	26465
818.638	26450
818.778	26492
818.919	26366
819.06	26568
819.2	26609
819.341	26743
819.481	26648
819.622	26830
819.762	27112
819.903	27005
820.043	26963
820.184	26929
820.324	26838
820.465	26914
820.605	26746
820.746	26937
820.886	26754
821.026	26705
821.167	26739
821.307	26895
821.447	26720
821.588	26629
821.728	26450
821.868	26442
822.008	26206
822.149	26275
822.289	26187
822.429	25818
822.569	25894
822.709	25913
822.849	25776
822.99	25772
823.13	25658
823.27	25734
823.41	25483
823.55	25407
823.69	25590
823.83	25594
823.97	25514
824.11	25285
824.25	25156
824.389	25331
824.529	25552
824.669	25449
824.809	25384
824.949	25597
825.089	25381
825.228	25430
825.368	25209
825.508	25228
825.648	25088
825.787	25312
825.927	25282
826.067	25255
826.206	25206
826.346	25293
826.485	25343
826.625	25190
826.765	25327
826.904	25346
827.044	24867
827.183	25057
827.323	24848
827.462	25076
827.601	24935
827.741	24905
827.88	24996
828.02	24958
828.159	25031
828.298	25034
828.437	24973
828.577	24973
828.716	25107
828.855	24920
828.994	24719
829.134	24661
829.273	24745
829.412	24749
829.551	24540
829.69	24669
829.829	24608
829.968	24722
830.107	24700
830.246	24639
830.385	24601
830.524	24570
830.663	24608
830.802	24384
830.941	24247
831.08	24330
831.219	24426
831.357	24388
831.496	24559
831.635	24190
831.774	24201
831.913	24171
832.051	24018
832.19	24083
832.329	24194
832.467	23980
832.606	23855
832.744	23916
832.883	23901
833.022	23824
833.16	23859
833.299	23977
833.437	24034
833.576	23923
833.714	23942
833.852	24140
833.991	24060
834.129	24117
834.267	24254
834.406	24095
834.544	23973
834.682	24045
834.821	23988
834.959	24121
835.097	23984
835.235	24034
835.373	24057
835.511	23954
835.65	23882
835.788	23901
835.926	23661
836.064	23649
836.202	23790
836.34	23824
836.478	23847
836.615	23718
836.753	23908
836.891	23958
837.029	23980
837.167	23863
837.305	23840
837.443	23653
837.58	23779
837.718	23714
837.856	23741
837.993	23657
838.131	23707
838.269	23482
838.406	23592
838.544	23463
838.681	23467
838.819	23277
838.956	23197
839.094	23117
839.231	23208
839.369	23227
839.506	23581
839.643	23433
839.781	23155
839.918	23090
840.055	23220
840.193	23056
840.33	23044
840.467	23056
840.604	23052
840.742	23463
840.879	22949
841.016	22984
841.153	22984
841.29	22991
841.427	23098
841.564	23022
841.701	23185
841.838	23041
841.975	22915
842.112	22946
842.249	22889
842.385	22904
842.522	22991
842.659	22915
842.796	22824
842.933	22835
843.069	22820
843.206	22831
843.343	22847
843.479	22843
843.616	22771
843.752	22679
843.889	22668
844.025	22824
844.162	22691
844.298	22771
844.435	22557
844.571	22611
844.708	22599
844.844	22824
844.98	22675
845.117	22702
845.253	22565
845.389	22546
845.525	22459
845.661	22455
845.798	22360
845.934	22356
846.07	22337
846.206	22276
846.342	22474
846.478	22306
846.614	22200
846.75	21968
846.886	22032
847.022	22078
847.158	22070
847.294	22036
847.429	22070
847.565	22086
847.701	22291
847.837	21812
847.972	21759
848.108	21838
848.244	21751
848.379	21701
848.515	21660
848.65	21587
848.786	21561
848.921	21690
849.057	21717
849.192	21831
849.328	21679
849.463	21660
849.598	21542
849.734	21504
849.869	21496
850.004	21481
850.14	21534
850.275	21507
850.41	21321
850.545	21450
850.68	21272
850.815	21511
850.95	21408
851.085	21595
851.22	21637
851.355	21397
851.49	21454
851.625	21424
851.76	21367
851.895	21374
852.03	21260
852.165	21348
852.299	21393
852.434	21580
852.569	21519
852.703	21431
852.838	21492
852.973	21557
853.107	21603
853.242	21310
853.376	21260
853.511	21142
853.645	21329
853.78	21344
853.914	21252
854.048	21230
854.183	21275
854.317	21264
854.451	21534
854.585	21329
854.72	21332
854.854	21294
854.988	21214
855.122	21317
855.256	21100
855.39	21283
855.524	21329
855.658	21306
855.792	21287
855.926	21321
856.06	21321
856.194	21386
856.327	21287
856.461	21237
856.595	21211
856.729	21294
856.862	21382
856.996	21252
857.13	21424
857.263	21340
857.397	21367
857.53	21321
857.664	21214
857.797	21481
857.931	21378
858.064	21313
858.197	21245
858.331	21283
858.464	21241
858.597	21104
858.731	21252
858.864	21287
858.997	21207
859.13	21275
859.263	21275
859.396	21351
859.529	21195
859.662	21249
859.795	21211
859.928	21355
860.061	21454
860.194	21348
860.327	21306
860.46	21199
860.592	21412
860.725	21424
860.858	21496
860.99	21222
861.123	21203
861.256	21135
861.388	21272
861.521	21892
861.653	21135
861.786	21093
861.918	21062
862.05	21173
862.183	21218
862.315	21233
862.447	21256
862.58	21249
862.712	20929
862.844	21043
862.976	21032
863.108	21013
863.24	21408
863.372	20883
863.504	20853
863.636	20986
863.768	20925
863.9	21017
864.032	20891
864.164	20963
864.296	21036
864.428	21089
864.559	21055
864.691	20960
864.823	20948
864.954	20891
865.086	20914
865.217	20872
865.349	20853
865.48	20979
865.612	20834
865.743	21047
865.875	20861
866.006	20883
866.137	20857
866.269	20765
866.4	20788
866.531	20815
866.662	20815
866.793	20758
866.924	20758
867.055	20838
867.186	20750
867.317	20678
867.448	20750
867.579	20746
867.71	20769
867.841	20701
867.972	20830
868.103	20796
868.233	20788
868.364	20887
868.495	20944
868.625	21077
868.756	21146
868.886	20960
869.017	21157
869.147	21127
869.278	21131
869.408	21051
869.539	21036
869.669	20952
869.799	21070
869.929	21214
870.06	21142
870.19	21389
870.32	21367
870.45	21378
870.58	21572
870.71	21515
870.84	21519
870.97	21469
871.1	21420
871.23	21542
871.36	21625
871.489	21523
871.619	21644
871.749	21701
871.879	21553
872.008	21751
872.138	21762
872.267	21633
872.397	21439
872.526	21504
872.656	21511
872.785	21542
872.915	21686
873.044	21842
873.173	21736
873.303	21705
873.432	21641
873.561	21671
873.69	21743
873.819	21637
873.948	21755
874.077	21641
874.206	21561
874.335	21572
874.464	21785
874.593	21956
874.722	21945
874.851	22093
874.979	21884
875.108	22013
875.237	21835
875.365	21713
875.494	21857
875.623	22025
875.751	21793
875.88	21941
876.008	22032
876.136	22143
876.265	22299
876.393	22436
876.521	22367
876.65	22344
876.778	22238
876.906	22131
877.034	22143
877.162	22310
877.29	22333
877.418	22238
877.546	22173
877.674	22226
877.802	22238
877.93	22223
878.058	22158
878.185	22207
878.313	22280
878.441	22188
878.568	22139
878.696	22284
878.824	22261
878.951	22234
879.079	22531
879.206	22531
879.333	22341
879.461	22322
879.588	22341
879.715	22333
879.842	22516
879.97	22223
880.097	21987
880.224	22048
880.351	22120
880.478	22067
880.605	21937
880.732	22051
880.859	22291
880.986	22166
881.112	22154
881.239	21964
881.366	21804
881.493	21679
881.619	21732
881.746	21572
881.872	21675
881.999	21656
882.125	21656
882.252	21720
882.378	21557
882.505	21679
882.631	21538
882.757	21450
882.883	21389
883.01	21321
883.136	21249
883.262	21192
883.388	21146
883.514	21294
883.64	21336
883.766	21237
883.892	21005
884.018	21233
884.143	21256
884.269	21336
884.395	21089
884.52	20952
884.646	21005
884.772	20906
884.897	20933
885.023	21020
885.148	20994
885.274	21051
885.399	21146
885.524	20887
885.65	20967
885.775	20918
885.9	20948
886.025	20952
886.15	21070
886.275	20948
886.4	20887
886.525	20986
886.65	20895
886.775	20800
886.9	21112
887.025	21161
887.149	20925
887.274	20796
887.399	20842
887.523	20674
887.648	20571
887.773	20617
887.897	20777
888.021	20788
888.146	20724
888.27	20830
888.395	20823
888.519	20807
888.643	20708
888.767	20731
888.891	20541
889.015	20541
889.139	20537
889.263	20495
889.387	20613
889.511	20720
889.635	20670
889.759	20503
889.883	20526
890.006	20537
890.13	20602
890.254	20454
890.377	20480
890.501	20339
890.624	20324
890.748	20400
890.871	20168
890.995	20138
891.118	20092
891.241	20054
891.364	20221
891.488	20210
891.611	20065
891.734	20058
891.857	20039
891.98	20092
892.103	20119
892.226	20050
892.349	20058
892.471	19974
892.594	19978
892.717	20077
892.839	20008
892.962	19986
893.085	20008
893.207	19989
893.33	19993
893.452	20024
893.575	20043
893.697	20001
893.819	20149
893.941	20202
894.064	20240
894.186	19928
894.308	20012
894.43	20138
894.552	20016
894.674	20039
894.796	19864
894.918	19967
895.04	19970
895.161	20130
895.283	19963
895.405	19970
895.526	20016
895.648	19909
895.769	20027
895.891	19997
896.012	20126
896.134	20031
896.255	19993
896.376	19913
896.498	20008
896.619	19993
896.74	19902
896.861	20126
896.982	20377
897.103	20438
897.224	20278
897.345	20244
897.466	20058
897.587	20142
897.708	20362
897.828	20229
897.949	20130
898.07	19974
898.19	20050
898.311	20267
898.431	20096
898.552	20263
898.672	20347
898.792	20358
898.913	20290
899.033	20016
899.153	20008
899.273	19860
899.393	19898
899.513	20035
899.633	20005
899.753	20001
899.873	19818
899.993	20065
900.113	19936
900.232	19887
900.352	19845
900.472	19833
900.591	19613
900.711	19780
900.83	19655
900.95	19837
901.069	19830
901.189	19601
901.308	19460
901.427	19331
901.546	19255
901.665	19472
901.784	19346
901.904	19240
902.023	19095
902.141	18909
902.26	18954
902.379	18859
902.498	18757
902.617	18745
902.735	18897
902.854	18810
902.973	18806
903.091	18460
903.21	18479
903.328	18521
903.446	18494
903.565	18311
903.683	18330
903.801	18098
903.919	18384
904.038	18361
904.156	18053
904.274	18178
904.392	18117
904.51	18045
904.627	18155
904.745	18194
904.863	18140
904.981	17863
905.098	17824
905.216	17809
905.334	17817
905.451	17783
905.569	17821
905.686	17802
905.803	17805
905.921	17623
906.038	17722
906.155	17573
906.272	17482
906.389	17558
906.506	17341
906.623	17330
906.74	17265
906.857	17132
906.974	17231
907.091	17345
907.208	17433
907.324	17330
907.441	17208
907.557	17117
907.674	17041
907.79	16885
907.907	16889
908.023	17090
908.139	17098
908.256	16904
908.372	16877
908.488	16892
908.604	16786
908.72	16733
908.836	16782
908.952	16706
909.068	16809
909.184	16805
909.3	16729
909.415	16748
909.531	16653
909.647	16527
909.762	16561
909.878	16451
909.993	16493
910.108	16413
910.224	16360
910.339	16329
910.454	16402
910.57	16268
910.685	16185
910.8	16424
910.915	16367
911.03	16242
911.145	16086
911.259	16059
911.374	16116
911.489	15873
911.604	15975
911.718	15694
911.833	15819
911.947	15648
912.062	15564
912.176	15755
912.291	15857
912.405	15762
912.519	15953
912.633	15960
912.748	15892
912.862	15762
912.976	15633
913.09	15488
913.204	15538
913.318	15629
913.431	15690
913.545	15732
913.659	15720
913.772	15580
913.886	15443
914	15481
914.113	15572
914.226	15420
914.34	15542
914.453	15340
914.566	15454
914.68	15416
914.793	15260
914.906	15058
915.019	15039
915.132	14975
915.245	15077
915.358	15005
915.47	15013
915.583	14986
915.696	14944
915.809	15176
915.921	15264
916.034	14868
916.146	14929
916.259	14971
916.371	14998
916.483	15024
916.595	14895
916.708	14880
916.82	14880
916.932	14902
917.044	14872
917.156	14811
917.268	14655
917.38	14785
917.491	14655
917.603	14739
917.715	14670
917.826	14724
917.938	14693
918.049	14590
918.161	14552
918.272	14777
918.384	14785
918.495	14518
918.606	14461
918.717	14370
918.828	14480
918.939	14465
919.05	14370
919.161	14408
919.272	14259
919.383	14286
919.494	14495
919.604	14590
919.715	14473
919.826	14313
919.936	14358
920.047	14454
920.157	14366
920.267	14552
920.378	14427
920.488	14362
920.598	14613
920.708	14693
920.818	14579
920.928	14549
921.038	14636
921.148	14583
921.258	14332
921.368	14263
921.477	14092
921.587	14123
921.697	14008
921.806	14088
921.916	14031
922.025	13814
922.134	13807
922.244	13780
922.353	13814
922.462	13674
922.571	13525
922.68	13590
922.789	13369
922.898	13365
923.007	13464
923.116	13396
923.224	13400
923.333	13415
923.442	13304
923.55	13244
923.659	13285
923.767	13270
923.876	13221
923.984	13244
924.092	13149
924.201	13270
924.309	13164
924.417	13179
924.525	13171
924.633	13095
924.741	13982
924.849	13000
924.956	12981
925.064	12779
925.172	12734
925.279	12791
925.387	12814
925.494	12875
925.602	12894
925.709	12871
925.816	12810
925.924	12852
926.031	12825
926.138	12688
926.245	12875
926.352	12726
926.459	12806
926.566	12886
926.673	12764
926.779	12650
926.886	12528
926.993	12350
927.099	12506
927.206	12350
927.312	12357
927.419	12433
927.525	12448
927.631	12448
927.737	12273
927.843	12205
927.95	12194
928.056	12266
928.162	12304
928.267	12323
928.373	12833
928.479	12277
928.585	12064
928.69	12251
928.796	12270
928.901	12045
929.007	11992
929.112	12144
929.218	12015
929.323	11996
929.428	11916
929.533	12144
929.638	11912
929.743	11946
929.848	11992
929.953	11840
930.058	11828
930.163	11695
930.267	11668
930.372	11794
930.477	11573
930.581	11767
930.685	11710
930.79	11535
930.894	11562
930.998	11524
931.103	11646
931.207	11330
931.311	11242
931.415	11208
931.519	10961
931.623	10877
