Data from test_V78500241_1356.txt Node
Date: Fri Mar 25 15:19:17 CST 2022
User: usil
Spectrometer: V785-0024
Trigger mode: 0
Integration Time (sec): 4.000000E-1
Scans to average: 1
Nonlinearity correction enabled: false
Boxcar width: 0
Storing dark spectrum: false
XAxis mode: Wavelengths
Number of Pixels in Spectrum: 1024
>>>>>Begin Spectral Data<<<<<
801.071	28223
801.214	28090
801.356	27755
801.499	27838
801.641	27739
801.783	27663
801.926	27698
802.068	27705
802.211	27629
802.353	27583
802.496	27416
802.638	27363
802.78	27336
802.923	27401
803.065	27275
803.208	27344
803.35	27264
803.492	27511
803.635	27447
803.777	27538
803.919	27610
804.061	27842
804.204	27564
804.346	27606
804.488	27454
804.63	27633
804.773	27420
804.915	27739
805.057	27732
805.199	27557
805.341	27606
805.483	27816
805.626	27629
805.768	27633
805.91	27701
806.052	27755
806.194	27774
806.336	27895
806.478	27709
806.62	27823
806.762	27838
806.904	28097
807.046	28333
807.188	28067
807.33	28101
807.472	28185
807.614	28082
807.756	28070
807.898	28242
808.04	28036
808.182	28006
808.324	27968
808.465	28063
808.607	28226
808.749	28417
808.891	28466
809.033	28504
809.174	28436
809.316	28580
809.458	28310
809.6	28401
809.741	28535
809.883	28603
810.025	28535
810.166	28793
810.308	28668
810.45	28641
810.591	28599
810.733	28618
810.875	28428
811.016	28360
811.158	28253
811.299	28409
811.441	28519
811.582	28603
811.724	28424
811.865	28367
812.007	28394
812.148	28322
812.29	28367
812.431	28447
812.573	28687
812.714	28706
812.855	28980
812.997	29025
813.138	29170
813.279	28980
813.421	28987
813.562	28972
813.703	28888
813.845	28698
813.986	28299
814.127	28200
814.268	28112
814.41	28036
814.551	28048
814.692	28143
814.833	28070
814.974	27975
815.115	28150
815.256	27865
815.397	28029
815.539	27979
815.68	27949
815.821	27747
815.962	27895
816.103	27861
816.244	27797
816.385	27724
816.526	27675
816.666	27523
816.807	27359
816.948	27332
817.089	27416
817.23	27405
817.371	27393
817.512	27329
817.653	27359
817.793	27405
817.934	27298
818.075	27355
818.216	27351
818.356	27370
818.497	27245
818.638	27032
818.778	27108
818.919	27036
819.06	27112
819.2	27363
819.341	27420
819.481	27340
819.622	27492
819.762	27720
819.903	27561
820.043	27583
820.184	27401
820.324	27583
820.465	27469
820.605	27519
820.746	27523
820.886	27252
821.026	27431
821.167	27416
821.307	27488
821.447	27561
821.588	27264
821.728	27116
821.868	27077
822.008	26902
822.149	26746
822.289	26792
822.429	26587
822.569	26453
822.709	26552
822.849	26355
822.99	26374
823.13	26495
823.27	26355
823.41	26267
823.55	26248
823.69	26240
823.83	26233
823.97	26084
824.11	26031
824.25	26062
824.389	25928
824.529	26100
824.669	25944
824.809	26115
824.949	26115
825.089	26161
825.228	26069
825.368	25883
825.508	25963
825.648	25887
825.787	25845
825.927	25917
826.067	25906
826.206	25974
826.346	25887
826.485	26024
826.625	25951
826.765	25913
826.904	25898
827.044	25647
827.183	25712
827.323	25635
827.462	25677
827.601	25674
827.741	25613
827.88	25689
828.02	25556
828.159	25567
828.298	25601
828.437	25681
828.577	25605
828.716	25578
828.855	25468
828.994	25392
829.134	25388
829.273	25407
829.412	25164
829.551	25274
829.69	25388
829.829	25422
829.968	25362
830.107	25308
830.246	25422
830.385	25327
830.524	25141
830.663	25209
830.802	25012
830.941	24894
831.08	24977
831.219	24966
831.357	25023
831.496	25179
831.635	24722
831.774	24992
831.913	24932
832.051	24787
832.19	24817
832.329	24825
832.467	24677
832.606	24616
832.744	24540
832.883	24635
833.022	24589
833.16	24608
833.299	24661
833.437	24726
833.576	24661
833.714	24604
833.852	24837
833.991	24738
834.129	24730
834.267	24757
834.406	24639
834.544	24738
834.682	24642
834.821	24623
834.959	24779
835.097	24749
835.235	24715
835.373	24787
835.511	24696
835.65	24551
835.788	24540
835.926	24330
836.064	24361
836.202	24289
836.34	24464
836.478	24532
836.615	24601
836.753	24570
836.891	24692
837.029	24483
837.167	24418
837.305	24273
837.443	24399
837.58	24273
837.718	24369
837.856	24304
837.993	24194
838.131	24289
838.269	24182
838.406	24258
838.544	24148
838.681	24068
838.819	23950
838.956	23897
839.094	23733
839.231	23992
839.369	23863
839.506	24148
839.643	24186
839.781	23752
839.918	23821
840.055	23729
840.193	23745
840.33	23760
840.467	23691
840.604	23798
840.742	23916
840.879	23710
841.016	23608
841.153	23543
841.29	23714
841.427	23687
841.564	23760
841.701	23786
841.838	23562
841.975	23634
842.112	23570
842.249	23459
842.385	23440
842.522	23615
842.659	23436
842.796	23512
842.933	23539
843.069	23406
843.206	23459
843.343	23459
843.479	23444
843.616	23459
843.752	23250
843.889	23197
844.025	23520
844.162	23071
844.298	23322
844.435	23239
844.571	23280
844.708	23322
844.844	23379
844.98	23368
845.117	23372
845.253	23216
845.389	23056
845.525	23246
845.661	23102
845.798	22843
845.934	22949
846.07	22877
846.206	22919
846.342	23071
846.478	22972
846.614	22752
846.75	22713
846.886	22755
847.022	22820
847.158	22698
847.294	22664
847.429	22869
847.565	22519
847.701	23006
847.837	22462
847.972	22405
848.108	22462
848.244	22421
848.379	22409
848.515	22295
848.65	22356
848.786	22200
848.921	22249
849.057	22367
849.192	22417
849.328	22341
849.463	22363
849.598	22261
849.734	22090
849.869	22059
850.004	22040
850.14	22154
850.275	22055
850.41	21979
850.545	22002
850.68	21983
850.815	22032
850.95	22036
851.085	22124
851.22	22032
851.355	22116
851.49	21907
851.625	22048
851.76	21991
851.895	21930
852.03	21991
852.165	21953
852.299	22177
852.434	22150
852.569	22029
852.703	22025
852.838	22090
852.973	22287
853.107	22147
853.242	21895
853.376	21854
853.511	21637
853.645	21778
853.78	22051
853.914	21785
854.048	21892
854.183	21850
854.317	22010
854.451	22074
854.585	21854
854.72	21850
854.854	21968
854.988	21861
855.122	21949
855.256	21865
855.39	21770
855.524	21899
855.658	21857
855.792	21854
855.926	21865
856.06	21823
856.194	21842
856.327	21785
856.461	21800
856.595	21743
856.729	21941
856.862	21991
856.996	21861
857.13	21960
857.263	21979
857.397	21907
857.53	21915
857.664	22025
857.797	21892
857.931	22029
858.064	21926
858.197	21930
858.331	21903
858.464	21774
858.597	21762
858.731	21755
858.864	21797
858.997	21865
859.13	21934
859.263	21968
859.396	21907
859.529	21865
859.662	21930
859.795	21831
859.928	21903
860.061	21972
860.194	22017
860.327	21831
860.46	21911
860.592	21846
860.725	22036
860.858	21922
860.99	21770
861.123	21816
861.256	21873
861.388	21915
861.521	22284
861.653	21808
861.786	21663
861.918	21511
862.05	21838
862.183	21778
862.315	21713
862.447	21892
862.58	21759
862.712	21568
862.844	21530
862.976	21701
863.108	21614
863.24	22055
863.372	21523
863.504	21591
863.636	21492
863.768	21599
863.9	21595
864.032	21519
864.164	21530
864.296	21694
864.428	21595
864.559	21690
864.691	21610
864.823	21534
864.954	21496
865.086	21622
865.217	21523
865.349	21431
865.48	21469
865.612	21477
865.743	21462
865.875	21507
866.006	21424
866.137	21458
866.269	21401
866.4	21317
866.531	21393
866.662	21488
866.793	21336
866.924	21447
867.055	21477
867.186	21378
867.317	21401
867.448	21283
867.579	21405
867.71	21310
867.841	21294
867.972	21428
868.103	21275
868.233	21321
868.364	21374
868.495	21458
868.625	21641
868.756	21739
868.886	21473
869.017	21572
869.147	21781
869.278	21732
869.408	21686
869.539	21504
869.669	21720
869.799	21656
869.929	21797
870.06	21682
870.19	21937
870.32	21865
870.45	21857
870.58	22063
870.71	22093
870.84	22139
870.97	21991
871.1	21968
871.23	22013
871.36	22109
871.489	22135
871.619	22162
871.749	22124
871.879	22238
872.008	22500
872.138	22234
872.267	22207
872.397	22074
872.526	22097
872.656	22074
872.785	22002
872.915	22112
873.044	22253
873.173	22234
873.303	22230
873.432	22287
873.561	22390
873.69	22265
873.819	22261
873.948	22215
874.077	22086
874.206	22128
874.335	22249
874.464	22356
874.593	22409
874.722	22299
874.851	22493
874.979	22363
875.108	22474
875.237	22348
875.365	22333
875.494	22367
875.623	22561
875.751	22379
875.88	22375
876.008	22504
876.136	22542
876.265	22809
876.393	22904
876.521	22930
876.65	22930
876.778	22839
876.906	22702
877.034	22736
877.162	22801
877.29	22771
877.418	22778
877.546	22828
877.674	22721
877.802	22824
877.93	22740
878.058	22683
878.185	22599
878.313	22710
878.441	22736
878.568	22561
878.696	22771
878.824	22816
878.951	22774
879.079	22809
879.206	23094
879.333	22915
879.461	22942
879.588	22843
879.715	22976
879.842	23083
879.97	22786
880.097	22634
880.224	22771
880.351	22603
880.478	22713
880.605	22607
880.732	22744
880.859	22801
880.986	22497
881.112	22618
881.239	22588
881.366	22249
881.493	22291
881.619	22120
881.746	22162
881.872	22261
881.999	22185
882.125	22048
882.252	22177
882.378	22131
882.505	22310
882.631	22002
882.757	21850
882.883	21930
883.01	21869
883.136	21823
883.262	21713
883.388	21717
883.514	21861
883.64	21880
883.766	21778
883.892	21656
884.018	21705
884.143	21720
884.269	21857
884.395	21629
884.52	21515
884.646	21458
884.772	21485
884.897	21336
885.023	21469
885.148	21462
885.274	21583
885.399	21481
885.524	21534
885.65	21447
885.775	21511
885.9	21576
886.025	21599
886.15	21583
886.275	21466
886.4	21504
886.525	21435
886.65	21363
886.775	21325
886.9	21466
887.025	21739
887.149	21515
887.274	21298
887.399	21325
887.523	21252
887.648	21233
887.773	21173
887.897	21367
888.021	21412
888.146	21287
888.27	21283
888.395	21325
888.519	21275
888.643	21329
888.767	21157
888.891	21230
889.015	21005
889.139	21066
889.263	21074
889.387	21100
889.511	21135
889.635	21154
889.759	21043
889.883	21123
890.006	21127
890.13	21062
890.254	21009
890.377	21043
890.501	20861
890.624	20746
890.748	20823
890.871	20792
890.995	20583
891.118	20541
891.241	20750
891.364	20674
891.488	20819
891.611	20629
891.734	20682
891.857	20648
891.98	20442
892.103	20678
892.226	20583
892.349	20590
892.471	20484
892.594	20533
892.717	20530
892.839	20381
892.962	20583
893.085	20552
893.207	20514
893.33	20431
893.452	20438
893.575	20564
893.697	20438
893.819	20636
893.941	20640
894.064	20735
894.186	20415
894.308	20492
894.43	20575
894.552	20613
894.674	20651
894.796	20423
894.918	20545
895.04	20412
895.161	20609
895.283	20522
895.405	20385
895.526	20400
895.648	20374
895.769	20495
895.891	20571
896.012	20556
896.134	20587
896.255	20579
896.376	20450
896.498	20446
896.619	20560
896.74	20495
896.861	20629
896.982	20750
897.103	20811
897.224	20754
897.345	20708
897.466	20594
897.587	20705
897.708	20800
897.828	20640
897.949	20765
898.07	20518
898.19	20568
898.311	20754
898.431	20590
898.552	20613
898.672	20750
898.792	20819
898.913	20701
899.033	20537
899.153	20358
899.273	20320
899.393	20415
899.513	20549
899.633	20511
899.753	20351
899.873	20438
899.993	20385
900.113	20389
900.232	20358
900.352	20450
900.472	20328
900.591	20248
900.711	20210
900.83	20183
900.95	20358
901.069	20278
901.189	20206
901.308	19753
901.427	19803
901.546	19803
901.665	19772
901.784	19852
901.904	19643
902.023	19563
902.141	19377
902.26	19308
902.379	19388
902.498	19293
902.617	19266
902.735	19274
902.854	19304
902.973	19183
903.091	19008
903.21	18905
903.328	18878
903.446	18928
903.565	18703
903.683	18867
903.801	18646
903.919	18802
904.038	18726
904.156	18540
904.274	18654
904.392	18460
904.51	18479
904.627	18555
904.745	18509
904.863	18722
904.981	18323
905.098	18296
905.216	18357
905.334	18391
905.451	18224
905.569	18308
905.686	18228
905.803	18174
905.921	17988
906.038	18057
906.155	18030
906.272	17843
906.389	17977
906.506	17809
906.623	17836
906.74	17805
906.857	17577
906.974	17581
907.091	17790
907.208	17866
907.324	17813
907.441	17558
907.557	17535
907.674	17387
907.79	17364
907.907	17379
908.023	17337
908.139	17448
908.256	17448
908.372	17269
908.488	17395
908.604	17261
908.72	17128
908.836	17147
908.952	17113
909.068	17250
909.184	17265
909.3	17223
909.415	17261
909.531	17117
909.647	16900
909.762	16999
909.878	16881
909.993	16953
910.108	16858
910.224	16896
910.339	16816
910.454	16736
910.57	16668
910.685	16527
910.8	16854
910.915	16801
911.03	16622
911.145	16485
911.259	16421
911.374	16447
911.489	16432
911.604	16284
911.718	16196
911.833	16185
911.947	16059
912.062	15907
912.176	16185
912.291	16200
912.405	16158
912.519	16337
912.633	16394
912.748	16226
912.862	16158
912.976	16093
913.09	15911
913.204	15964
913.318	16006
913.431	16158
913.545	16002
913.659	16055
913.772	15941
913.886	15831
914	15835
914.113	15953
914.226	15827
914.34	15816
914.453	15705
914.566	15819
914.68	15728
914.793	15747
914.906	15447
915.019	15530
915.132	15389
915.245	15313
915.358	15393
915.47	15386
915.583	15424
915.696	15507
915.809	15405
915.921	15545
916.034	15370
916.146	15298
916.259	15386
916.371	15367
916.483	15355
916.595	15169
916.708	15199
916.82	15275
916.932	15116
917.044	15161
917.156	15108
917.268	15043
917.38	15013
917.491	15013
917.603	15009
917.715	15055
917.826	15184
917.938	15001
918.049	14830
918.161	14975
918.272	15070
918.384	15085
918.495	14975
918.606	14845
918.717	14781
918.828	14861
918.939	14826
919.05	14785
919.161	14773
919.272	14552
919.383	14617
919.494	14891
919.604	14929
919.715	14739
919.826	14644
919.936	14682
920.047	14815
920.157	14632
920.267	14849
920.378	14762
920.488	14735
920.598	14948
920.708	15055
920.818	14826
920.928	14838
921.038	15017
921.148	14948
921.258	14712
921.368	14636
921.477	14446
921.587	14446
921.697	14298
921.806	14522
921.916	14339
922.025	14187
922.134	14202
922.244	14035
922.353	14126
922.462	14039
922.571	13906
922.68	13856
922.789	13803
922.898	13765
923.007	13761
923.116	13791
923.224	13784
923.333	13753
923.442	13578
923.55	13514
923.659	13552
923.767	13662
923.876	13491
923.984	13647
924.092	13533
924.201	13514
924.309	13468
924.417	13521
924.525	13510
924.633	13403
924.741	14126
924.849	13316
924.956	13407
925.064	13331
925.172	13202
925.279	13137
925.387	13149
925.494	13175
925.602	13270
925.709	13152
925.816	13095
925.924	13141
926.031	13259
926.138	13190
926.245	13168
926.352	13069
926.459	13183
926.566	13168
926.673	13042
926.779	13031
926.886	12867
926.993	12730
927.099	12711
927.206	12658
927.312	12646
927.419	12726
927.525	12726
927.631	12768
927.737	12620
927.843	12642
927.95	12490
928.056	12570
928.162	12525
928.267	12582
928.373	13221
928.479	12559
928.585	12376
928.69	12506
928.796	12471
928.901	12433
929.007	12281
929.112	12350
929.218	12445
929.323	12228
929.428	12399
929.533	12292
929.638	12205
929.743	12201
929.848	12152
929.953	12285
930.058	12178
930.163	11973
930.267	12011
930.372	12060
930.477	11889
930.581	12102
930.685	12038
930.79	11824
930.894	11893
930.998	11882
931.103	11847
931.207	11505
931.311	11474
931.415	11376
931.519	11181
931.623	11216
