Data from test_V78500241_1369.txt Node
Date: Fri Mar 25 15:19:23 CST 2022
User: usil
Spectrometer: V785-0024
Trigger mode: 0
Integration Time (sec): 4.000000E-1
Scans to average: 1
Nonlinearity correction enabled: false
Boxcar width: 0
Storing dark spectrum: false
XAxis mode: Wavelengths
Number of Pixels in Spectrum: 1024
>>>>>Begin Spectral Data<<<<<
801.071	28013
801.214	27998
801.356	27823
801.499	27618
801.641	27622
801.783	27507
801.926	27549
802.068	27507
802.211	27485
802.353	27401
802.496	27268
802.638	27051
802.78	27264
802.923	27070
803.065	27096
803.208	27180
803.35	27367
803.492	27359
803.635	27443
803.777	27306
803.919	27389
804.061	27747
804.204	27599
804.346	27298
804.488	27203
804.63	27439
804.773	27351
804.915	27435
805.057	27481
805.199	27359
805.341	27622
805.483	27599
805.626	27553
805.768	27538
805.91	27587
806.052	27534
806.194	27496
806.336	27720
806.478	27652
806.62	27622
806.762	27679
806.904	27953
807.046	28074
807.188	27930
807.33	28059
807.472	27987
807.614	27895
807.756	27865
807.898	27911
808.04	27759
808.182	27774
808.324	28013
808.465	27686
808.607	28017
808.749	28166
808.891	28352
809.033	28428
809.174	28299
809.316	28150
809.458	28093
809.6	28044
809.741	28344
809.883	28291
810.025	28557
810.166	28538
810.308	28504
810.45	28470
810.591	28356
810.733	28211
810.875	28188
811.016	28143
811.158	28128
811.299	28367
811.441	28337
811.582	28413
811.724	28276
811.865	28158
812.007	28219
812.148	28394
812.29	28219
812.431	28367
812.573	28577
812.714	28698
812.855	28736
812.997	28801
813.138	29083
813.279	28930
813.421	28759
813.562	28809
813.703	28656
813.845	28618
813.986	28337
814.127	28234
814.268	27873
814.41	27945
814.551	27937
814.692	27922
814.833	27804
814.974	27888
815.115	27880
815.256	27728
815.397	27736
815.539	27869
815.68	27789
815.821	27663
815.962	27755
816.103	27667
816.244	27450
816.385	27523
816.526	27591
816.666	27405
816.807	27226
816.948	27386
817.089	27439
817.23	27256
817.371	27150
817.512	27245
817.653	27214
817.793	27195
817.934	27214
818.075	27089
818.216	27192
818.356	27237
818.497	27154
818.638	27001
818.778	27047
818.919	26933
819.06	27173
819.2	27157
819.341	27291
819.481	27173
819.622	27443
819.762	27534
819.903	27530
820.043	27401
820.184	27302
820.324	27427
820.465	27313
820.605	27378
820.746	27435
820.886	27150
821.026	27359
821.167	27279
821.307	27359
821.447	27260
821.588	27275
821.728	26952
821.868	26872
822.008	26640
822.149	26724
822.289	26682
822.429	26442
822.569	26396
822.709	26240
822.849	26138
822.99	26309
823.13	26161
823.27	26130
823.41	26058
823.55	25959
823.69	26005
823.83	26122
823.97	26046
824.11	25898
824.25	25776
824.389	25921
824.529	25890
824.669	25890
824.809	26164
824.949	25925
825.089	25772
825.228	25928
825.368	25769
825.508	25731
825.648	25662
825.787	25761
825.927	25727
826.067	25738
826.206	25628
826.346	25704
826.485	25677
826.625	25582
826.765	25845
826.904	25662
827.044	25457
827.183	25655
827.323	25396
827.462	25430
827.601	25605
827.741	25266
827.88	25499
828.02	25346
828.159	25365
828.298	25453
828.437	25468
828.577	25388
828.716	25415
828.855	25320
828.994	25213
829.134	25129
829.273	25228
829.412	25008
829.551	25053
829.69	25107
829.829	25221
829.968	25232
830.107	25228
830.246	25122
830.385	25122
830.524	24970
830.663	24992
830.802	24840
830.941	24844
831.08	24627
831.219	24768
831.357	24833
831.496	25023
831.635	24688
831.774	24661
831.913	24635
832.051	24566
832.19	24509
832.329	24650
832.467	24361
832.606	24429
832.744	24319
832.883	24334
833.022	24433
833.16	24460
833.299	24289
833.437	24490
833.576	24479
833.714	24521
833.852	24471
833.991	24513
834.129	24555
834.267	24547
834.406	24582
834.544	24448
834.682	24414
834.821	24399
834.959	24604
835.097	24315
835.235	24433
835.373	24414
835.511	24456
835.65	24273
835.788	24471
835.926	24171
836.064	24182
836.202	24125
836.34	24159
836.478	24342
836.615	24319
836.753	24251
836.891	24384
837.029	24346
837.167	24270
837.305	24258
837.443	24243
837.58	24091
837.718	24053
837.856	24235
837.993	24026
838.131	24068
838.269	23973
838.406	24083
838.544	23969
838.681	23779
838.819	23748
838.956	23608
839.094	23577
839.231	23531
839.369	23809
839.506	23885
839.643	23859
839.781	23642
839.918	23395
840.055	23649
840.193	23589
840.33	23493
840.467	23627
840.604	23490
840.742	23771
840.879	23414
841.016	23356
841.153	23497
841.29	23459
841.427	23539
841.564	23608
841.701	23490
841.838	23452
841.975	23440
842.112	23425
842.249	23292
842.385	23239
842.522	23383
842.659	23239
842.796	23166
842.933	23227
843.069	23227
843.206	23155
843.343	23299
843.479	23292
843.616	23227
843.752	23140
843.889	23090
844.025	23159
844.162	22980
844.298	23060
844.435	23052
844.571	22968
844.708	23067
844.844	23239
844.98	23208
845.117	22991
845.253	22980
845.389	22793
845.525	23006
845.661	22862
845.798	22809
845.934	22786
846.07	22717
846.206	22729
846.342	22786
846.478	22641
846.614	22607
846.75	22607
846.886	22421
847.022	22580
847.158	22592
847.294	22470
847.429	22500
847.565	22481
847.701	22858
847.837	22234
847.972	22379
848.108	22333
848.244	22348
848.379	22147
848.515	22029
848.65	21975
848.786	22029
848.921	22105
849.057	22158
849.192	22219
849.328	22238
849.463	22173
849.598	21960
849.734	21964
849.869	21922
850.004	21808
850.14	21778
850.275	21922
850.41	21778
850.545	21812
850.68	21816
850.815	21812
850.95	21857
851.085	22090
851.22	22044
851.355	21915
851.49	21941
851.625	21743
851.76	21869
851.895	21736
852.03	21698
852.165	21724
852.299	21766
852.434	22025
852.569	21861
852.703	21793
852.838	21899
852.973	22025
853.107	22036
853.242	21789
853.376	21679
853.511	21595
853.645	21549
853.78	21736
853.914	21686
854.048	21667
854.183	21637
854.317	21724
854.451	21724
854.585	21747
854.72	21660
854.854	21751
854.988	21690
855.122	21622
855.256	21561
855.39	21660
855.524	21739
855.658	21652
855.792	21663
855.926	21816
856.06	21622
856.194	21778
856.327	21739
856.461	21614
856.595	21622
856.729	21675
856.862	21732
856.996	21633
857.13	21827
857.263	21846
857.397	21781
857.53	21671
857.664	21774
857.797	21762
857.931	21682
858.064	21633
858.197	21709
858.331	21667
858.464	21572
858.597	21549
858.731	21656
858.864	21637
858.997	21629
859.13	21587
859.263	21648
859.396	21762
859.529	21515
859.662	21648
859.795	21534
859.928	21720
860.061	21907
860.194	21831
860.327	21660
860.46	21633
860.592	21682
860.725	21781
860.858	21789
860.99	21698
861.123	21637
861.256	21641
861.388	21698
861.521	22272
861.653	21568
861.786	21443
861.918	21606
862.05	21542
862.183	21530
862.315	21564
862.447	21648
862.58	21709
862.712	21321
862.844	21355
862.976	21443
863.108	21416
863.24	21759
863.372	21291
863.504	21268
863.636	21275
863.768	21416
863.9	21264
864.032	21310
864.164	21256
864.296	21393
864.428	21473
864.559	21523
864.691	21443
864.823	21386
864.954	21367
865.086	21302
865.217	21249
865.349	21123
865.48	21241
865.612	21256
865.743	21355
865.875	21184
866.006	21184
866.137	21211
866.269	21268
866.4	21199
866.531	21157
866.662	21089
866.793	21173
866.924	21237
867.055	21192
867.186	21245
867.317	21112
867.448	21074
867.579	21131
867.71	21165
867.841	21032
867.972	21165
868.103	21195
868.233	21142
868.364	21176
868.495	21222
868.625	21306
868.756	21545
868.886	21397
869.017	21321
869.147	21599
869.278	21545
869.408	21530
869.539	21492
869.669	21545
869.799	21564
869.929	21523
870.06	21511
870.19	21648
870.32	21694
870.45	21857
870.58	21842
870.71	21869
870.84	21884
870.97	21808
871.1	21934
871.23	22002
871.36	22040
871.489	22036
871.619	21998
871.749	22051
871.879	22029
872.008	22101
872.138	21983
872.267	21979
872.397	21876
872.526	21846
872.656	21781
872.785	21800
872.915	21922
873.044	22036
873.173	22051
873.303	22215
873.432	22105
873.561	22154
873.69	22055
873.819	22067
873.948	22093
874.077	21991
874.206	22006
874.335	22055
874.464	22112
874.593	22223
874.722	22223
874.851	22360
874.979	22299
875.108	22329
875.237	22242
875.365	22253
875.494	22109
875.623	22246
875.751	22284
875.88	22272
876.008	22284
876.136	22375
876.265	22694
876.393	22896
876.521	22630
876.65	22706
876.778	22550
876.906	22763
877.034	22542
877.162	22607
877.29	22542
877.418	22615
877.546	22603
877.674	22630
877.802	22599
877.93	22462
878.058	22519
878.185	22432
878.313	22588
878.441	22538
878.568	22485
878.696	22599
878.824	22592
878.951	22653
879.079	22805
879.206	22927
879.333	22767
879.461	22668
879.588	22672
879.715	22713
879.842	22828
879.97	22653
880.097	22398
880.224	22447
880.351	22386
880.478	22478
880.605	22474
880.732	22360
880.859	22691
880.986	22398
881.112	22428
881.239	22211
881.366	22284
881.493	22109
881.619	22002
881.746	22074
881.872	22109
881.999	22010
882.125	21903
882.252	22070
882.378	22036
882.505	22090
882.631	21968
882.757	21800
882.883	21682
883.01	21667
883.136	21785
883.262	21614
883.388	21644
883.514	21713
883.64	21800
883.766	21675
883.892	21420
884.018	21481
884.143	21717
884.269	21690
884.395	21504
884.52	21351
884.646	21363
884.772	21233
884.897	21245
885.023	21321
885.148	21386
885.274	21511
885.399	21336
885.524	21268
885.65	21374
885.775	21325
885.9	21245
886.025	21504
886.15	21348
886.275	21310
886.4	21264
886.525	21298
886.65	21203
886.775	21188
886.9	21443
887.025	21458
887.149	21195
887.274	21058
887.399	21039
887.523	21043
887.648	21123
887.773	20937
887.897	21211
888.021	21154
888.146	20956
888.27	21173
888.395	21245
888.519	21108
888.643	21093
888.767	21211
888.891	20994
889.015	20902
889.139	20895
889.263	20804
889.387	21005
889.511	21074
889.635	20998
889.759	20895
889.883	20891
890.006	20933
890.13	20967
890.254	20921
890.377	20807
890.501	20499
890.624	20549
890.748	20697
890.871	20488
890.995	20362
891.118	20351
891.241	20454
891.364	20442
891.488	20473
891.611	20423
891.734	20473
891.857	20526
891.98	20400
892.103	20454
892.226	20415
892.349	20415
892.471	20301
892.594	20313
892.717	20358
892.839	20377
892.962	20374
893.085	20343
893.207	20313
893.33	20351
893.452	20214
893.575	20389
893.697	20442
893.819	20526
893.941	20587
894.064	20358
894.186	20275
894.308	20229
894.43	20313
894.552	20484
894.674	20465
894.796	20161
894.918	20374
895.04	20381
895.161	20488
895.283	20393
895.405	20275
895.526	20305
895.648	20362
895.769	20374
895.891	20298
896.012	20404
896.134	20454
896.255	20400
896.376	20142
896.498	20248
896.619	20381
896.74	20240
896.861	20351
896.982	20606
897.103	20735
897.224	20602
897.345	20556
897.466	20533
897.587	20609
897.708	20769
897.828	20537
897.949	20514
898.07	20442
898.19	20522
898.311	20655
898.431	20476
898.552	20598
898.672	20587
898.792	20587
898.913	20533
899.033	20499
899.153	20324
899.273	20199
899.393	20259
899.513	20275
899.633	20199
899.753	20324
899.873	20183
899.993	20438
900.113	20336
900.232	20256
900.352	20229
900.472	20008
900.591	20050
900.711	20043
900.83	20027
900.95	20092
901.069	20149
901.189	20054
901.308	19731
901.427	19521
901.546	19868
901.665	19601
901.784	19670
901.904	19502
902.023	19422
902.141	19175
902.26	19209
902.379	19350
902.498	19217
902.617	19027
902.735	19072
902.854	19118
902.973	19145
903.091	18890
903.21	18909
903.328	18817
903.446	18726
903.565	18677
903.683	18677
903.801	18578
903.919	18589
904.038	18627
904.156	18422
904.274	18490
904.392	18365
904.51	18448
904.627	18456
904.745	18346
904.863	18509
904.981	18178
905.098	18136
905.216	18136
905.334	18205
905.451	18136
905.569	18022
905.686	18171
905.803	18041
905.921	17897
906.038	17977
906.155	17897
906.272	17790
906.389	17836
906.506	17619
906.623	17642
906.74	17592
906.857	17429
906.974	17558
907.091	17691
907.208	17756
907.324	17634
907.441	17486
907.557	17387
907.674	17242
907.79	17216
907.907	17269
908.023	17406
908.139	17242
908.256	17356
908.372	17189
908.488	17204
908.604	17159
908.72	17132
908.836	17018
908.952	16946
909.068	17105
909.184	17075
909.3	16976
909.415	17098
909.531	16968
909.647	16748
909.762	16713
909.878	16713
909.993	16710
910.108	16748
910.224	16694
910.339	16691
910.454	16493
910.57	16535
910.685	16485
910.8	16702
910.915	16759
911.03	16527
911.145	16432
911.259	16363
911.374	16375
911.489	16375
911.604	16166
911.718	16112
911.833	16147
911.947	15956
912.062	15869
912.176	15994
912.291	16021
912.405	15979
912.519	16257
912.633	16257
912.748	16002
912.862	16044
912.976	15899
913.09	15781
913.204	15838
913.318	15842
913.431	15895
913.545	15987
913.659	15987
913.772	15831
913.886	15759
914	15652
914.113	15739
914.226	15800
914.34	15778
914.453	15561
914.566	15816
914.68	15545
914.793	15625
914.906	15348
915.019	15230
915.132	15218
915.245	15443
915.358	15302
915.47	15359
915.583	15306
915.696	15291
915.809	15424
915.921	15439
916.034	15275
916.146	15214
916.259	15135
916.371	15214
916.483	15249
916.595	15032
916.708	15108
916.82	15173
916.932	15146
917.044	14990
917.156	15032
917.268	14876
917.38	14979
917.491	14899
917.603	14842
917.715	15070
917.826	15013
917.938	14868
918.049	14830
918.161	14838
918.272	14967
918.384	14906
918.495	14944
918.606	14727
918.717	14594
918.828	14678
918.939	14705
919.05	14667
919.161	14682
919.272	14446
919.383	14545
919.494	14689
919.604	14838
919.715	14644
919.826	14564
919.936	14731
920.047	14746
920.157	14655
920.267	14815
920.378	14655
920.488	14598
920.598	14792
920.708	14910
920.818	14826
920.928	14762
921.038	14944
921.148	14941
921.258	14533
921.368	14507
921.477	14415
921.587	14446
921.697	14305
921.806	14377
921.916	14275
922.025	14081
922.134	14039
922.244	13959
922.353	14073
922.462	13932
922.571	13780
922.68	13636
922.789	13662
922.898	13628
923.007	13575
923.116	13712
923.224	13601
923.333	13658
923.442	13544
923.55	13518
923.659	13483
923.767	13533
923.876	13476
923.984	13544
924.092	13350
924.201	13476
924.309	13419
924.417	13324
924.525	13301
924.633	13346
924.741	14084
924.849	13152
924.956	13255
925.064	13126
925.172	13034
925.279	13061
925.387	13149
925.494	13061
925.602	13278
925.709	13175
925.816	13038
925.924	12943
926.031	13023
926.138	12993
926.245	13046
926.352	12943
926.459	13122
926.566	13046
926.673	13008
926.779	12806
926.886	12829
926.993	12688
927.099	12654
927.206	12654
927.312	12623
927.419	12559
927.525	12623
927.631	12639
927.737	12486
927.843	12445
927.95	12319
928.056	12467
928.162	12460
928.267	12418
928.373	13065
928.479	12521
928.585	12304
928.69	12350
928.796	12448
928.901	12334
929.007	12155
929.112	12311
929.218	12319
929.323	12209
929.428	12197
929.533	12315
929.638	12072
929.743	12079
929.848	12175
929.953	12133
930.058	12022
930.163	11908
930.267	11828
930.372	12011
930.477	11855
930.581	12011
930.685	11832
930.79	11771
930.894	11786
930.998	11748
931.103	11824
931.207	11474
931.311	11444
931.415	11212
931.519	11166
931.623	11067
