Data from test_V78500241_2387.txt Node
Date: Fri Mar 25 15:26:28 CST 2022
User: usil
Spectrometer: V785-0024
Trigger mode: 0
Integration Time (sec): 4.000000E-1
Scans to average: 1
Nonlinearity correction enabled: false
Boxcar width: 0
Storing dark spectrum: false
XAxis mode: Wavelengths
Number of Pixels in Spectrum: 1024
>>>>>Begin Spectral Data<<<<<
801.071	27199
801.214	27260
801.356	26868
801.499	26861
801.641	26815
801.783	26708
801.926	26933
802.068	26811
802.211	26731
802.353	26682
802.496	26556
802.638	26465
802.78	26370
802.923	26446
803.065	26393
803.208	26522
803.35	26492
803.492	26461
803.635	26621
803.777	26522
803.919	26530
804.061	26921
804.204	26670
804.346	26526
804.488	26556
804.63	26564
804.773	26374
804.915	26617
805.057	26594
805.199	26545
805.341	26484
805.483	26678
805.626	26670
805.768	26537
805.91	26811
806.052	26689
806.194	26651
806.336	26811
806.478	26530
806.62	26727
806.762	26940
806.904	26956
807.046	27070
807.188	27070
807.33	27256
807.472	27173
807.614	27020
807.756	27085
807.898	26975
808.04	26940
808.182	26906
808.324	27009
808.465	27043
808.607	27306
808.749	27363
808.891	27511
809.033	27485
809.174	27192
809.316	27214
809.458	27211
809.6	27287
809.741	27344
809.883	27538
810.025	27526
810.166	27751
810.308	27545
810.45	27561
810.591	27420
810.733	27192
810.875	27222
811.016	27218
811.158	27192
811.299	27268
811.441	27389
811.582	27275
811.724	27161
811.865	27104
812.007	27173
812.148	27146
812.29	27260
812.431	27488
812.573	27583
812.714	27591
812.855	27857
812.997	27956
813.138	28021
813.279	27857
813.421	27838
813.562	27732
813.703	27603
813.845	27477
813.986	27207
814.127	27108
814.268	27036
814.41	26963
814.551	26914
814.692	26960
814.833	26868
814.974	26971
815.115	26872
815.256	26838
815.397	26731
815.539	26826
815.68	26731
815.821	26697
815.962	26670
816.103	26655
816.244	26583
816.385	26518
816.526	26469
816.666	26180
816.807	26111
816.948	26309
817.089	26355
817.23	26320
817.371	26183
817.512	26248
817.653	26210
817.793	26183
817.934	26199
818.075	26100
818.216	26301
818.356	26240
818.497	26058
818.638	25898
818.778	26031
818.919	26008
819.06	25966
819.2	26138
819.341	26199
819.481	26096
819.622	26427
819.762	26473
819.903	26560
820.043	26469
820.184	26320
820.324	26332
820.465	26408
820.605	26263
820.746	26237
820.886	26244
821.026	26267
821.167	26206
821.307	26377
821.447	26244
821.588	26138
821.728	26035
821.868	25906
822.008	25742
822.149	25563
822.289	25689
822.429	25506
822.569	25365
822.709	25502
822.849	25137
822.99	25255
823.13	25148
823.27	25164
823.41	25034
823.55	24935
823.69	25008
823.83	24985
823.97	24894
824.11	24856
824.25	24776
824.389	24852
824.529	24901
824.669	24894
824.809	24951
824.949	24962
825.089	24837
825.228	24871
825.368	24738
825.508	24703
825.648	24677
825.787	24844
825.927	24616
826.067	24749
826.206	24597
826.346	24753
826.485	24719
826.625	24574
826.765	24779
826.904	24703
827.044	24505
827.183	24582
827.323	24281
827.462	24517
827.601	24391
827.741	24361
827.88	24410
828.02	24285
828.159	24296
828.298	24315
828.437	24528
828.577	24334
828.716	24361
828.855	24376
828.994	24182
829.134	24125
829.273	24041
829.412	24045
829.551	24007
829.69	23977
829.829	24133
829.968	24121
830.107	24072
830.246	24190
830.385	24182
830.524	23977
830.663	23897
830.802	23843
830.941	23798
831.08	23653
831.219	23760
831.357	23790
831.496	24007
831.635	23726
831.774	23608
831.913	23551
832.051	23524
832.19	23376
832.329	23512
832.467	23391
832.606	23246
832.744	23307
832.883	23318
833.022	23334
833.16	23421
833.299	23433
833.437	23368
833.576	23448
833.714	23459
833.852	23516
833.991	23520
834.129	23512
834.267	23551
834.406	23482
834.544	23509
834.682	23429
834.821	23368
834.959	23592
835.097	23376
835.235	23459
835.373	23376
835.511	23531
835.65	23246
835.788	23311
835.926	23197
836.064	23124
836.202	23094
836.34	23303
836.478	23474
836.615	23185
836.753	23265
836.891	23326
837.029	23326
837.167	23242
837.305	23102
837.443	23307
837.58	23178
837.718	23143
837.856	23170
837.993	23060
838.131	23128
838.269	22961
838.406	23037
838.544	23010
838.681	22763
838.819	22793
838.956	22611
839.094	22672
839.231	22599
839.369	22771
839.506	23041
839.643	22805
839.781	22485
839.918	22504
840.055	22615
840.193	22561
840.33	22443
840.467	22546
840.604	22580
840.742	22740
840.879	22451
841.016	22428
841.153	22436
841.29	22531
841.427	22405
841.564	22497
841.701	22512
841.838	22493
841.975	22363
842.112	22314
842.249	22329
842.385	22158
842.522	22538
842.659	22325
842.796	22284
842.933	22318
843.069	22192
843.206	22443
843.343	22337
843.479	22287
843.616	22352
843.752	22101
843.889	22131
844.025	22169
844.162	22032
844.298	22200
844.435	22013
844.571	21930
844.708	22109
844.844	22249
844.98	22200
845.117	22128
845.253	22059
845.389	21793
845.525	21816
845.661	21972
845.798	21793
845.934	21854
846.07	21728
846.206	21945
846.342	21941
846.478	21926
846.614	21705
846.75	21500
846.886	21515
847.022	21637
847.158	21504
847.294	21583
847.429	21580
847.565	21443
847.701	21682
847.837	21332
847.972	21321
848.108	21348
848.244	21424
848.379	21161
848.515	21119
848.65	21131
848.786	21237
848.921	21199
849.057	21123
849.192	21332
849.328	21062
849.463	21241
849.598	21062
849.734	21066
849.869	21039
850.004	20845
850.14	20990
850.275	20830
850.41	20868
850.545	20788
850.68	20868
850.815	20929
850.95	20918
851.085	21032
851.22	21036
851.355	20941
851.49	20956
851.625	20811
851.76	21051
851.895	20834
852.03	20785
852.165	20762
852.299	20921
852.434	20853
852.569	20864
852.703	20826
852.838	20975
852.973	20979
853.107	21074
853.242	20914
853.376	20762
853.511	20587
853.645	20720
853.78	20864
853.914	20705
854.048	20686
854.183	20674
854.317	20609
854.451	20910
854.585	20781
854.72	20758
854.854	20724
854.988	20552
855.122	20781
855.256	20667
855.39	20606
855.524	20762
855.658	20788
855.792	20667
855.926	20651
856.06	20750
856.194	20941
856.327	20796
856.461	20617
856.595	20686
856.729	20689
856.862	20807
856.996	20785
857.13	20853
857.263	20826
857.397	20769
857.53	20743
857.664	20678
857.797	20800
857.931	20796
858.064	20887
858.197	20811
858.331	20792
858.464	20632
858.597	20644
858.731	20693
858.864	20651
858.997	20617
859.13	20769
859.263	20636
859.396	20762
859.529	20731
859.662	20651
859.795	20693
859.928	20773
860.061	20834
860.194	20807
860.327	20754
860.46	20804
860.592	20914
860.725	20971
860.858	20929
860.99	20697
861.123	20724
861.256	20708
861.388	20800
861.521	21279
861.653	20549
861.786	20499
861.918	20518
862.05	20499
862.183	20621
862.315	20670
862.447	20773
862.58	20621
862.712	20484
862.844	20404
862.976	20655
863.108	20537
863.24	20796
863.372	20488
863.504	20541
863.636	20309
863.768	20434
863.9	20427
864.032	20396
864.164	20423
864.296	20461
864.428	20495
864.559	20492
864.691	20427
864.823	20560
864.954	20450
865.086	20347
865.217	20404
865.349	20351
865.48	20313
865.612	20347
865.743	20438
865.875	20339
866.006	20271
866.137	20294
866.269	20305
866.4	20377
866.531	20324
866.662	20240
866.793	20294
866.924	20305
867.055	20313
867.186	20377
867.317	20286
867.448	20103
867.579	20180
867.71	20126
867.841	20278
867.972	20248
868.103	20294
868.233	20377
868.364	20278
868.495	20400
868.625	20454
868.756	20686
868.886	20560
869.017	20495
869.147	20606
869.278	20636
869.408	20560
869.539	20476
869.669	20739
869.799	20629
869.929	20667
870.06	20644
870.19	20800
870.32	20792
870.45	20750
870.58	20880
870.71	21001
870.84	20979
870.97	20853
871.1	20910
871.23	21157
871.36	21127
871.489	21066
871.619	21169
871.749	21116
871.879	21150
872.008	21199
872.138	21104
872.267	21009
872.397	21032
872.526	21051
872.656	20948
872.785	20899
872.915	21188
873.044	21218
873.173	21135
873.303	21256
873.432	21230
873.561	21165
873.69	21188
873.819	21062
873.948	21226
874.077	21173
874.206	21218
874.335	21157
874.464	21237
874.593	21332
874.722	21291
874.851	21435
874.979	21294
875.108	21439
875.237	21233
875.365	21321
875.494	21348
875.623	21477
875.751	21370
875.88	21332
876.008	21538
876.136	21545
876.265	21755
876.393	21869
876.521	21911
876.65	21797
876.778	21755
876.906	21751
877.034	21682
877.162	21762
877.29	21610
877.418	21766
877.546	21762
877.674	21827
877.802	21622
877.93	21736
878.058	21717
878.185	21625
878.313	21720
878.441	21595
878.568	21424
878.696	21610
878.824	21812
878.951	21789
879.079	22002
879.206	21899
879.333	21876
879.461	21762
879.588	21835
879.715	21846
879.842	21987
879.97	21850
880.097	21644
880.224	21618
880.351	21618
880.478	21663
880.605	21492
880.732	21485
880.859	21869
880.986	21580
881.112	21614
881.239	21420
881.366	21268
881.493	21268
881.619	21207
881.746	21203
881.872	21100
881.999	21032
882.125	21028
882.252	21096
882.378	21138
882.505	21180
882.631	21013
882.757	20887
882.883	20895
883.01	20842
883.136	20739
883.262	20682
883.388	20758
883.514	20830
883.64	20883
883.766	20754
883.892	20743
884.018	20636
884.143	20842
884.269	20868
884.395	20594
884.52	20476
884.646	20537
884.772	20454
884.897	20332
885.023	20511
885.148	20560
885.274	20708
885.399	20617
885.524	20480
885.65	20545
885.775	20583
885.9	20461
886.025	20625
886.15	20670
886.275	20423
886.4	20377
886.525	20393
886.65	20328
886.775	20454
886.9	20640
887.025	20621
887.149	20480
887.274	20320
887.399	20267
887.523	20294
887.648	20229
887.773	20100
887.897	20332
888.021	20252
888.146	20164
888.27	20377
888.395	20309
888.519	20362
888.643	20210
888.767	20298
888.891	20153
889.015	20050
889.139	20145
889.263	20122
889.387	20119
889.511	20301
889.635	20176
889.759	20054
889.883	20046
890.006	20115
890.13	20214
890.254	19997
890.377	20005
890.501	19875
890.624	19788
890.748	19902
890.871	19727
890.995	19662
891.118	19635
891.241	19635
891.364	19567
891.488	19712
891.611	19635
891.734	19635
891.857	19776
891.98	19655
892.103	19727
892.226	19658
892.349	19685
892.471	19537
892.594	19529
892.717	19643
892.839	19480
892.962	19590
893.085	19613
893.207	19624
893.33	19445
893.452	19518
893.575	19704
893.697	19495
893.819	19772
893.941	19791
894.064	19620
894.186	19460
894.308	19472
894.43	19624
894.552	19658
894.674	19639
894.796	19525
894.918	19529
895.04	19506
895.161	19613
895.283	19613
895.405	19525
895.526	19597
895.648	19616
895.769	19559
895.891	19655
896.012	19605
896.134	19605
896.255	19502
896.376	19594
896.498	19487
896.619	19666
896.74	19521
896.861	19609
896.982	19799
897.103	19925
897.224	19849
897.345	19769
897.466	19807
897.587	19620
897.708	19974
897.828	19757
897.949	19693
898.07	19715
898.19	19738
898.311	19769
898.431	19776
898.552	19906
898.672	19944
898.792	19784
898.913	19909
899.033	19731
899.153	19613
899.273	19514
899.393	19514
899.513	19616
899.633	19609
899.753	19613
899.873	19499
899.993	19624
900.113	19529
900.232	19525
900.352	19518
900.472	19392
900.591	19400
900.711	19324
900.83	19343
900.95	19597
901.069	19510
901.189	19320
901.308	19042
901.427	18989
901.546	18943
901.665	19008
901.784	18977
901.904	18882
902.023	18856
902.141	18593
902.26	18506
902.379	18608
902.498	18513
902.617	18456
902.735	18627
902.854	18395
902.973	18338
903.091	18258
903.21	18178
903.328	18140
903.446	18030
903.565	18003
903.683	17935
903.801	17988
903.919	17969
904.038	17946
904.156	17729
904.274	17824
904.392	17657
904.51	17649
904.627	17619
904.745	17882
904.863	17897
904.981	17596
905.098	17402
905.216	17463
905.334	17512
905.451	17372
905.569	17406
905.686	17368
905.803	17425
905.921	17162
906.038	17273
906.155	17277
906.272	17151
906.389	17178
906.506	17014
906.623	16946
906.74	16892
906.857	16881
906.974	16767
907.091	16976
907.208	17071
907.324	17060
907.441	16930
907.557	16778
907.674	16672
907.79	16634
907.907	16687
908.023	16683
908.139	16660
908.256	16527
908.372	16527
908.488	16550
908.604	16436
908.72	16409
908.836	16382
908.952	16295
909.068	16390
909.184	16459
909.3	16379
909.415	16356
909.531	16322
909.647	16268
909.762	16105
909.878	16112
909.993	16200
910.108	16128
910.224	16048
910.339	16059
910.454	15873
910.57	16010
910.685	15945
910.8	16067
910.915	16071
911.03	15987
911.145	15717
911.259	15778
911.374	15679
911.489	15633
911.604	15500
911.718	15469
911.833	15397
911.947	15313
912.062	15256
912.176	15359
912.291	15492
912.405	15504
912.519	15587
912.633	15557
912.748	15591
912.862	15359
912.976	15287
913.09	15165
913.204	15188
913.318	15370
913.431	15302
913.545	15348
913.659	15329
913.772	15260
913.886	15119
914	15051
914.113	15218
914.226	15329
914.34	15157
914.453	14982
914.566	15047
914.68	15001
914.793	14902
914.906	14792
915.019	14659
915.132	14571
915.245	14689
915.358	14731
915.47	14693
915.583	14670
915.696	14807
915.809	14788
915.921	14857
916.034	14537
916.146	14610
916.259	14655
916.371	14648
916.483	14564
916.595	14579
916.708	14526
916.82	14533
916.932	14587
917.044	14514
917.156	14507
917.268	14317
917.38	14362
917.491	14317
917.603	14298
917.715	14381
917.826	14552
917.938	14309
918.049	14191
918.161	14267
918.272	14434
918.384	14518
918.495	14301
918.606	14252
918.717	14130
918.828	14233
918.939	14130
919.05	14077
919.161	14161
919.272	13951
919.383	13909
919.494	14202
919.604	14339
919.715	14161
919.826	14088
919.936	14058
920.047	14214
920.157	14221
920.267	14336
920.378	14107
920.488	14084
920.598	14358
920.708	14267
920.818	14259
920.928	14187
921.038	14473
921.148	14362
921.258	14206
921.368	13947
921.477	13932
921.587	13860
921.697	13715
921.806	14005
921.916	13750
922.025	13514
922.134	13472
922.244	13407
922.353	13559
922.462	13301
922.571	13377
922.68	13228
922.789	13217
922.898	13175
923.007	13084
923.116	13266
923.224	13194
923.333	13122
923.442	13122
923.55	13027
923.659	13034
923.767	13160
923.876	12989
923.984	12989
924.092	12859
924.201	12909
924.309	12916
924.417	12890
924.525	12875
924.633	12833
924.741	13715
924.849	12646
924.956	12772
925.064	12635
925.172	12578
925.279	12559
925.387	12593
925.494	12566
925.602	12696
925.709	12673
925.816	12525
925.924	12570
926.031	12658
926.138	12536
926.245	12544
926.352	12517
926.459	12620
926.566	12707
926.673	12422
926.779	12403
926.886	12407
926.993	12228
927.099	12190
927.206	12083
927.312	12144
927.419	12163
927.525	12144
927.631	12178
927.737	12083
927.843	11973
927.95	11923
928.056	12030
928.162	12022
928.267	12011
928.373	12662
928.479	12053
928.585	11805
928.69	11984
928.796	11923
928.901	11863
929.007	11741
929.112	11847
929.218	11764
929.323	11722
929.428	11745
929.533	11878
929.638	11718
929.743	11707
929.848	11741
929.953	11627
930.058	11604
930.163	11429
930.267	11455
930.372	11566
930.477	11436
930.581	11528
930.685	11452
930.79	11261
930.894	11387
930.998	11231
931.103	11402
931.207	11037
931.311	11029
931.415	10881
931.519	10755
931.623	10782
