Data from test_V78500241_395.txt Node
Date: Fri Mar 25 15:12:36 CST 2022
User: usil
Spectrometer: V785-0024
Trigger mode: 0
Integration Time (sec): 4.000000E-1
Scans to average: 1
Nonlinearity correction enabled: false
Boxcar width: 0
Storing dark spectrum: false
XAxis mode: Wavelengths
Number of Pixels in Spectrum: 1024
>>>>>Begin Spectral Data<<<<<
801.071	26994
801.214	26940
801.356	26587
801.499	26712
801.641	26495
801.783	26606
801.926	26545
802.068	26431
802.211	26275
802.353	26278
802.496	26183
802.638	26248
802.78	26088
802.923	26149
803.065	26065
803.208	25959
803.35	26138
803.492	26191
803.635	26332
803.777	26301
803.919	26199
804.061	26663
804.204	26164
804.346	26183
804.488	26191
804.63	26103
804.773	26191
804.915	26111
805.057	26332
805.199	26305
805.341	26309
805.483	26294
805.626	26142
805.768	26252
805.91	26347
806.052	26343
806.194	26317
806.336	26545
806.478	26351
806.62	26351
806.762	26438
806.904	26579
807.046	26762
807.188	26663
807.33	26750
807.472	26708
807.614	26651
807.756	26735
807.898	26644
808.04	26560
808.182	26541
808.324	26636
808.465	26632
808.607	26701
808.749	26899
808.891	26967
809.033	27104
809.174	27112
809.316	27001
809.458	26899
809.6	26918
809.741	27055
809.883	27066
810.025	27180
810.166	27055
810.308	27127
810.45	27157
810.591	27173
810.733	26967
810.875	26849
811.016	26937
811.158	26785
811.299	26940
811.441	27043
811.582	26979
811.724	26811
811.865	26792
812.007	26830
812.148	26914
812.29	26956
812.431	27047
812.573	27165
812.714	27264
812.855	27466
812.997	27576
813.138	27667
813.279	27526
813.421	27416
813.562	27439
813.703	27321
813.845	27165
813.986	26746
814.127	26632
814.268	26457
814.41	26541
814.551	26495
814.692	26716
814.833	26453
814.974	26492
815.115	26446
815.256	26511
815.397	26355
815.539	26583
815.68	26393
815.821	26244
815.962	26221
816.103	26381
816.244	26145
816.385	26202
816.526	26183
816.666	25936
816.807	25890
816.948	25921
817.089	25917
817.23	25814
817.371	25662
817.512	25837
817.653	25879
817.793	25666
817.934	25936
818.075	25799
818.216	25928
818.356	25658
818.497	25704
818.638	25609
818.778	25597
818.919	25460
819.06	25693
819.2	25719
819.341	25906
819.481	25791
819.622	25970
819.762	26130
819.903	26138
820.043	26012
820.184	25955
820.324	25906
820.465	25902
820.605	25898
820.746	25852
820.886	25803
821.026	25955
821.167	25856
821.307	25841
821.447	25913
821.588	25837
821.728	25685
821.868	25460
822.008	25362
822.149	25411
822.289	25270
822.429	25046
822.569	24935
822.709	24833
822.849	24745
822.99	24779
823.13	24791
823.27	24684
823.41	24646
823.55	24563
823.69	24627
823.83	24650
823.97	24631
824.11	24399
824.25	24467
824.389	24502
824.529	24407
824.669	24521
824.809	24604
824.949	24505
825.089	24513
825.228	24418
825.368	24281
825.508	24323
825.648	24281
825.787	24258
825.927	24342
826.067	24357
826.206	24300
826.346	24197
826.485	24338
826.625	24201
826.765	24369
826.904	24505
827.044	24057
827.183	23942
827.323	24003
827.462	24060
827.601	23954
827.741	24038
827.88	24152
828.02	23927
828.159	24041
828.298	23935
828.437	24174
828.577	23893
828.716	24079
828.855	23980
828.994	23790
829.134	23726
829.273	23843
829.412	23748
829.551	23863
829.69	23809
829.829	23798
829.968	23707
830.107	23843
830.246	23752
830.385	23596
830.524	23581
830.663	23478
830.802	23493
830.941	23193
831.08	23250
831.219	23440
831.357	23512
831.496	23619
831.635	23227
831.774	23250
831.913	23109
832.051	23292
832.19	23277
832.329	23041
832.467	22961
832.606	22976
832.744	22968
832.883	23029
833.022	22980
833.16	23033
833.299	22984
833.437	23105
833.576	23094
833.714	23071
833.852	23166
833.991	23159
834.129	23147
834.267	23124
834.406	23143
834.544	23105
834.682	23151
834.821	23048
834.959	23379
835.097	23181
835.235	23006
835.373	23014
835.511	22919
835.65	22919
835.788	22911
835.926	22847
836.064	22763
836.202	22824
836.34	23075
836.478	23128
836.615	22892
836.753	22873
836.891	23056
837.029	22961
837.167	22900
837.305	22957
837.443	22835
837.58	22889
837.718	22904
837.856	22786
837.993	22824
838.131	22923
838.269	22687
838.406	22713
838.544	22508
838.681	22424
838.819	22379
838.956	22329
839.094	22303
839.231	22363
839.369	22440
839.506	22793
839.643	22531
839.781	22223
839.918	22268
840.055	22226
840.193	22272
840.33	22185
840.467	22291
840.604	22265
840.742	22417
840.879	22044
841.016	22074
841.153	22059
841.29	22356
841.427	22135
841.564	22329
841.701	22173
841.838	22200
841.975	22109
842.112	22166
842.249	22051
842.385	22036
842.522	22154
842.659	22002
842.796	21972
842.933	22078
843.069	22002
843.206	21831
843.343	22116
843.479	22074
843.616	21983
843.752	21759
843.889	21766
844.025	21873
844.162	21705
844.298	21873
844.435	21785
844.571	21797
844.708	21793
844.844	21915
844.98	21842
845.117	21854
845.253	21648
845.389	21561
845.525	21637
845.661	21603
845.798	21564
845.934	21564
846.07	21595
846.206	21393
846.342	21629
846.478	21523
846.614	21264
846.75	21176
846.886	21116
847.022	21382
847.158	21241
847.294	21298
847.429	21272
847.565	21195
847.701	21549
847.837	20971
847.972	20830
848.108	21142
848.244	21112
848.379	20975
848.515	20807
848.65	20845
848.786	20925
848.921	20845
849.057	21001
849.192	20948
849.328	20826
849.463	20933
849.598	20883
849.734	20674
849.869	20617
850.004	20590
850.14	20640
850.275	20594
850.41	20499
850.545	20476
850.68	20594
850.815	20598
850.95	20636
851.085	20720
851.22	20636
851.355	20583
851.49	20568
851.625	20492
851.76	20632
851.895	20343
852.03	20450
852.165	20480
852.299	20552
852.434	20686
852.569	20579
852.703	20663
852.838	20686
852.973	20773
853.107	20686
853.242	20571
853.376	20412
853.511	20298
853.645	20332
853.78	20564
853.914	20473
854.048	20450
854.183	20343
854.317	20484
854.451	20564
854.585	20598
854.72	20412
854.854	20552
854.988	20244
855.122	20419
855.256	20244
855.39	20393
855.524	20514
855.658	20575
855.792	20404
855.926	20415
856.06	20598
856.194	20446
856.327	20457
856.461	20469
856.595	20374
856.729	20298
856.862	20465
856.996	20396
857.13	20541
857.263	20541
857.397	20454
857.53	20423
857.664	20419
857.797	20571
857.931	20617
858.064	20332
858.197	20465
858.331	20309
858.464	20419
858.597	20336
858.731	20374
858.864	20400
858.997	20298
859.13	20434
859.263	20412
859.396	20446
859.529	20442
859.662	20351
859.795	20290
859.928	20317
860.061	20533
860.194	20716
860.327	20537
860.46	20434
860.592	20541
860.725	20541
860.858	20488
860.99	20461
861.123	20142
861.256	20442
861.388	20415
861.521	20956
861.653	20389
861.786	20225
861.918	20210
862.05	20339
862.183	20351
862.315	20347
862.447	20473
862.58	20313
862.712	20187
862.844	20218
862.976	20191
863.108	20164
863.24	20522
863.372	20122
863.504	20084
863.636	20115
863.768	20221
863.9	20180
864.032	20031
864.164	20218
864.296	20206
864.428	20126
864.559	20286
864.691	20267
864.823	20111
864.954	20008
865.086	20134
865.217	20180
865.349	19963
865.48	19951
865.612	19936
865.743	20248
865.875	20149
866.006	20020
866.137	20138
866.269	20062
866.4	20062
866.531	20024
866.662	19925
866.793	19959
866.924	19936
867.055	20043
867.186	20001
867.317	19986
867.448	19978
867.579	20008
867.71	19925
867.841	19993
867.972	19932
868.103	19993
868.233	20043
868.364	19947
868.495	20100
868.625	20153
868.756	20332
868.886	20240
869.017	20214
869.147	20301
869.278	20408
869.408	20298
869.539	20195
869.669	20301
869.799	20286
869.929	20514
870.06	20362
870.19	20648
870.32	20442
870.45	20583
870.58	20617
870.71	20762
870.84	20708
870.97	20632
871.1	20621
871.23	20895
871.36	20834
871.489	20708
871.619	20735
871.749	20887
871.879	20883
872.008	21001
872.138	20906
872.267	20853
872.397	20830
872.526	20651
872.656	20670
872.785	20689
872.915	20826
873.044	20902
873.173	20796
873.303	20902
873.432	21028
873.561	21036
873.69	20792
873.819	20857
873.948	20864
874.077	20933
874.206	20769
874.335	20842
874.464	20925
874.593	21081
874.722	20960
874.851	21089
874.979	21256
875.108	21142
875.237	20929
875.365	21058
875.494	21074
875.623	21150
875.751	21066
875.88	21237
876.008	21161
876.136	21256
876.265	21416
876.393	21625
876.521	21549
876.65	21466
876.778	21412
876.906	21473
877.034	21355
877.162	21481
877.29	21401
877.418	21526
877.546	21424
877.674	21393
877.802	21428
877.93	21420
878.058	21523
878.185	21367
878.313	21393
878.441	21317
878.568	21237
878.696	21367
878.824	21530
878.951	21614
879.079	21694
879.206	21698
879.333	21530
879.461	21542
879.588	21507
879.715	21739
879.842	21633
879.97	21485
880.097	21386
880.224	21233
880.351	21363
880.478	21313
880.605	21161
880.732	21264
880.859	21526
880.986	21386
881.112	21450
881.239	21127
881.366	21123
881.493	21036
881.619	20941
881.746	20815
881.872	20849
881.999	20895
882.125	20823
882.252	20785
882.378	20910
882.505	20986
882.631	20670
882.757	20613
882.883	20667
883.01	20659
883.136	20533
883.262	20442
883.388	20530
883.514	20522
883.64	20602
883.766	20446
883.892	20252
884.018	20320
884.143	20511
884.269	20625
884.395	20256
884.52	20218
884.646	20263
884.772	20187
884.897	20122
885.023	20134
885.148	20347
885.274	20381
885.399	20370
885.524	20229
885.65	20339
885.775	20240
885.9	20107
886.025	20381
886.15	20271
886.275	20103
886.4	20142
886.525	20256
886.65	20122
886.775	20126
886.9	20290
887.025	20419
887.149	20252
887.274	20081
887.399	19955
887.523	20058
887.648	19940
887.773	19928
887.897	20016
888.021	20145
888.146	19909
888.27	20142
888.395	20111
888.519	19982
888.643	20107
888.767	20092
888.891	19906
889.015	19799
889.139	19894
889.263	19765
889.387	19814
889.511	19978
889.635	19963
889.759	19803
889.883	19845
890.006	19753
890.13	19940
890.254	19715
890.377	19704
890.501	19540
890.624	19616
890.748	19670
890.871	19453
890.995	19411
891.118	19346
891.241	19365
891.364	19369
891.488	19518
891.611	19514
891.734	19339
891.857	19483
891.98	19362
892.103	19533
892.226	19213
892.349	19320
892.471	19202
892.594	19331
892.717	19255
892.839	19274
892.962	19244
893.085	19487
893.207	19346
893.33	19206
893.452	19228
893.575	19362
893.697	19384
893.819	19285
893.941	19514
894.064	19415
894.186	19270
894.308	19244
894.43	19411
894.552	19483
894.674	19422
894.796	19327
894.918	19377
895.04	19365
895.161	19350
895.283	19285
895.405	19236
895.526	19343
895.648	19362
895.769	19453
895.891	19403
896.012	19533
896.134	19343
896.255	19346
896.376	19312
896.498	19339
896.619	19308
896.74	19343
896.861	19350
896.982	19700
897.103	19670
897.224	19483
897.345	19647
897.466	19609
897.587	19662
897.708	19586
897.828	19575
897.949	19495
898.07	19464
898.19	19403
898.311	19704
898.431	19533
898.552	19639
898.672	19658
898.792	19575
898.913	19578
899.033	19453
899.153	19400
899.273	19285
899.393	19278
899.513	19422
899.633	19365
899.753	19354
899.873	19297
899.993	19400
900.113	19282
900.232	19301
900.352	19152
900.472	19282
900.591	19076
900.711	19126
900.83	19126
900.95	19206
901.069	19129
901.189	18989
901.308	18817
901.427	18696
901.546	18692
901.665	18631
901.784	18741
901.904	18513
902.023	18452
902.141	18281
902.26	18296
902.379	18270
902.498	18129
902.617	18133
902.735	18197
902.854	18258
902.973	18174
903.091	17916
903.21	17855
903.328	17893
903.446	17756
903.565	17661
903.683	17748
903.801	17406
903.919	17573
904.038	17634
904.156	17509
904.274	17733
904.392	17520
904.51	17353
904.627	17596
904.745	17501
904.863	17577
904.981	17315
905.098	17151
905.216	17178
905.334	17239
905.451	17246
905.569	17204
905.686	17208
905.803	17174
905.921	16999
906.038	17083
906.155	16991
906.272	16824
906.389	16850
906.506	16759
906.623	16812
906.74	16805
906.857	16535
906.974	16641
907.091	16755
907.208	16816
907.324	16793
907.441	16596
907.557	16497
907.674	16382
907.79	16344
907.907	16485
908.023	16527
908.139	16459
908.256	16390
908.372	16287
908.488	16329
908.604	16257
908.72	16207
908.836	16284
908.952	16181
909.068	16131
909.184	16287
909.3	16181
909.415	16128
909.531	16143
909.647	15846
909.762	15922
909.878	15842
909.993	15964
910.108	15930
910.224	15903
910.339	15915
910.454	15682
910.57	15720
910.685	15622
910.8	15873
910.915	15800
911.03	15629
911.145	15469
911.259	15469
911.374	15526
911.489	15363
911.604	15408
911.718	15230
911.833	15157
911.947	15119
912.062	15032
912.176	15146
912.291	15135
912.405	15260
912.519	15405
912.633	15374
912.748	15226
912.862	15256
912.976	15028
913.09	14925
913.204	15051
913.318	15055
913.431	15047
913.545	15146
913.659	15176
913.772	15062
913.886	14815
914	14804
914.113	14918
914.226	14963
914.34	14899
914.453	14750
914.566	14929
914.68	14838
914.793	14727
914.906	14590
915.019	14442
915.132	14396
915.245	14480
915.358	14507
915.47	14598
915.583	14385
915.696	14492
915.809	14625
915.921	14678
916.034	14389
916.146	14530
916.259	14278
916.371	14454
916.483	14385
916.595	14294
916.708	14347
916.82	14347
916.932	14301
917.044	14275
917.156	14278
917.268	14081
917.38	14096
917.491	14134
917.603	14229
917.715	14286
917.826	14259
917.938	14103
918.049	14016
918.161	14221
918.272	14267
918.384	14229
918.495	14164
918.606	13925
918.717	13852
918.828	14008
918.939	13925
919.05	13883
919.161	13940
919.272	13662
919.383	13769
919.494	13993
919.604	14168
919.715	13955
919.826	13814
919.936	13841
920.047	13936
920.157	13928
920.267	14084
920.378	13909
920.488	13879
920.598	14126
920.708	14221
920.818	14050
920.928	14031
921.038	14229
921.148	14145
921.258	13814
921.368	13818
921.477	13719
921.587	13689
921.697	13514
921.806	13502
921.916	13575
922.025	13483
922.134	13274
922.244	13232
922.353	13460
922.462	13187
922.571	13225
922.68	12947
922.789	12947
922.898	13004
923.007	12958
923.116	12993
923.224	12924
923.333	12920
923.442	12882
923.55	12798
923.659	12814
923.767	12859
923.876	12715
923.984	12806
924.092	12681
924.201	12722
924.309	12688
924.417	12722
924.525	12650
924.633	12658
924.741	13575
924.849	12498
924.956	12665
925.064	12445
925.172	12357
925.279	12350
925.387	12483
925.494	12452
925.602	12555
925.709	12509
925.816	12315
925.924	12330
926.031	12456
926.138	12330
926.245	12342
926.352	12277
926.459	12410
926.566	12384
926.673	12346
926.779	12201
926.886	12197
926.993	12011
927.099	12003
927.206	11973
927.312	11984
927.419	12057
927.525	11954
927.631	12030
927.737	11942
927.843	11847
927.95	11714
928.056	11832
928.162	11889
928.267	11863
928.373	12433
928.479	11889
928.585	11726
928.69	11828
928.796	11855
928.901	11691
929.007	11524
929.112	11745
929.218	11745
929.323	11573
929.428	11520
929.533	11623
929.638	11543
929.743	11551
929.848	11512
929.953	11509
930.058	11410
930.163	11265
930.267	11349
930.372	11391
930.477	11296
930.581	11463
930.685	11296
930.79	11098
930.894	11216
930.998	11136
931.103	11250
931.207	10923
931.311	10820
931.415	10790
931.519	10630
931.623	10516
