Data from test_V78500241_3293.txt Node
Date: Fri Mar 25 15:32:47 CST 2022
User: usil
Spectrometer: V785-0024
Trigger mode: 0
Integration Time (sec): 4.000000E-1
Scans to average: 1
Nonlinearity correction enabled: false
Boxcar width: 0
Storing dark spectrum: false
XAxis mode: Wavelengths
Number of Pixels in Spectrum: 1024
>>>>>Begin Spectral Data<<<<<
801.071	27283
801.214	27241
801.356	27043
801.499	27001
801.641	26864
801.783	26861
801.926	26849
802.068	26883
802.211	26872
802.353	26823
802.496	26518
802.638	26484
802.78	26495
802.923	26431
803.065	26442
803.208	26575
803.35	26549
803.492	26609
803.635	26609
803.777	26427
803.919	26712
804.061	27009
804.204	26708
804.346	26667
804.488	26545
804.63	26667
804.773	26560
804.915	26743
805.057	26773
805.199	26533
805.341	26708
805.483	26758
805.626	26819
805.768	26735
805.91	26838
806.052	26876
806.194	26670
806.336	26906
806.478	26796
806.62	26773
806.762	26864
806.904	26918
807.046	27302
807.188	27184
807.33	27138
807.472	27207
807.614	27112
807.756	27218
807.898	27005
808.04	26842
808.182	26910
808.324	26990
808.465	27119
808.607	27435
808.749	27424
808.891	27427
809.033	27538
809.174	27424
809.316	27466
809.458	27359
809.6	27389
809.741	27386
809.883	27534
810.025	27656
810.166	27633
810.308	27603
810.45	27595
810.591	27663
810.733	27287
810.875	27329
811.016	27355
811.158	27252
811.299	27359
811.441	27648
811.582	27542
811.724	27302
811.865	27336
812.007	27367
812.148	27386
812.29	27401
812.431	27485
812.573	27827
812.714	27679
812.855	27812
812.997	28086
813.138	27979
813.279	27930
813.421	27827
813.562	27808
813.703	27728
813.845	27671
813.986	27241
814.127	26967
814.268	27066
814.41	27074
814.551	27089
814.692	27043
814.833	27051
814.974	27188
815.115	27127
815.256	26800
815.397	26944
815.539	26788
815.68	26804
815.821	26705
815.962	26678
816.103	26739
816.244	26651
816.385	26613
816.526	26655
816.666	26495
816.807	26206
816.948	26366
817.089	26351
817.23	26252
817.371	26389
817.512	26358
817.653	26267
817.793	26214
817.934	26317
818.075	26275
818.216	26355
818.356	26381
818.497	26164
818.638	26039
818.778	25959
818.919	26008
819.06	26210
819.2	26278
819.341	26442
819.481	26183
819.622	26442
819.762	26621
819.903	26598
820.043	26381
820.184	26301
820.324	26396
820.465	26370
820.605	26355
820.746	26374
820.886	26172
821.026	26305
821.167	26275
821.307	26389
821.447	26305
821.588	26008
821.728	26164
821.868	25925
822.008	25655
822.149	25693
822.289	25689
822.429	25415
822.569	25464
822.709	25533
822.849	25373
822.99	25335
823.13	25168
823.27	25274
823.41	25175
823.55	24989
823.69	25118
823.83	25072
823.97	25061
824.11	24848
824.25	24814
824.389	24905
824.529	24981
824.669	24920
824.809	25000
824.949	24989
825.089	24886
825.228	24932
825.368	24749
825.508	24757
825.648	24787
825.787	24821
825.927	24897
826.067	24700
826.206	24738
826.346	24852
826.485	24791
826.625	24833
826.765	24951
826.904	24810
827.044	24589
827.183	24483
827.323	24627
827.462	24688
827.601	24669
827.741	24490
827.88	24540
828.02	24475
828.159	24376
828.298	24483
828.437	24467
828.577	24391
828.716	24486
828.855	24437
828.994	24232
829.134	24353
829.273	24159
829.412	24178
829.551	24140
829.69	24140
829.829	24285
829.968	24330
830.107	24399
830.246	24197
830.385	24220
830.524	24174
830.663	23942
830.802	24068
830.941	23935
831.08	23832
831.219	23859
831.357	24015
831.496	23999
831.635	23733
831.774	23630
831.913	23718
832.051	23592
832.19	23452
832.329	23718
832.467	23592
832.606	23402
832.744	23398
832.883	23497
833.022	23246
833.16	23376
833.299	23528
833.437	23581
833.576	23771
833.714	23383
833.852	23642
833.991	23745
834.129	23714
834.267	23687
834.406	23581
834.544	23615
834.682	23528
834.821	23501
834.959	23790
835.097	23398
835.235	23714
835.373	23482
835.511	23570
835.65	23425
835.788	23425
835.926	23345
836.064	23200
836.202	23258
836.34	23478
836.478	23471
836.615	23414
836.753	23474
836.891	23642
837.029	23509
837.167	23334
837.305	23273
837.443	23208
837.58	23246
837.718	23410
837.856	23200
837.993	23269
838.131	23395
838.269	23220
838.406	23147
838.544	23067
838.681	23010
838.819	22923
838.956	22854
839.094	22660
839.231	22824
839.369	22919
839.506	23220
839.643	23014
839.781	22774
839.918	22615
840.055	22733
840.193	22668
840.33	22740
840.467	22694
840.604	22850
840.742	22984
840.879	22485
841.016	22615
841.153	22497
841.29	22774
841.427	22630
841.564	22820
841.701	22713
841.838	22577
841.975	22565
842.112	22626
842.249	22565
842.385	22405
842.522	22694
842.659	22618
842.796	22470
842.933	22508
843.069	22375
843.206	22440
843.343	22474
843.479	22546
843.616	22424
843.752	22143
843.889	22253
844.025	22272
844.162	22188
844.298	22284
844.435	22249
844.571	22185
844.708	22261
844.844	22348
844.98	22295
845.117	22371
845.253	22105
845.389	22101
845.525	22185
845.661	22010
845.798	21907
845.934	22029
846.07	21915
846.206	21956
846.342	22143
846.478	21941
846.614	21743
846.75	21713
846.886	21762
847.022	21800
847.158	21762
847.294	21770
847.429	21759
847.565	21625
847.701	21918
847.837	21359
847.972	21298
848.108	21504
848.244	21408
848.379	21351
848.515	21370
848.65	21310
848.786	21199
848.921	21298
849.057	21321
849.192	21283
849.328	21355
849.463	21306
849.598	21283
849.734	21211
849.869	21138
850.004	20998
850.14	21150
850.275	21226
850.41	20895
850.545	21066
850.68	21024
850.815	21062
850.95	21020
851.085	21199
851.22	21150
851.355	20967
851.49	21013
851.625	21085
851.76	21207
851.895	21001
852.03	21009
852.165	21081
852.299	21074
852.434	21218
852.569	21009
852.703	21081
852.838	21123
852.973	21211
853.107	21150
853.242	20963
853.376	20960
853.511	20781
853.645	20708
853.78	21005
853.914	20899
854.048	21024
854.183	20918
854.317	20929
854.451	21085
854.585	21066
854.72	20773
854.854	20925
854.988	20834
855.122	20906
855.256	20773
855.39	20853
855.524	20891
855.658	20963
855.792	20853
855.926	20899
856.06	20948
856.194	21074
856.327	20921
856.461	20845
856.595	20670
856.729	20758
856.862	20929
856.996	20914
857.13	20971
857.263	21051
857.397	20925
857.53	20872
857.664	20952
857.797	20883
857.931	20979
858.064	20910
858.197	20979
858.331	20853
858.464	20823
858.597	20762
858.731	20743
858.864	20811
858.997	20872
859.13	20994
859.263	20918
859.396	21036
859.529	20933
859.662	20921
859.795	20876
859.928	20880
860.061	20944
860.194	21070
860.327	20807
860.46	20899
860.592	20842
860.725	20986
860.858	20925
860.99	20960
861.123	20834
861.256	20845
861.388	20929
861.521	21469
861.653	20625
861.786	20644
861.918	20670
862.05	20674
862.183	20811
862.315	20838
862.447	20849
862.58	20750
862.712	20598
862.844	20556
862.976	20727
863.108	20686
863.24	21108
863.372	20530
863.504	20583
863.636	20476
863.768	20587
863.9	20545
864.032	20507
864.164	20507
864.296	20564
864.428	20670
864.559	20663
864.691	20705
864.823	20644
864.954	20598
865.086	20518
865.217	20606
865.349	20488
865.48	20503
865.612	20537
865.743	20693
865.875	20598
866.006	20537
866.137	20355
866.269	20587
866.4	20518
866.531	20552
866.662	20484
866.793	20499
866.924	20480
867.055	20526
867.186	20617
867.317	20351
867.448	20446
867.579	20393
867.71	20275
867.841	20442
867.972	20434
868.103	20499
868.233	20533
868.364	20431
868.495	20526
868.625	20842
868.756	20701
868.886	20640
869.017	20571
869.147	20667
869.278	20750
869.408	20743
869.539	20655
869.669	20697
869.799	20617
869.929	20891
870.06	20727
870.19	20929
870.32	20971
870.45	21055
870.58	20982
870.71	21157
870.84	21146
870.97	21066
871.1	21180
871.23	21256
871.36	21374
871.489	21116
871.619	21313
871.749	21241
871.879	21275
872.008	21310
872.138	21393
872.267	21233
872.397	21192
872.526	21024
872.656	21100
872.785	21047
872.915	21363
873.044	21325
873.173	21325
873.303	21344
873.432	21355
873.561	21393
873.69	21336
873.819	21272
873.948	21325
874.077	21355
874.206	21264
874.335	21237
874.464	21477
874.593	21545
874.722	21519
874.851	21663
874.979	21416
875.108	21625
875.237	21526
875.365	21462
875.494	21606
875.623	21538
875.751	21515
875.88	21656
876.008	21663
876.136	21831
876.265	22109
876.393	22090
876.521	21922
876.65	21979
876.778	21949
876.906	21838
877.034	21835
877.162	21998
877.29	21949
877.418	21899
877.546	22006
877.674	21899
877.802	21808
877.93	21835
878.058	21869
878.185	21732
878.313	21873
878.441	21842
878.568	21698
878.696	21759
878.824	21907
878.951	21956
879.079	22002
879.206	22230
879.333	22048
879.461	21888
879.588	22025
879.715	22021
879.842	22181
879.97	22051
880.097	21667
880.224	21827
880.351	21778
880.478	21785
880.605	21698
880.732	21728
880.859	21918
880.986	21660
881.112	21717
881.239	21633
881.366	21435
881.493	21348
881.619	21298
881.746	21321
881.872	21310
881.999	21332
882.125	21241
882.252	21264
882.378	21310
882.505	21329
882.631	21157
882.757	21032
882.883	21131
883.01	21024
883.136	21055
883.262	20998
883.388	20762
883.514	20941
883.64	21070
883.766	20979
883.892	20705
884.018	20788
884.143	20944
884.269	20937
884.395	20754
884.52	20636
884.646	20609
884.772	20575
884.897	20606
885.023	20598
885.148	20701
885.274	20834
885.399	20678
885.524	20629
885.65	20834
885.775	20625
885.9	20568
886.025	20845
886.15	20815
886.275	20583
886.4	20644
886.525	20625
886.65	20518
886.775	20564
886.9	20788
887.025	20967
887.149	20689
887.274	20488
887.399	20339
887.523	20324
887.648	20317
887.773	20461
887.897	20473
888.021	20495
888.146	20415
888.27	20522
888.395	20419
888.519	20461
888.643	20412
888.767	20381
888.891	20294
889.015	20218
889.139	20225
889.263	20191
889.387	20400
889.511	20480
889.635	20438
889.759	20206
889.883	20206
890.006	20210
890.13	20248
890.254	20077
890.377	20039
890.501	19978
890.624	19864
890.748	20027
890.871	19868
890.995	19811
891.118	19849
891.241	19795
891.364	19788
891.488	19902
891.611	19799
891.734	19761
891.857	19769
891.98	19887
892.103	19811
892.226	19852
892.349	19742
892.471	19685
892.594	19662
892.717	19734
892.839	19776
892.962	19772
893.085	19746
893.207	19715
893.33	19586
893.452	19734
893.575	19605
893.697	19738
893.819	19765
893.941	19845
894.064	19799
894.186	19696
894.308	19723
894.43	19845
894.552	19890
894.674	19765
894.796	19620
894.918	19674
895.04	19715
895.161	19868
895.283	19696
895.405	19632
895.526	19791
895.648	19727
895.769	19708
895.891	19719
896.012	19852
896.134	19708
896.255	19696
896.376	19723
896.498	19822
896.619	19689
896.74	19700
896.861	19712
896.982	20073
897.103	20119
897.224	19913
897.345	19894
897.466	19951
897.587	19887
897.708	20081
897.828	19970
897.949	19947
898.07	19833
898.19	19837
898.311	20081
898.431	19898
898.552	20001
898.672	19993
898.792	20005
898.913	19967
899.033	19955
899.153	19761
899.273	19704
899.393	19715
899.513	19662
899.633	19734
899.753	19742
899.873	19624
899.993	19734
900.113	19635
900.232	19677
900.352	19738
900.472	19586
900.591	19548
900.711	19559
900.83	19388
900.95	19556
901.069	19552
901.189	19343
901.308	19095
901.427	19187
901.546	19042
901.665	19160
901.784	18993
901.904	18977
902.023	18814
902.141	18604
902.26	18555
902.379	18661
902.498	18631
902.617	18544
902.735	18658
902.854	18681
902.973	18494
903.091	18277
903.21	18342
903.328	18247
903.446	18136
903.565	18079
903.683	18106
903.801	17984
903.919	18003
904.038	17931
904.156	17904
904.274	17908
904.392	17927
904.51	17638
904.627	17855
904.745	17897
904.863	17802
904.981	17585
905.098	17646
905.216	17516
905.334	17452
905.451	17440
905.569	17486
905.686	17516
905.803	17512
905.921	17227
906.038	17235
906.155	17368
906.272	17155
906.389	17166
906.506	17079
906.623	17102
906.74	16995
906.857	17014
906.974	16946
907.091	17162
907.208	17208
907.324	17041
907.441	16965
907.557	16866
907.674	16866
907.79	16691
907.907	16793
908.023	16763
908.139	16828
908.256	16706
908.372	16694
908.488	16634
908.604	16538
908.72	16538
908.836	16630
908.952	16512
909.068	16504
909.184	16519
909.3	16451
909.415	16440
909.531	16535
909.647	16238
909.762	16200
909.878	16246
909.993	16105
910.108	16192
910.224	16090
910.339	16185
910.454	16067
910.57	16010
910.685	15876
910.8	16215
910.915	16124
911.03	16029
911.145	15842
911.259	15865
911.374	15808
911.489	15778
911.604	15736
911.718	15534
911.833	15667
911.947	15500
912.062	15492
912.176	15553
912.291	15595
912.405	15557
912.519	15770
912.633	15797
912.748	15671
912.862	15496
912.976	15367
913.09	15180
913.204	15344
913.318	15370
913.431	15492
913.545	15386
913.659	15428
913.772	15367
913.886	15203
914	15188
914.113	15252
914.226	15317
914.34	15233
914.453	15039
914.566	15138
914.68	15100
914.793	15028
914.906	14857
915.019	14857
915.132	14727
915.245	14769
915.358	14769
915.47	14785
915.583	14796
915.696	14754
915.809	14849
915.921	14979
916.034	14746
916.146	14739
916.259	14720
916.371	14758
916.483	14781
916.595	14678
916.708	14693
916.82	14625
916.932	14507
917.044	14583
917.156	14533
917.268	14488
917.38	14530
917.491	14370
917.603	14389
917.715	14568
917.826	14617
917.938	14377
918.049	14301
918.161	14438
918.272	14507
918.384	14499
918.495	14423
918.606	14301
918.717	14202
918.828	14126
918.939	14225
919.05	14221
919.161	14172
919.272	13955
919.383	14062
919.494	14202
919.604	14355
919.715	14271
919.826	14103
919.936	14126
920.047	14244
920.157	14244
920.267	14469
920.378	14130
920.488	14187
920.598	14278
920.708	14530
920.818	14332
920.928	14400
921.038	14484
921.148	14415
921.258	14191
921.368	14134
921.477	13989
921.587	13947
921.697	13750
921.806	13902
921.916	13723
922.025	13662
922.134	13594
922.244	13556
922.353	13582
922.462	13415
922.571	13445
922.68	13308
922.789	13217
922.898	13339
923.007	13270
923.116	13247
923.224	13232
923.333	13232
923.442	13137
923.55	13065
923.659	13156
923.767	13221
923.876	12954
923.984	13015
924.092	12935
924.201	13050
924.309	12924
924.417	12966
924.525	13004
924.633	12802
924.741	13879
924.849	12726
924.956	12867
925.064	12692
925.172	12578
925.279	12692
925.387	12684
925.494	12650
925.602	12677
925.709	12711
925.816	12627
925.924	12578
926.031	12650
926.138	12578
926.245	12662
926.352	12494
926.459	12681
926.566	12692
926.673	12486
926.779	12410
926.886	12384
926.993	12270
927.099	12262
927.206	12258
927.312	12228
927.419	12311
927.525	12292
927.631	12296
927.737	12095
927.843	12091
927.95	12022
928.056	11980
928.162	12011
928.267	12144
928.373	12734
928.479	12026
928.585	11882
928.69	12064
928.796	12057
928.901	11942
929.007	11878
929.112	11977
929.218	11901
929.323	11779
929.428	11779
929.533	11908
929.638	11779
929.743	11710
929.848	11847
929.953	11783
930.058	11619
930.163	11490
930.267	11554
930.372	11646
930.477	11406
930.581	11729
930.685	11604
930.79	11372
930.894	11501
930.998	11417
931.103	11368
931.207	11204
931.311	11037
931.415	11025
931.519	10805
931.623	10752
