Data from test_V78500241_2523.txt Node
Date: Fri Mar 25 15:27:25 CST 2022
User: usil
Spectrometer: V785-0024
Trigger mode: 0
Integration Time (sec): 4.000000E-1
Scans to average: 1
Nonlinearity correction enabled: false
Boxcar width: 0
Storing dark spectrum: false
XAxis mode: Wavelengths
Number of Pixels in Spectrum: 1024
>>>>>Begin Spectral Data<<<<<
801.071	27036
801.214	26967
801.356	26815
801.499	26682
801.641	26659
801.783	26579
801.926	26743
802.068	26625
802.211	26434
802.353	26503
802.496	26332
802.638	26161
802.78	26191
802.923	26168
803.065	26054
803.208	26122
803.35	26168
803.492	26366
803.635	26267
803.777	26256
803.919	26419
804.061	26667
804.204	26423
804.346	26351
804.488	26149
804.63	26423
804.773	26377
804.915	26343
805.057	26461
805.199	26370
805.341	26412
805.483	26537
805.626	26408
805.768	26469
805.91	26488
806.052	26400
806.194	26366
806.336	26613
806.478	26613
806.62	26370
806.762	26590
806.904	26785
807.046	26891
807.188	26910
807.33	26975
807.472	26853
807.614	26823
807.756	26921
807.898	26762
808.04	26583
808.182	26765
808.324	26788
808.465	26819
808.607	26906
808.749	27108
808.891	27112
809.033	27138
809.174	27340
809.316	27089
809.458	27051
809.6	27055
809.741	27131
809.883	27195
810.025	27302
810.166	27291
810.308	27344
810.45	27207
810.591	27264
810.733	27039
810.875	27096
811.016	27020
811.158	26982
811.299	26986
811.441	27268
811.582	27252
811.724	27184
811.865	27176
812.007	27032
812.148	26952
812.29	27180
812.431	27135
812.573	27504
812.714	27348
812.855	27637
812.997	27534
813.138	27846
813.279	27633
813.421	27568
813.562	27462
813.703	27245
813.845	27230
813.986	26769
814.127	26857
814.268	26632
814.41	26762
814.551	26746
814.692	26644
814.833	26659
814.974	26705
815.115	26686
815.256	26773
815.397	26640
815.539	26602
815.68	26431
815.821	26423
815.962	26533
816.103	26606
816.244	26385
816.385	26244
816.526	26271
816.666	26043
816.807	26103
816.948	26157
817.089	25944
817.23	26039
817.371	25978
817.512	25940
817.653	26039
817.793	25921
817.934	25951
818.075	25974
818.216	25955
818.356	25951
818.497	25883
818.638	25685
818.778	25738
818.919	25822
819.06	25791
819.2	25776
819.341	25932
819.481	25959
819.622	25963
819.762	26290
819.903	26225
820.043	26111
820.184	26115
820.324	26005
820.465	26096
820.605	26172
820.746	26043
820.886	25951
821.026	26046
821.167	26046
821.307	26035
821.447	26039
821.588	25932
821.728	25822
821.868	25723
822.008	25441
822.149	25453
822.289	25384
822.429	25088
822.569	25114
822.709	25198
822.849	24985
822.99	24901
823.13	24958
823.27	24897
823.41	24817
823.55	24741
823.69	24768
823.83	24726
823.97	24764
824.11	24631
824.25	24570
824.389	24623
824.529	24764
824.669	24669
824.809	24574
824.949	24684
825.089	24646
825.228	24528
825.368	24479
825.508	24323
825.648	24486
825.787	24570
825.927	24452
826.067	24540
826.206	24563
826.346	24505
826.485	24604
826.625	24479
826.765	24623
826.904	24407
827.044	24281
827.183	24194
827.323	24106
827.462	24235
827.601	24205
827.741	24167
827.88	24159
828.02	24015
828.159	24163
828.298	24194
828.437	24380
828.577	24083
828.716	24205
828.855	24152
828.994	23912
829.134	23942
829.273	23870
829.412	23885
829.551	23821
829.69	23870
829.829	24007
829.968	23912
830.107	23840
830.246	23874
830.385	23828
830.524	23832
830.663	23745
830.802	23634
830.941	23592
831.08	23558
831.219	23703
831.357	23608
831.496	23672
831.635	23448
831.774	23368
831.913	23246
832.051	23318
832.19	23277
832.329	23341
832.467	23166
832.606	23223
832.744	23193
832.883	23155
833.022	23128
833.16	23162
833.299	23200
833.437	23288
833.576	23197
833.714	23288
833.852	23227
833.991	23204
834.129	23356
834.267	23330
834.406	23261
834.544	23341
834.682	23193
834.821	23235
834.959	23452
835.097	23246
835.235	23239
835.373	23216
835.511	23075
835.65	23037
835.788	23136
835.926	22976
836.064	22911
836.202	23003
836.34	22930
836.478	23174
836.615	23071
836.753	23052
836.891	23159
837.029	23044
837.167	23029
837.305	22968
837.443	22968
837.58	23018
837.718	22949
837.856	22869
837.993	22862
838.131	22866
838.269	22755
838.406	22847
838.544	22706
838.681	22725
838.819	22493
838.956	22421
839.094	22405
839.231	22481
839.369	22664
839.506	22835
839.643	22668
839.781	22382
839.918	22382
840.055	22436
840.193	22337
840.33	22356
840.467	22474
840.604	22409
840.742	22755
840.879	22272
841.016	22242
841.153	22375
841.29	22455
841.427	22337
841.564	22489
841.701	22310
841.838	22341
841.975	22261
842.112	22284
842.249	22409
842.385	22188
842.522	22417
842.659	22219
842.796	22120
842.933	22082
843.069	22128
843.206	22097
843.343	22131
843.479	22059
843.616	22185
843.752	21945
843.889	21937
844.025	21983
844.162	21835
844.298	22112
844.435	21812
844.571	21804
844.708	21991
844.844	22013
844.98	21972
845.117	22029
845.253	21831
845.389	21747
845.525	21876
845.661	21671
845.798	21679
845.934	21713
846.07	21679
846.206	21766
846.342	21728
846.478	21648
846.614	21591
846.75	21359
846.886	21370
847.022	21408
847.158	21348
847.294	21386
847.429	21443
847.565	21291
847.701	21538
847.837	21180
847.972	21032
848.108	21252
848.244	21256
848.379	20948
848.515	21013
848.65	20952
848.786	21043
848.921	21032
849.057	21154
849.192	21005
849.328	21123
849.463	21028
849.598	20910
849.734	20914
849.869	20891
850.004	20788
850.14	20849
850.275	20773
850.41	20522
850.545	20781
850.68	20720
850.815	20712
850.95	20724
851.085	20838
851.22	20899
851.355	20785
851.49	20716
851.625	20689
851.76	20769
851.895	20667
852.03	20708
852.165	20674
852.299	20845
852.434	20853
852.569	20876
852.703	20746
852.838	20906
852.973	20956
853.107	20769
853.242	20788
853.376	20564
853.511	20324
853.645	20667
853.78	20720
853.914	20518
854.048	20495
854.183	20556
854.317	20587
854.451	20712
854.585	20594
854.72	20579
854.854	20659
854.988	20583
855.122	20564
855.256	20492
855.39	20522
855.524	20636
855.658	20583
855.792	20564
855.926	20602
856.06	20609
856.194	20724
856.327	20526
856.461	20427
856.595	20568
856.729	20663
856.862	20655
856.996	20514
857.13	20625
857.263	20621
857.397	20560
857.53	20663
857.664	20594
857.797	20617
857.931	20674
858.064	20530
858.197	20674
858.331	20579
858.464	20518
858.597	20427
858.731	20552
858.864	20568
858.997	20480
859.13	20495
859.263	20587
859.396	20541
859.529	20518
859.662	20492
859.795	20541
859.928	20598
860.061	20689
860.194	20659
860.327	20678
860.46	20571
860.592	20617
860.725	20693
860.858	20807
860.99	20511
861.123	20511
861.256	20522
861.388	20492
861.521	21386
861.653	20549
861.786	20324
861.918	20427
862.05	20461
862.183	20381
862.315	20469
862.447	20476
862.58	20492
862.712	20278
862.844	20248
862.976	20347
863.108	20427
863.24	20857
863.372	20187
863.504	20336
863.636	20457
863.768	20320
863.9	20438
864.032	20286
864.164	20267
864.296	20324
864.428	20427
864.559	20362
864.691	20393
864.823	20290
864.954	20286
865.086	20069
865.217	20195
865.349	20187
865.48	20088
865.612	20153
865.743	20332
865.875	20199
866.006	20214
866.137	20214
866.269	20153
866.4	20237
866.531	20233
866.662	20088
866.793	20096
866.924	20027
867.055	20024
867.186	20149
867.317	20183
867.448	20096
867.579	20153
867.71	20092
867.841	20058
867.972	20134
868.103	20168
868.233	20149
868.364	20199
868.495	20267
868.625	20305
868.756	20438
868.886	20298
869.017	20320
869.147	20324
869.278	20476
869.408	20400
869.539	20438
869.669	20415
869.799	20408
869.929	20442
870.06	20404
870.19	20777
870.32	20724
870.45	20815
870.58	20750
870.71	20899
870.84	20921
870.97	20792
871.1	20804
871.23	20910
871.36	20998
871.489	20941
871.619	20929
871.749	20982
871.879	20918
872.008	21211
872.138	20944
872.267	20986
872.397	20883
872.526	20868
872.656	20842
872.785	20845
872.915	20925
873.044	21089
873.173	21001
873.303	21154
873.432	21047
873.561	21093
873.69	21112
873.819	21081
873.948	21043
874.077	21131
874.206	20902
874.335	21051
874.464	21146
874.593	21192
874.722	21264
874.851	21340
874.979	21351
875.108	21313
875.237	21077
875.365	21279
875.494	21241
875.623	21428
875.751	21252
875.88	21367
876.008	21473
876.136	21473
876.265	21622
876.393	21816
876.521	21857
876.65	21899
876.778	21682
876.906	21724
877.034	21682
877.162	21682
877.29	21618
877.418	21595
877.546	21694
877.674	21572
877.802	21591
877.93	21713
878.058	21481
878.185	21526
878.313	21686
878.441	21622
878.568	21553
878.696	21477
878.824	21690
878.951	21717
879.079	21770
879.206	21899
879.333	21759
879.461	21736
879.588	21713
879.715	21789
879.842	22006
879.97	21701
880.097	21564
880.224	21504
880.351	21671
880.478	21374
880.605	21405
880.732	21477
880.859	21728
880.986	21469
881.112	21481
881.239	21321
881.366	21192
881.493	21108
881.619	21135
881.746	21116
881.872	20990
881.999	20986
882.125	20994
882.252	20952
882.378	21051
882.505	21089
882.631	20849
882.757	20746
882.883	20708
883.01	20804
883.136	20746
883.262	20606
883.388	20640
883.514	20678
883.64	20792
883.766	20625
883.892	20530
884.018	20476
884.143	20609
884.269	20781
884.395	20457
884.52	20309
884.646	20305
884.772	20362
884.897	20275
885.023	20313
885.148	20514
885.274	20522
885.399	20514
885.524	20419
885.65	20499
885.775	20454
885.9	20332
886.025	20469
886.15	20457
886.275	20396
886.4	20313
886.525	20286
886.65	20347
886.775	20275
886.9	20450
887.025	20609
887.149	20347
887.274	20263
887.399	20046
887.523	20275
887.648	20157
887.773	20016
887.897	20233
888.021	20195
888.146	20206
888.27	20298
888.395	20301
888.519	20309
888.643	20263
888.767	20062
888.891	20027
889.015	19906
889.139	20100
889.263	19921
889.387	20084
889.511	20180
889.635	20058
889.759	19917
889.883	19986
890.006	19951
890.13	20035
890.254	19917
890.377	20073
890.501	19704
890.624	19765
890.748	19727
890.871	19738
890.995	19559
891.118	19597
891.241	19491
891.364	19514
891.488	19814
891.611	19567
891.734	19586
891.857	19647
891.98	19590
892.103	19556
892.226	19544
892.349	19529
892.471	19308
892.594	19537
892.717	19563
892.839	19495
892.962	19426
893.085	19544
893.207	19472
893.33	19312
893.452	19449
893.575	19510
893.697	19502
893.819	19620
893.941	19681
894.064	19529
894.186	19392
894.308	19381
894.43	19571
894.552	19635
894.674	19533
894.796	19396
894.918	19449
895.04	19384
895.161	19537
895.283	19544
895.405	19460
895.526	19430
895.648	19537
895.769	19491
895.891	19514
896.012	19616
896.134	19495
896.255	19582
896.376	19453
896.498	19518
896.619	19559
896.74	19563
896.861	19544
896.982	19860
897.103	19875
897.224	19826
897.345	19628
897.466	19594
897.587	19715
897.708	19788
897.828	19708
897.949	19681
898.07	19491
898.19	19495
898.311	19826
898.431	19727
898.552	19689
898.672	19750
898.792	19727
898.913	19719
899.033	19609
899.153	19518
899.273	19396
899.393	19396
899.513	19518
899.633	19487
899.753	19468
899.873	19419
899.993	19483
900.113	19422
900.232	19514
900.352	19525
900.472	19289
900.591	19335
900.711	19460
900.83	19240
900.95	19346
901.069	19384
901.189	19198
901.308	18924
901.427	18924
901.546	18867
901.665	18894
901.784	18920
901.904	18661
902.023	18681
902.141	18418
902.26	18418
902.379	18452
902.498	18365
902.617	18304
902.735	18365
902.854	18388
902.973	18319
903.091	18091
903.21	17988
903.328	18026
903.446	17927
903.565	17897
903.683	17855
903.801	17733
903.919	17847
904.038	17733
904.156	17729
904.274	17573
904.392	17604
904.51	17558
904.627	17627
904.745	17672
904.863	17642
904.981	17398
905.098	17330
905.216	17181
905.334	17368
905.451	17414
905.569	17307
905.686	17341
905.803	17284
905.921	17155
906.038	17250
906.155	17128
906.272	16915
906.389	16976
906.506	16752
906.623	16866
906.74	16820
906.857	16752
906.974	16816
907.091	16896
907.208	16987
907.324	16850
907.441	16778
907.557	16550
907.674	16607
907.79	16558
907.907	16542
908.023	16596
908.139	16554
908.256	16523
908.372	16519
908.488	16443
908.604	16337
908.72	16284
908.836	16257
908.952	16322
909.068	16363
909.184	16360
909.3	16303
909.415	16409
909.531	16268
909.647	16090
909.762	16071
909.878	15968
909.993	15907
910.108	15998
910.224	15918
910.339	15998
910.454	15998
910.57	15831
910.685	15690
910.8	16048
910.915	15934
911.03	15842
911.145	15709
911.259	15656
911.374	15614
911.489	15599
911.604	15523
911.718	15310
911.833	15401
911.947	15344
912.062	15283
912.176	15351
912.291	15534
912.405	15405
912.519	15580
912.633	15622
912.748	15526
912.862	15291
912.976	15245
913.09	15036
913.204	15135
913.318	15218
913.431	15306
913.545	15306
913.659	15180
913.772	15146
913.886	15058
914	14948
914.113	15097
914.226	15089
914.34	15112
914.453	14937
914.566	14982
914.68	14902
914.793	14883
914.906	14674
915.019	14602
915.132	14587
915.245	14625
915.358	14564
915.47	14598
915.583	14575
915.696	14629
915.809	14659
915.921	14769
916.034	14514
916.146	14514
916.259	14488
916.371	14541
916.483	14537
916.595	14549
916.708	14503
916.82	14518
916.932	14438
917.044	14446
917.156	14366
917.268	14298
917.38	14366
917.491	14218
917.603	14278
917.715	14355
917.826	14328
917.938	14221
918.049	14172
918.161	14240
918.272	14275
918.384	14370
918.495	14183
918.606	14107
918.717	14027
918.828	14142
918.939	14096
919.05	13982
919.161	13936
919.272	13841
919.383	13871
919.494	14107
919.604	14320
919.715	14065
919.826	13982
919.936	14100
920.047	14069
920.157	14088
920.267	14275
920.378	14005
920.488	13970
920.598	14206
920.708	14252
920.818	14187
920.928	14199
921.038	14434
921.148	14278
921.258	13959
921.368	13883
921.477	13753
921.587	13761
921.697	13597
921.806	13765
921.916	13620
922.025	13540
922.134	13449
922.244	13354
922.353	13559
922.462	13354
922.571	13285
922.68	13152
922.789	13095
922.898	13145
923.007	13015
923.116	13080
923.224	13084
923.333	13034
923.442	12859
923.55	12905
923.659	12954
923.767	13053
923.876	12886
923.984	12913
924.092	12897
924.201	12901
924.309	12848
924.417	12863
924.525	12757
924.633	12722
924.741	13723
924.849	12471
924.956	12681
925.064	12616
925.172	12422
925.279	12517
925.387	12551
925.494	12582
925.602	12650
925.709	12547
925.816	12384
925.924	12559
926.031	12536
926.138	12433
926.245	12498
926.352	12372
926.459	12486
926.566	12525
926.673	12456
926.779	12262
926.886	12289
926.993	12194
927.099	12129
927.206	12079
927.312	12098
927.419	12106
927.525	12026
927.631	12148
927.737	11969
927.843	11889
927.95	11821
928.056	11889
928.162	11942
928.267	11889
928.373	12597
928.479	12003
928.585	11805
928.69	11824
928.796	11988
928.901	11794
929.007	11684
929.112	11745
929.218	11802
929.323	11699
929.428	11577
929.533	11840
929.638	11573
929.743	11608
929.848	11630
929.953	11604
930.058	11509
930.163	11345
930.267	11383
930.372	11509
930.477	11296
930.581	11467
930.685	11433
930.79	11220
930.894	11292
930.998	11212
931.103	11410
931.207	11033
931.311	10930
931.415	10752
931.519	10656
931.623	10698
