Data from test_V78500241_2720.txt Node
Date: Fri Mar 25 15:28:47 CST 2022
User: usil
Spectrometer: V785-0024
Trigger mode: 0
Integration Time (sec): 4.000000E-1
Scans to average: 1
Nonlinearity correction enabled: false
Boxcar width: 0
Storing dark spectrum: false
XAxis mode: Wavelengths
Number of Pixels in Spectrum: 1024
>>>>>Begin Spectral Data<<<<<
801.071	27104
801.214	27005
801.356	26990
801.499	26754
801.641	26838
801.783	26621
801.926	26667
802.068	26602
802.211	26556
802.353	26598
802.496	26328
802.638	26298
802.78	26271
802.923	26187
803.065	26237
803.208	26221
803.35	26214
803.492	26446
803.635	26412
803.777	26320
803.919	26499
804.061	26777
804.204	26530
804.346	26324
804.488	26332
804.63	26343
804.773	26355
804.915	26389
805.057	26385
805.199	26453
805.341	26651
805.483	26530
805.626	26484
805.768	26457
805.91	26514
806.052	26549
806.194	26484
806.336	26663
806.478	26495
806.62	26587
806.762	26811
806.904	26800
807.046	27184
807.188	26982
807.33	26940
807.472	27085
807.614	26925
807.756	26864
807.898	26819
808.04	26682
808.182	26686
808.324	26826
808.465	26902
808.607	26998
808.749	27089
808.891	27252
809.033	27264
809.174	27256
809.316	27165
809.458	27165
809.6	27226
809.741	27310
809.883	27256
810.025	27325
810.166	27511
810.308	27454
810.45	27313
810.591	27298
810.733	27089
810.875	27119
811.016	26971
811.158	27066
811.299	27279
811.441	27165
811.582	27351
811.724	27131
811.865	27089
812.007	27184
812.148	27146
812.29	27112
812.431	27268
812.573	27279
812.714	27538
812.855	27648
812.997	27724
813.138	27846
813.279	27739
813.421	27591
813.562	27660
813.703	27389
813.845	27340
813.986	27036
814.127	26861
814.268	26910
814.41	26823
814.551	26750
814.692	26712
814.833	26743
814.974	26804
815.115	26830
815.256	26606
815.397	26693
815.539	26708
815.68	26560
815.821	26465
815.962	26670
816.103	26415
816.244	26442
816.385	26423
816.526	26419
816.666	26107
816.807	26100
816.948	26138
817.089	26286
817.23	26103
817.371	26062
817.512	26103
817.653	26058
817.793	26012
817.934	26054
818.075	26016
818.216	26050
818.356	26062
818.497	25864
818.638	25795
818.778	25906
818.919	25860
819.06	26005
819.2	25856
819.341	25936
819.481	26043
819.622	26107
819.762	26358
819.903	26290
820.043	26377
820.184	26252
820.324	26107
820.465	26248
820.605	26103
820.746	26168
820.886	26111
821.026	26153
821.167	26096
821.307	26008
821.447	26164
821.588	25902
821.728	25913
821.868	25700
822.008	25563
822.149	25476
822.289	25518
822.429	25206
822.569	25339
822.709	25141
822.849	25004
822.99	25118
823.13	25015
823.27	24840
823.41	24802
823.55	24738
823.69	24878
823.83	24806
823.97	24787
824.11	24627
824.25	24673
824.389	24604
824.529	24730
824.669	24601
824.809	24681
824.949	24700
825.089	24719
825.228	24559
825.368	24502
825.508	24391
825.648	24585
825.787	24536
825.927	24559
826.067	24563
826.206	24547
826.346	24639
826.485	24604
826.625	24563
826.765	24566
826.904	24490
827.044	24319
827.183	24319
827.323	24057
827.462	24285
827.601	24228
827.741	24289
827.88	24350
828.02	24049
828.159	24133
828.298	24133
828.437	24163
828.577	24247
828.716	24292
828.855	24136
828.994	23977
829.134	23866
829.273	24053
829.412	23843
829.551	23897
829.69	23950
829.829	23965
829.968	24098
830.107	24022
830.246	23980
830.385	23942
830.524	23885
830.663	23870
830.802	23657
830.941	23482
831.08	23604
831.219	23604
831.357	23551
831.496	23741
831.635	23665
831.774	23471
831.913	23398
832.051	23284
832.19	23372
832.329	23322
832.467	23212
832.606	23315
832.744	23231
832.883	23258
833.022	23258
833.16	23185
833.299	23364
833.437	23220
833.576	23341
833.714	23318
833.852	23353
833.991	23341
834.129	23417
834.267	23341
834.406	23326
834.544	23250
834.682	23246
834.821	23360
834.959	23337
835.097	23292
835.235	23258
835.373	23189
835.511	23292
835.65	23162
835.788	23162
835.926	22987
836.064	23025
836.202	23022
836.34	23185
836.478	23155
836.615	23178
836.753	23159
836.891	23273
837.029	23231
837.167	23079
837.305	23006
837.443	23102
837.58	22934
837.718	23010
837.856	23018
837.993	23025
838.131	23018
838.269	22850
838.406	22938
838.544	22847
838.681	22687
838.819	22615
838.956	22440
839.094	22569
839.231	22580
839.369	22733
839.506	22839
839.643	22599
839.781	22459
839.918	22363
840.055	22478
840.193	22413
840.33	22394
840.467	22466
840.604	22413
840.742	22645
840.879	22265
841.016	22246
841.153	22242
841.29	22417
841.427	22447
841.564	22481
841.701	22223
841.838	22306
841.975	22284
842.112	22432
842.249	22325
842.385	22192
842.522	22348
842.659	22287
842.796	22200
842.933	22272
843.069	22013
843.206	22150
843.343	22211
843.479	22135
843.616	22093
843.752	21975
843.889	21884
844.025	22158
844.162	21831
844.298	22029
844.435	21972
844.571	21934
844.708	22109
844.844	22048
844.98	22067
845.117	21991
845.253	21804
845.389	21762
845.525	21857
845.661	21713
845.798	21633
845.934	21698
846.07	21603
846.206	21701
846.342	21720
846.478	21641
846.614	21496
846.75	21325
846.886	21439
847.022	21443
847.158	21519
847.294	21393
847.429	21370
847.565	21397
847.701	21686
847.837	21226
847.972	21058
848.108	21279
848.244	21291
848.379	21108
848.515	20952
848.65	21017
848.786	21028
848.921	21070
849.057	20994
849.192	21047
849.328	21036
849.463	20975
849.598	20925
849.734	20929
849.869	20857
850.004	20720
850.14	20830
850.275	20777
850.41	20606
850.545	20735
850.68	20663
850.815	20682
850.95	20758
851.085	20845
851.22	20891
851.355	20735
851.49	20754
851.625	20781
851.76	20796
851.895	20655
852.03	20598
852.165	20769
852.299	20830
852.434	20883
852.569	20811
852.703	20705
852.838	20743
852.973	20845
853.107	20872
853.242	20670
853.376	20640
853.511	20427
853.645	20655
853.78	20682
853.914	20659
854.048	20530
854.183	20613
854.317	20659
854.451	20838
854.585	20629
854.72	20579
854.854	20724
854.988	20571
855.122	20571
855.256	20568
855.39	20545
855.524	20705
855.658	20568
855.792	20625
855.926	20552
856.06	20655
856.194	20640
856.327	20469
856.461	20552
856.595	20541
856.729	20629
856.862	20689
856.996	20625
857.13	20670
857.263	20678
857.397	20571
857.53	20495
857.664	20644
857.797	20609
857.931	20705
858.064	20678
858.197	20640
858.331	20579
858.464	20590
858.597	20518
858.731	20594
858.864	20674
858.997	20701
859.13	20712
859.263	20648
859.396	20674
859.529	20465
859.662	20473
859.795	20575
859.928	20560
860.061	20758
860.194	20765
860.327	20632
860.46	20575
860.592	20667
860.725	20670
860.858	20731
860.99	20484
861.123	20507
861.256	20530
861.388	20480
861.521	21199
861.653	20404
861.786	20461
861.918	20412
862.05	20492
862.183	20530
862.315	20590
862.447	20530
862.58	20564
862.712	20400
862.844	20278
862.976	20339
863.108	20374
863.24	20781
863.372	20267
863.504	20252
863.636	20286
863.768	20278
863.9	20320
864.032	20180
864.164	20233
864.296	20393
864.428	20507
864.559	20412
864.691	20412
864.823	20320
864.954	20370
865.086	20309
865.217	20202
865.349	20142
865.48	20153
865.612	20244
865.743	20381
865.875	20305
866.006	20138
866.137	20149
866.269	20164
866.4	20214
866.531	20191
866.662	20218
866.793	20195
866.924	20233
867.055	20221
867.186	20153
867.317	20100
867.448	20043
867.579	20069
867.71	20092
867.841	20111
867.972	20351
868.103	20134
868.233	20282
868.364	20187
868.495	20278
868.625	20385
868.756	20450
868.886	20347
869.017	20370
869.147	20396
869.278	20442
869.408	20419
869.539	20324
869.669	20396
869.799	20408
869.929	20537
870.06	20492
870.19	20758
870.32	20762
870.45	20823
870.58	20777
870.71	20883
870.84	20864
870.97	20724
871.1	20811
871.23	20834
871.36	21001
871.489	20929
871.619	21005
871.749	20914
871.879	20990
872.008	21123
872.138	21032
872.267	20948
872.397	20906
872.526	20918
872.656	20826
872.785	20899
872.915	21024
873.044	20971
873.173	21017
873.303	21074
873.432	21055
873.561	21146
873.69	21020
873.819	20971
873.948	21093
874.077	20952
874.206	20941
874.335	20944
874.464	21077
874.593	21302
874.722	21138
874.851	21363
874.979	21272
875.108	21180
875.237	21313
875.365	21135
875.494	21222
875.623	21302
875.751	21226
875.88	21264
876.008	21458
876.136	21591
876.265	21717
876.393	21759
876.521	21698
876.65	21717
876.778	21641
876.906	21656
877.034	21603
877.162	21622
877.29	21599
877.418	21698
877.546	21599
877.674	21648
877.802	21622
877.93	21629
878.058	21637
878.185	21424
878.313	21572
878.441	21637
878.568	21629
878.696	21454
878.824	21473
878.951	21690
879.079	21774
879.206	21899
879.333	21800
879.461	21652
879.588	21766
879.715	21736
879.842	21880
879.97	21614
880.097	21416
880.224	21530
880.351	21477
880.478	21473
880.605	21275
880.732	21420
880.859	21679
880.986	21428
881.112	21545
881.239	21416
881.366	21298
881.493	21089
881.619	21108
881.746	21032
881.872	21001
881.999	21001
882.125	21020
882.252	21036
882.378	21013
882.505	21123
882.631	20830
882.757	20815
882.883	20842
883.01	20727
883.136	20590
883.262	20575
883.388	20484
883.514	20796
883.64	20830
883.766	20568
883.892	20438
884.018	20598
884.143	20842
884.269	20849
884.395	20473
884.52	20419
884.646	20286
884.772	20347
884.897	20309
885.023	20457
885.148	20522
885.274	20514
885.399	20537
885.524	20313
885.65	20404
885.775	20404
885.9	20415
886.025	20549
886.15	20434
886.275	20427
886.4	20328
886.525	20313
886.65	20290
886.775	20294
886.9	20469
887.025	20545
887.149	20317
887.274	20168
887.399	20088
887.523	20130
887.648	20126
887.773	20069
887.897	20332
888.021	20115
888.146	20138
888.27	20229
888.395	20134
888.519	20195
888.643	20229
888.767	20115
888.891	19986
889.015	19970
889.139	19967
889.263	19986
889.387	20043
889.511	20100
889.635	20065
889.759	19887
889.883	19928
890.006	19963
890.13	20039
890.254	19982
890.377	19944
890.501	19818
890.624	19731
890.748	19807
890.871	19738
890.995	19609
891.118	19575
891.241	19499
891.364	19575
891.488	19852
891.611	19578
891.734	19499
891.857	19605
891.98	19647
892.103	19575
892.226	19689
892.349	19521
892.471	19411
892.594	19575
892.717	19552
892.839	19327
892.962	19533
893.085	19559
893.207	19537
893.33	19396
893.452	19487
893.575	19521
893.697	19487
893.819	19502
893.941	19681
894.064	19639
894.186	19396
894.308	19464
894.43	19540
894.552	19643
894.674	19628
894.796	19510
894.918	19483
895.04	19491
895.161	19495
895.283	19502
895.405	19373
895.526	19445
895.648	19419
895.769	19480
895.891	19472
896.012	19499
896.134	19620
896.255	19544
896.376	19472
896.498	19400
896.619	19609
896.74	19483
896.861	19567
896.982	19765
897.103	20043
897.224	19814
897.345	19807
897.466	19613
897.587	19674
897.708	19715
897.828	19776
897.949	19795
898.07	19559
898.19	19647
898.311	19776
898.431	19704
898.552	19712
898.672	19830
898.792	19890
898.913	19753
899.033	19685
899.153	19590
899.273	19460
899.393	19464
899.513	19460
899.633	19548
899.753	19537
899.873	19373
899.993	19563
900.113	19502
900.232	19460
900.352	19324
900.472	19377
900.591	19297
900.711	19392
900.83	19278
900.95	19441
901.069	19396
901.189	19164
901.308	19065
901.427	18935
901.546	18913
901.665	18913
901.784	18901
901.904	18726
902.023	18582
902.141	18422
902.26	18464
902.379	18441
902.498	18350
902.617	18353
902.735	18418
902.854	18285
902.973	18342
903.091	18110
903.21	18057
903.328	18079
903.446	18038
903.565	17859
903.683	17931
903.801	17726
903.919	17786
904.038	17756
904.156	17570
904.274	17783
904.392	17623
904.51	17627
904.627	17634
904.745	17619
904.863	17714
904.981	17398
905.098	17349
905.216	17315
905.334	17425
905.451	17337
905.569	17364
905.686	17410
905.803	17349
905.921	17071
906.038	17193
906.155	17102
906.272	16953
906.389	17094
906.506	16877
906.623	16847
906.74	16892
906.857	16805
906.974	16771
907.091	16919
907.208	16995
907.324	16858
907.441	16736
907.557	16618
907.674	16607
907.79	16523
907.907	16531
908.023	16618
908.139	16573
908.256	16569
908.372	16485
908.488	16478
908.604	16272
908.72	16306
908.836	16371
908.952	16352
909.068	16299
909.184	16432
909.3	16314
909.415	16265
909.531	16329
909.647	16017
909.762	16109
909.878	15926
909.993	16032
910.108	16040
910.224	16063
910.339	15918
910.454	15842
910.57	15869
910.685	15827
910.8	16032
910.915	15975
911.03	15899
911.145	15614
911.259	15648
911.374	15595
911.489	15545
911.604	15507
911.718	15447
911.833	15469
911.947	15351
912.062	15291
912.176	15420
912.291	15549
912.405	15511
912.519	15610
912.633	15561
912.748	15481
912.862	15283
912.976	15275
913.09	15077
913.204	15097
913.318	15245
913.431	15272
913.545	15287
913.659	15275
913.772	15184
913.886	15131
914	15100
914.113	15207
914.226	15097
914.34	15154
914.453	14941
914.566	15089
914.68	14960
914.793	14754
914.906	14659
915.019	14606
915.132	14518
915.245	14632
915.358	14651
915.47	14625
915.583	14610
915.696	14625
915.809	14750
915.921	14754
916.034	14564
916.146	14473
916.259	14541
916.371	14564
916.483	14533
916.595	14590
916.708	14484
916.82	14461
916.932	14438
917.044	14366
917.156	14446
917.268	14366
917.38	14324
917.491	14267
917.603	14225
917.715	14305
917.826	14347
917.938	14282
918.049	14195
918.161	14263
918.272	14290
918.384	14366
918.495	14218
918.606	14084
918.717	13989
918.828	14084
918.939	14020
919.05	13932
919.161	14142
919.272	13864
919.383	13913
919.494	14065
919.604	14271
919.715	14096
919.826	13909
919.936	14065
920.047	14107
920.157	14050
920.267	14210
920.378	14100
920.488	13974
920.598	14187
920.708	14343
920.818	14168
920.928	14100
921.038	14343
921.148	14351
921.258	13944
921.368	13898
921.477	13750
921.587	13856
921.697	13628
921.806	13811
921.916	13620
922.025	13552
922.134	13422
922.244	13453
922.353	13480
922.462	13327
922.571	13278
922.68	13072
922.789	13076
922.898	13107
923.007	13023
923.116	13133
923.224	13114
923.333	13031
923.442	12996
923.55	12905
923.659	13008
923.767	12989
923.876	12810
923.984	12913
924.092	12825
924.201	12867
924.309	12840
924.417	12852
924.525	12738
924.633	12817
924.741	13750
924.849	12665
924.956	12696
925.064	12528
925.172	12475
925.279	12540
925.387	12570
925.494	12597
925.602	12662
925.709	12612
925.816	12479
925.924	12502
926.031	12597
926.138	12429
926.245	12536
926.352	12395
926.459	12467
926.566	12536
926.673	12433
926.779	12281
926.886	12277
926.993	12140
927.099	12121
927.206	12068
927.312	12045
927.419	12155
927.525	12079
927.631	12068
927.737	12019
927.843	11946
927.95	11882
928.056	11950
928.162	12030
928.267	11927
928.373	12475
928.479	12015
928.585	11767
928.69	11912
928.796	11897
928.901	11699
929.007	11733
929.112	11824
929.218	11878
929.323	11665
929.428	11634
929.533	11798
929.638	11657
929.743	11668
929.848	11737
929.953	11680
930.058	11577
930.163	11482
930.267	11353
930.372	11463
930.477	11322
930.581	11573
930.685	11433
930.79	11242
930.894	11406
930.998	11189
931.103	11372
931.207	10938
931.311	10892
931.415	10885
931.519	10706
931.623	10675
