Data from test_V78500241_1381.txt Node
Date: Fri Mar 25 15:19:28 CST 2022
User: usil
Spectrometer: V785-0024
Trigger mode: 0
Integration Time (sec): 4.000000E-1
Scans to average: 1
Nonlinearity correction enabled: false
Boxcar width: 0
Storing dark spectrum: false
XAxis mode: Wavelengths
Number of Pixels in Spectrum: 1024
>>>>>Begin Spectral Data<<<<<
801.071	28181
801.214	28287
801.356	27827
801.499	27827
801.641	27739
801.783	27526
801.926	27724
802.068	27660
802.211	27709
802.353	27629
802.496	27443
802.638	27427
802.78	27287
802.923	27359
803.065	27245
803.208	27340
803.35	27427
803.492	27481
803.635	27568
803.777	27530
803.919	27580
804.061	27846
804.204	27637
804.346	27583
804.488	27595
804.63	27568
804.773	27443
804.915	27648
805.057	27622
805.199	27606
805.341	27641
805.483	27698
805.626	27781
805.768	27686
805.91	27610
806.052	27797
806.194	27698
806.336	27934
806.478	27698
806.62	27781
806.762	27846
806.904	28105
807.046	28280
807.188	28120
807.33	28223
807.472	28268
807.614	28063
807.756	28135
807.898	27911
808.04	28093
808.182	27953
808.324	28017
808.465	28147
808.607	28112
808.749	28394
808.891	28432
809.033	28573
809.174	28367
809.316	28375
809.458	28333
809.6	28314
809.741	28489
809.883	28641
810.025	28653
810.166	28584
810.308	28752
810.45	28672
810.591	28744
810.733	28447
810.875	28310
811.016	28318
811.158	28280
811.299	28371
811.441	28493
811.582	28641
811.724	28500
811.865	28394
812.007	28363
812.148	28348
812.29	28603
812.431	28607
812.573	28717
812.714	28752
812.855	28946
812.997	29067
813.138	29162
813.279	29056
813.421	28999
813.562	28847
813.703	28793
813.845	28611
813.986	28299
814.127	28185
814.268	28131
814.41	28067
814.551	28101
814.692	28074
814.833	28059
814.974	28124
815.115	28124
815.256	27960
815.397	28059
815.539	28006
815.68	27949
815.821	27854
815.962	27869
816.103	27926
816.244	27713
816.385	27629
816.526	27694
816.666	27583
816.807	27355
816.948	27374
817.089	27504
817.23	27504
817.371	27386
817.512	27321
817.653	27424
817.793	27329
817.934	27504
818.075	27408
818.216	27355
818.356	27279
818.497	27268
818.638	27195
818.778	27135
818.919	27089
819.06	27256
819.2	27321
819.341	27355
819.481	27374
819.622	27526
819.762	27698
819.903	27583
820.043	27656
820.184	27587
820.324	27454
820.465	27545
820.605	27572
820.746	27488
820.886	27397
821.026	27374
821.167	27447
821.307	27523
821.447	27393
821.588	27325
821.728	27199
821.868	27039
822.008	26845
822.149	26933
822.289	26864
822.429	26613
822.569	26579
822.709	26526
822.849	26480
822.99	26381
823.13	26328
823.27	26370
823.41	26256
823.55	26088
823.69	26202
823.83	26115
823.97	26225
824.11	26012
824.25	25951
824.389	26149
824.529	26111
824.669	26039
824.809	26122
824.949	26008
825.089	26168
825.228	26062
825.368	25757
825.508	25917
825.648	25921
825.787	25883
825.927	25970
826.067	25837
826.206	25986
826.346	25955
826.485	26024
826.625	25989
826.765	25986
826.904	25959
827.044	25814
827.183	25750
827.323	25677
827.462	25715
827.601	25643
827.741	25670
827.88	25685
828.02	25506
828.159	25632
828.298	25674
828.437	25666
828.577	25651
828.716	25605
828.855	25521
828.994	25381
829.134	25373
829.273	25369
829.412	25350
829.551	25236
829.69	25289
829.829	25354
829.968	25403
830.107	25320
830.246	25388
830.385	25225
830.524	25091
830.663	25179
830.802	25000
830.941	24886
831.08	24924
831.219	24962
831.357	24913
831.496	25145
831.635	24867
831.774	24821
831.913	24806
832.051	24867
832.19	24749
832.329	24764
832.467	24528
832.606	24646
832.744	24623
832.883	24684
833.022	24559
833.16	24639
833.299	24612
833.437	24738
833.576	24684
833.714	24627
833.852	24669
833.991	24787
834.129	24661
834.267	24639
834.406	24601
834.544	24741
834.682	24734
834.821	24608
834.959	24932
835.097	24612
835.235	24677
835.373	24764
835.511	24563
835.65	24601
835.788	24483
835.926	24475
836.064	24388
836.202	24289
836.34	24521
836.478	24517
836.615	24467
836.753	24536
836.891	24635
837.029	24528
837.167	24441
837.305	24429
837.443	24361
837.58	24285
837.718	24338
837.856	24384
837.993	24178
838.131	24365
838.269	24296
838.406	24152
838.544	24121
838.681	24140
838.819	24053
838.956	23912
839.094	23840
839.231	23828
839.369	24015
839.506	24254
839.643	23999
839.781	23737
839.918	23760
840.055	23923
840.193	23863
840.33	23695
840.467	23630
840.604	23775
840.742	24026
840.879	23680
841.016	23703
841.153	23680
841.29	23764
841.427	23687
841.564	23794
841.701	23745
841.838	23684
841.975	23676
842.112	23691
842.249	23505
842.385	23471
842.522	23642
842.659	23493
842.796	23490
842.933	23509
843.069	23356
843.206	23436
843.343	23543
843.479	23551
843.616	23547
843.752	23223
843.889	23379
844.025	23292
844.162	23197
844.298	23307
844.435	23223
844.571	23246
844.708	23402
844.844	23387
844.98	23345
845.117	23387
845.253	23132
845.389	23204
845.525	23277
845.661	23048
845.798	22866
845.934	23132
846.07	22923
846.206	22923
846.342	23025
846.478	22946
846.614	22873
846.75	22645
846.886	22656
847.022	22820
847.158	22687
847.294	22706
847.429	22687
847.565	22740
847.701	22908
847.837	22443
847.972	22451
848.108	22580
848.244	22519
848.379	22246
848.515	22310
848.65	22287
848.786	22287
848.921	22306
849.057	22318
849.192	22500
849.328	22284
849.463	22314
849.598	22333
849.734	22150
849.869	22101
850.004	22036
850.14	22226
850.275	22097
850.41	21991
850.545	22013
850.68	21949
850.815	22044
850.95	22074
851.085	22181
851.22	22177
851.355	22116
851.49	22143
851.625	21892
851.76	22086
851.895	21941
852.03	21998
852.165	22025
852.299	22063
852.434	22173
852.569	22082
852.703	22135
852.838	22090
852.973	22215
853.107	22223
853.242	22013
853.376	21857
853.511	21675
853.645	21888
853.78	21884
853.914	21869
854.048	21880
854.183	21915
854.317	21892
854.451	22017
854.585	21846
854.72	21800
854.854	22021
854.988	21762
855.122	21827
855.256	21827
855.39	21895
855.524	21945
855.658	21842
855.792	21835
855.926	21842
856.06	21899
856.194	22051
856.327	21835
856.461	21827
856.595	21850
856.729	21934
856.862	22055
856.996	21979
857.13	21934
857.263	21949
857.397	21930
857.53	21842
857.664	21873
857.797	21941
857.931	21934
858.064	21888
858.197	21972
858.331	21854
858.464	21812
858.597	21709
858.731	22059
858.864	21842
858.997	21922
859.13	21880
859.263	21861
859.396	21960
859.529	21907
859.662	21789
859.795	21778
859.928	21831
860.061	22055
860.194	22074
860.327	21949
860.46	21880
860.592	22074
860.725	21945
860.858	21987
860.99	21861
861.123	21800
861.256	21724
861.388	21892
861.521	22474
861.653	21850
861.786	21663
861.918	21679
862.05	21793
862.183	21793
862.315	21778
862.447	21876
862.58	21690
862.712	21717
862.844	21488
862.976	21629
863.108	21549
863.24	21979
863.372	21523
863.504	21591
863.636	21500
863.768	21507
863.9	21561
864.032	21553
864.164	21469
864.296	21641
864.428	21511
864.559	21523
864.691	21488
864.823	21591
864.954	21538
865.086	21515
865.217	21420
865.349	21412
865.48	21481
865.612	21317
865.743	21679
865.875	21458
866.006	21351
866.137	21405
866.269	21515
866.4	21447
866.531	21412
866.662	21302
866.793	21355
866.924	21424
867.055	21526
867.186	21283
867.317	21351
867.448	21481
867.579	21332
867.71	21287
867.841	21359
867.972	21321
868.103	21367
868.233	21363
868.364	21462
868.495	21572
868.625	21698
868.756	21709
868.886	21511
869.017	21671
869.147	21698
869.278	21610
869.408	21599
869.539	21614
869.669	21747
869.799	21618
869.929	21766
870.06	21667
870.19	21880
870.32	21915
870.45	21865
870.58	22010
870.71	22078
870.84	22143
870.97	21934
871.1	21975
871.23	22257
871.36	22204
871.489	22139
871.619	22166
871.749	22223
871.879	22204
872.008	22287
872.138	22261
872.267	22211
872.397	22082
872.526	22044
872.656	22010
872.785	22044
872.915	22204
873.044	22310
873.173	22139
873.303	22268
873.432	22356
873.561	22287
873.69	22234
873.819	22196
873.948	22272
874.077	22204
874.206	22207
874.335	22268
874.464	22295
874.593	22402
874.722	22371
874.851	22466
874.979	22421
875.108	22447
875.237	22379
875.365	22333
875.494	22341
875.623	22379
875.751	22318
875.88	22447
876.008	22451
876.136	22649
876.265	22759
876.393	22908
876.521	22786
876.65	22949
876.778	22873
876.906	22786
877.034	22740
877.162	22656
877.29	22816
877.418	22908
877.546	22892
877.674	22774
877.802	22694
877.93	22930
878.058	22740
878.185	22664
878.313	22847
878.441	22729
878.568	22535
878.696	22694
878.824	22713
878.951	22850
879.079	22976
879.206	23022
879.333	22946
879.461	22831
879.588	22801
879.715	23014
879.842	23178
879.97	22949
880.097	22668
880.224	22607
880.351	22523
880.478	22679
880.605	22584
880.732	22550
880.859	22839
880.986	22622
881.112	22672
881.239	22428
881.366	22299
881.493	22280
881.619	22147
881.746	22181
881.872	22204
881.999	22234
882.125	22150
882.252	22177
882.378	22074
882.505	22325
882.631	21911
882.757	21861
882.883	21987
883.01	21873
883.136	21770
883.262	21694
883.388	21759
883.514	21819
883.64	21861
883.766	21747
883.892	21713
884.018	21778
884.143	21869
884.269	21819
884.395	21603
884.52	21492
884.646	21549
884.772	21458
884.897	21317
885.023	21572
885.148	21587
885.274	21591
885.399	21526
885.524	21397
885.65	21538
885.775	21500
885.9	21549
886.025	21557
886.15	21534
886.275	21443
886.4	21386
886.525	21351
886.65	21393
886.775	21374
886.9	21614
887.025	21724
887.149	21428
887.274	21192
887.399	21241
887.523	21222
887.648	21321
887.773	21211
887.897	21374
888.021	21332
888.146	21180
888.27	21294
888.395	21370
888.519	21294
888.643	21233
888.767	21294
888.891	21116
889.015	21077
889.139	21074
889.263	21005
889.387	21116
889.511	21321
889.635	21051
889.759	21066
889.883	21055
890.006	20982
890.13	21096
890.254	20929
890.377	20944
890.501	20735
890.624	20819
890.748	20853
890.871	20716
890.995	20613
891.118	20594
891.241	20575
891.364	20667
891.488	20697
891.611	20644
891.734	20606
891.857	20579
891.98	20636
892.103	20606
892.226	20533
892.349	20621
892.471	20507
892.594	20427
892.717	20537
892.839	20469
892.962	20488
893.085	20560
893.207	20518
893.33	20412
893.452	20248
893.575	20457
893.697	20419
893.819	20564
893.941	20727
894.064	20724
894.186	20594
894.308	20457
894.43	20514
894.552	20571
894.674	20609
894.796	20377
894.918	20446
895.04	20518
895.161	20541
895.283	20473
895.405	20393
895.526	20434
895.648	20564
895.769	20533
895.891	20545
896.012	20629
896.134	20560
896.255	20503
896.376	20389
896.498	20469
896.619	20564
896.74	20419
896.861	20465
896.982	20880
897.103	20956
897.224	20746
897.345	20724
897.466	20663
897.587	20724
897.708	20937
897.828	20746
897.949	20632
898.07	20533
898.19	20602
898.311	20800
898.431	20682
898.552	20651
898.672	20648
898.792	20689
898.913	20670
899.033	20644
899.153	20518
899.273	20461
899.393	20438
899.513	20404
899.633	20450
899.753	20537
899.873	20313
899.993	20530
900.113	20370
900.232	20476
900.352	20362
900.472	20298
900.591	20225
900.711	20130
900.83	20111
900.95	20214
901.069	20153
901.189	20035
901.308	19883
901.427	19795
901.546	19803
901.665	19655
901.784	19871
901.904	19658
902.023	19559
902.141	19354
902.26	19362
902.379	19495
902.498	19403
902.617	19297
902.735	19365
902.854	19240
902.973	19263
903.091	19015
903.21	18951
903.328	18935
903.446	18954
903.565	18863
903.683	18840
903.801	18661
903.919	18703
904.038	18620
904.156	18513
904.274	18585
904.392	18525
904.51	18540
904.627	18525
904.745	18536
904.863	18578
904.981	18369
905.098	18060
905.216	18262
905.334	18273
905.451	18277
905.569	18251
905.686	18289
905.803	18178
905.921	17969
906.038	18216
906.155	18019
906.272	17855
906.389	17882
906.506	17771
906.623	17779
906.74	17737
906.857	17581
906.974	17604
907.091	17870
907.208	17805
907.324	17775
907.441	17687
907.557	17539
907.674	17455
907.79	17410
907.907	17425
908.023	17535
908.139	17311
908.256	17318
908.372	17299
908.488	17261
908.604	17227
908.72	17147
908.836	17140
908.952	17155
909.068	17098
909.184	17239
909.3	17121
909.415	17174
909.531	17121
909.647	16957
909.762	16858
909.878	16843
909.993	16892
910.108	16797
910.224	16706
910.339	16927
910.454	16778
910.57	16691
910.685	16778
910.8	16889
910.915	16778
911.03	16755
911.145	16481
911.259	16546
911.374	16390
911.489	16432
911.604	16291
911.718	16181
911.833	16200
911.947	16055
912.062	15956
912.176	16207
912.291	16215
912.405	16135
912.519	16360
912.633	16371
912.748	16265
912.862	16067
912.976	16097
913.09	15876
913.204	15979
913.318	16032
913.431	16006
913.545	16082
913.659	16032
913.772	15835
913.886	15895
914	15789
914.113	15865
914.226	16025
914.34	15850
914.453	15656
914.566	15956
914.68	15663
914.793	15603
914.906	15492
915.019	15428
915.132	15325
915.245	15473
915.358	15466
915.47	15374
915.583	15397
915.696	15321
915.809	15553
915.921	15538
916.034	15359
916.146	15291
916.259	15207
916.371	15363
916.483	15363
916.595	15256
916.708	15222
916.82	15222
916.932	15214
917.044	15100
917.156	15039
917.268	15089
917.38	15017
917.491	15077
917.603	15119
917.715	15024
917.826	15074
917.938	14960
918.049	15009
918.161	15051
918.272	15142
918.384	15097
918.495	14887
918.606	14758
918.717	14716
918.828	14838
918.939	14845
919.05	14746
919.161	14785
919.272	14602
919.383	14598
919.494	14842
919.604	14921
919.715	14807
919.826	14716
919.936	14693
920.047	14708
920.157	14731
920.267	14887
920.378	14716
920.488	14674
920.598	14891
920.708	15009
920.818	14952
920.928	14868
921.038	14994
921.148	14902
921.258	14731
921.368	14560
921.477	14457
921.587	14450
921.697	14381
921.806	14568
921.916	14355
922.025	14206
922.134	14168
922.244	14107
922.353	14115
922.462	14020
922.571	13909
922.68	13814
922.789	13822
922.898	13879
923.007	13712
923.116	13731
923.224	13742
923.333	13662
923.442	13578
923.55	13548
923.659	13472
923.767	13655
923.876	13464
923.984	13643
924.092	13525
924.201	13426
924.309	13499
924.417	13548
924.525	13403
924.633	13411
924.741	14180
924.849	13190
924.956	13407
925.064	13171
925.172	13213
925.279	13179
925.387	13171
925.494	13179
925.602	13354
925.709	13278
925.816	13061
925.924	13129
926.031	13228
926.138	13114
926.245	13050
926.352	13000
926.459	13145
926.566	13118
926.673	12935
926.779	12871
926.886	12970
926.993	12730
927.099	12863
927.206	12745
927.312	12669
927.419	12734
927.525	12620
927.631	12738
927.737	12506
927.843	12559
927.95	12479
928.056	12490
928.162	12574
928.267	12612
928.373	13141
928.479	12627
928.585	12380
928.69	12566
928.796	12563
928.901	12315
929.007	12239
929.112	12445
929.218	12376
929.323	12304
929.428	12323
929.533	12464
929.638	12171
929.743	12175
929.848	12300
929.953	12239
930.058	12163
930.163	11855
930.267	12049
930.372	12072
930.477	11866
930.581	12091
930.685	11950
930.79	11870
930.894	11882
930.998	11790
931.103	11942
931.207	11566
931.311	11440
931.415	11383
931.519	11246
931.623	11223
