Data from test_V78500241_1887.txt Node
Date: Fri Mar 25 15:22:59 CST 2022
User: usil
Spectrometer: V785-0024
Trigger mode: 0
Integration Time (sec): 4.000000E-1
Scans to average: 1
Nonlinearity correction enabled: false
Boxcar width: 0
Storing dark spectrum: false
XAxis mode: Wavelengths
Number of Pixels in Spectrum: 1024
>>>>>Begin Spectral Data<<<<<
801.071	27835
801.214	27804
801.356	27420
801.499	27401
801.641	27469
801.783	27325
801.926	27363
802.068	27325
802.211	27306
802.353	27207
802.496	27077
802.638	26982
802.78	27066
802.923	26910
803.065	27055
803.208	26868
803.35	27093
803.492	27138
803.635	27275
803.777	27085
803.919	27188
804.061	27641
804.204	27207
804.346	27211
804.488	27123
804.63	27332
804.773	27085
804.915	27150
805.057	27260
805.199	27169
805.341	27260
805.483	27370
805.626	27382
805.768	27298
805.91	27401
806.052	27370
806.194	27252
806.336	27466
806.478	27321
806.62	27374
806.762	27332
806.904	27568
807.046	27819
807.188	27751
807.33	27831
807.472	27804
807.614	27724
807.756	27694
807.898	27667
808.04	27526
808.182	27614
808.324	27591
808.465	27618
808.607	27884
808.749	27934
808.891	28067
809.033	28032
809.174	27968
809.316	27895
809.458	27987
809.6	27876
809.741	28013
809.883	28055
810.025	28109
810.166	28257
810.308	28299
810.45	28192
810.591	28082
810.733	27926
810.875	27945
811.016	27774
811.158	27717
811.299	27804
811.441	27983
811.582	28082
811.724	27812
811.865	27884
812.007	27850
812.148	27869
812.29	28067
812.431	28109
812.573	28291
812.714	28360
812.855	28352
812.997	28466
813.138	28790
813.279	28626
813.421	28207
813.562	28333
813.703	28265
813.845	28124
813.986	27873
814.127	27675
814.268	27557
814.41	27603
814.551	27561
814.692	27686
814.833	27606
814.974	27519
815.115	27770
815.256	27496
815.397	27496
815.539	27469
815.68	27351
815.821	27401
815.962	27530
816.103	27496
816.244	27340
816.385	27245
816.526	27176
816.666	27093
816.807	26906
816.948	27047
817.089	26940
817.23	27009
817.371	26933
817.512	26899
817.653	26804
817.793	26899
817.934	26899
818.075	26910
818.216	26929
818.356	26891
818.497	26800
818.638	26705
818.778	26640
818.919	26785
819.06	26750
819.2	26815
819.341	26990
819.481	26998
819.622	27020
819.762	27291
819.903	27199
820.043	27020
820.184	26990
820.324	27013
820.465	27112
820.605	27043
820.746	27051
820.886	27020
821.026	27020
821.167	27001
821.307	27013
821.447	26868
821.588	26861
821.728	26568
821.868	26720
822.008	26533
822.149	26408
822.289	26347
822.429	26180
822.569	26134
822.709	26100
822.849	25887
822.99	25940
823.13	25944
823.27	25845
823.41	25712
823.55	25689
823.69	25852
823.83	25715
823.97	25750
824.11	25339
824.25	25419
824.389	25472
824.529	25616
824.669	25563
824.809	25590
824.949	25552
825.089	25590
825.228	25548
825.368	25464
825.508	25479
825.648	25460
825.787	25438
825.927	25594
826.067	25422
826.206	25354
826.346	25415
826.485	25460
826.625	25491
826.765	25419
826.904	25438
827.044	25285
827.183	25213
827.323	25099
827.462	25251
827.601	25179
827.741	25145
827.88	25190
828.02	25057
828.159	25148
828.298	25175
828.437	25156
828.577	25095
828.716	25133
828.855	24943
828.994	24711
829.134	24875
829.273	24844
829.412	24798
829.551	24719
829.69	24897
829.829	24920
829.968	24894
830.107	24958
830.246	24856
830.385	24814
830.524	24817
830.663	24525
830.802	24585
830.941	24505
831.08	24407
831.219	24525
831.357	24513
831.496	24692
831.635	24498
831.774	24410
831.913	24475
832.051	24304
832.19	24129
832.329	24292
832.467	24194
832.606	24182
832.744	24144
832.883	24136
833.022	24129
833.16	24178
833.299	24228
833.437	24308
833.576	24292
833.714	24167
833.852	24232
833.991	24232
834.129	24308
834.267	24224
834.406	24167
834.544	24232
834.682	24144
834.821	24159
834.959	24353
835.097	24072
835.235	24213
835.373	24152
835.511	24209
835.65	23977
835.788	24079
835.926	23984
836.064	23958
836.202	23863
836.34	24041
836.478	24148
836.615	24114
836.753	24064
836.891	24041
837.029	23973
837.167	24045
837.305	23897
837.443	23954
837.58	23889
837.718	24034
837.856	24026
837.993	23794
838.131	24053
838.269	23821
838.406	23878
838.544	23733
838.681	23577
838.819	23520
838.956	23372
839.094	23311
839.231	23543
839.369	23520
839.506	23676
839.643	23589
839.781	23330
839.918	23433
840.055	23318
840.193	23322
840.33	23391
840.467	23284
840.604	23341
840.742	23543
840.879	23102
841.016	23231
841.153	23189
841.29	23303
841.427	23269
841.564	23269
841.701	23204
841.838	23254
841.975	23200
842.112	23254
842.249	23033
842.385	22995
842.522	23121
842.659	23170
842.796	23090
842.933	23025
843.069	22942
843.206	23014
843.343	22991
843.479	23014
843.616	22968
843.752	22805
843.889	22687
844.025	22980
844.162	22801
844.298	22938
844.435	22713
844.571	22755
844.708	22938
844.844	22995
844.98	23003
845.117	22995
845.253	22702
845.389	22653
845.525	22687
845.661	22538
845.798	22615
845.934	22637
846.07	22531
846.206	22622
846.342	22816
846.478	22508
846.614	22322
846.75	22261
846.886	22234
847.022	22394
847.158	22325
847.294	22322
847.429	22344
847.565	22310
847.701	22675
847.837	22013
847.972	22036
848.108	22086
848.244	22010
848.379	22044
848.515	21994
848.65	21751
848.786	21827
848.921	21907
849.057	21880
849.192	21979
849.328	21941
849.463	21888
849.598	21869
849.734	21644
849.869	21816
850.004	21728
850.14	21641
850.275	21724
850.41	21755
850.545	21561
850.68	21549
850.815	21732
850.95	21538
851.085	21793
851.22	21774
851.355	21572
851.49	21652
851.625	21542
851.76	21595
851.895	21610
852.03	21481
852.165	21591
852.299	21618
852.434	21728
852.569	21690
852.703	21633
852.838	21739
852.973	21778
853.107	21747
853.242	21557
853.376	21492
853.511	21332
853.645	21370
853.78	21610
853.914	21534
854.048	21408
854.183	21397
854.317	21545
854.451	21629
854.585	21515
854.72	21500
854.854	21515
854.988	21401
855.122	21504
855.256	21310
855.39	21473
855.524	21431
855.658	21545
855.792	21481
855.926	21469
856.06	21481
856.194	21511
856.327	21447
856.461	21359
856.595	21412
856.729	21466
856.862	21542
856.996	21542
857.13	21557
857.263	21553
857.397	21523
857.53	21485
857.664	21526
857.797	21435
857.931	21583
858.064	21485
858.197	21599
858.331	21454
858.464	21359
858.597	21447
858.731	21447
858.864	21481
858.997	21393
859.13	21439
859.263	21473
859.396	21530
859.529	21477
859.662	21428
859.795	21359
859.928	21435
860.061	21542
860.194	21660
860.327	21477
860.46	21469
860.592	21538
860.725	21568
860.858	21644
860.99	21473
861.123	21435
861.256	21363
861.388	21473
861.521	22128
861.653	21351
861.786	21275
861.918	21332
862.05	21237
862.183	21412
862.315	21428
862.447	21428
862.58	21321
862.712	21154
862.844	21188
862.976	21317
863.108	21207
863.24	21580
863.372	21169
863.504	21165
863.636	21264
863.768	21108
863.9	21108
864.032	21028
864.164	21081
864.296	21142
864.428	21245
864.559	21256
864.691	21260
864.823	21264
864.954	21108
865.086	21222
865.217	21043
865.349	20910
865.48	21173
865.612	20990
865.743	21268
865.875	21116
866.006	21005
866.137	21047
866.269	21039
866.4	21066
866.531	21081
866.662	20994
866.793	20986
866.924	20963
867.055	20986
867.186	21142
867.317	21013
867.448	20872
867.579	20918
867.71	20979
867.841	20925
867.972	21135
868.103	20994
868.233	21009
868.364	20921
868.495	21013
868.625	21374
868.756	21264
868.886	21192
869.017	21233
869.147	21332
869.278	21367
869.408	21359
869.539	21218
869.669	21317
869.799	21313
869.929	21367
870.06	21412
870.19	21511
870.32	21568
870.45	21545
870.58	21583
870.71	21671
870.84	21766
870.97	21583
871.1	21644
871.23	21816
871.36	21888
871.489	21732
871.619	21743
871.749	21705
871.879	21873
872.008	21975
872.138	21884
872.267	21850
872.397	21732
872.526	21667
872.656	21618
872.785	21523
872.915	21838
873.044	21899
873.173	22006
873.303	22010
873.432	21903
873.561	21892
873.69	21880
873.819	21869
873.948	21964
874.077	21880
874.206	21728
874.335	21892
874.464	21888
874.593	22109
874.722	22101
874.851	22055
874.979	22029
875.108	22032
875.237	21949
875.365	22006
875.494	22124
875.623	22154
875.751	22010
875.88	22044
876.008	22234
876.136	22268
876.265	22542
876.393	22493
876.521	22538
876.65	22504
876.778	22512
876.906	22497
877.034	22436
877.162	22371
877.29	22310
877.418	22432
877.546	22440
877.674	22398
877.802	22348
877.93	22481
878.058	22512
878.185	22337
878.313	22318
878.441	22466
878.568	22310
878.696	22303
878.824	22470
878.951	22344
879.079	22565
879.206	22637
879.333	22550
879.461	22459
879.588	22561
879.715	22550
879.842	22523
879.97	22348
880.097	22341
880.224	22299
880.351	22306
880.478	22295
880.605	22246
880.732	22169
880.859	22504
880.986	22246
881.112	22333
881.239	22158
881.366	21937
881.493	21895
881.619	21861
881.746	21865
881.872	21865
881.999	21728
882.125	21705
882.252	21823
882.378	21789
882.505	21960
882.631	21686
882.757	21477
882.883	21648
883.01	21473
883.136	21458
883.262	21378
883.388	21397
883.514	21469
883.64	21511
883.766	21504
883.892	21252
884.018	21291
884.143	21462
884.269	21458
884.395	21256
884.52	21211
884.646	21192
884.772	21055
884.897	21032
885.023	21249
885.148	21252
885.274	21291
885.399	21154
885.524	21195
885.65	21214
885.775	21127
885.9	21169
886.025	21214
886.15	21211
886.275	21203
886.4	21066
886.525	21195
886.65	21070
886.775	21089
886.9	21325
887.025	21378
887.149	21218
887.274	21009
887.399	20864
887.523	20853
887.648	20967
887.773	20933
887.897	21036
888.021	20994
888.146	20895
888.27	21005
888.395	21123
888.519	20918
888.643	20956
888.767	20921
888.891	20743
889.015	20826
889.139	20773
889.263	20750
889.387	20845
889.511	20918
889.635	20883
889.759	20716
889.883	20663
890.006	20682
890.13	20724
890.254	20571
890.377	20617
890.501	20537
890.624	20320
890.748	20514
890.871	20298
890.995	20347
891.118	20263
891.241	20282
891.364	20328
891.488	20396
891.611	20229
891.734	20351
891.857	20404
891.98	20328
892.103	20374
892.226	20214
892.349	20168
892.471	20092
892.594	20149
892.717	20206
892.839	20202
892.962	20149
893.085	20153
893.207	20305
893.33	20107
893.452	20100
893.575	20176
893.697	20183
893.819	20423
893.941	20328
894.064	20320
894.186	20180
894.308	20081
894.43	20317
894.552	20358
894.674	20294
894.796	20161
894.918	20142
895.04	20161
895.161	20290
895.283	20134
895.405	20138
895.526	20252
895.648	20142
895.769	20172
895.891	20256
896.012	20305
896.134	20309
896.255	20149
896.376	20107
896.498	20195
896.619	20271
896.74	20149
896.861	20115
896.982	20549
897.103	20533
897.224	20556
897.345	20450
897.466	20309
897.587	20244
897.708	20560
897.828	20476
897.949	20301
898.07	20244
898.19	20298
898.311	20393
898.431	20286
898.552	20324
898.672	20526
898.792	20518
898.913	20374
899.033	20290
899.153	20161
899.273	20142
899.393	20153
899.513	20252
899.633	20130
899.753	20107
899.873	20096
899.993	20092
900.113	19986
900.232	19959
900.352	20039
900.472	19864
900.591	19860
900.711	19967
900.83	19772
900.95	20012
901.069	19947
901.189	19875
901.308	19499
901.427	19559
901.546	19495
901.665	19518
901.784	19556
901.904	19346
902.023	19324
902.141	19148
902.26	18993
902.379	19114
902.498	18939
902.617	18985
902.735	19069
902.854	19031
902.973	18878
903.091	18665
903.21	18791
903.328	18696
903.446	18551
903.565	18490
903.683	18525
903.801	18391
903.919	18483
904.038	18475
904.156	18224
904.274	18323
904.392	18174
904.51	18353
904.627	18213
904.745	18407
904.863	18323
904.981	18034
905.098	17885
905.216	17939
905.334	17988
905.451	17893
905.569	17973
905.686	18007
905.803	17904
905.921	17676
906.038	17817
906.155	17813
906.272	17592
906.389	17566
906.506	17406
906.623	17551
906.74	17478
906.857	17398
906.974	17372
907.091	17615
907.208	17585
907.324	17497
907.441	17417
907.557	17258
907.674	17292
907.79	17105
907.907	17197
908.023	17193
908.139	17071
908.256	17109
908.372	17041
908.488	17041
908.604	16980
908.72	16923
908.836	16972
908.952	16862
909.068	16850
909.184	16946
909.3	16892
909.415	17025
909.531	16862
909.647	16675
909.762	16603
909.878	16519
909.993	16698
910.108	16573
910.224	16634
910.339	16558
910.454	16455
910.57	16276
910.685	16341
910.8	16672
910.915	16596
911.03	16402
911.145	16284
911.259	16246
911.374	16238
911.489	16150
911.604	16059
911.718	15842
911.833	15899
911.947	15816
912.062	15838
912.176	15869
912.291	15922
912.405	15945
912.519	16082
912.633	16093
912.748	15998
912.862	15911
912.976	15679
913.09	15724
913.204	15732
913.318	15789
913.431	15857
913.545	15831
913.659	15850
913.772	15778
913.886	15599
914	15599
914.113	15759
914.226	15743
914.34	15610
914.453	15443
914.566	15648
914.68	15447
914.793	15439
914.906	15283
915.019	15188
915.132	15116
915.245	15131
915.358	15157
915.47	15211
915.583	15142
915.696	15226
915.809	15287
915.921	15340
916.034	15085
916.146	15036
916.259	14899
916.371	15192
916.483	15119
916.595	15047
916.708	15104
916.82	14986
916.932	15020
917.044	14967
917.156	14857
917.268	14815
917.38	14777
917.491	14712
917.603	14902
917.715	14819
917.826	14986
917.938	14743
918.049	14670
918.161	14765
918.272	14941
918.384	14876
918.495	14708
918.606	14663
918.717	14499
918.828	14659
918.939	14651
919.05	14537
919.161	14621
919.272	14389
919.383	14492
919.494	14617
919.604	14708
919.715	14522
919.826	14393
919.936	14549
920.047	14613
920.157	14503
920.267	14769
920.378	14499
920.488	14503
920.598	14689
920.708	14773
920.818	14693
920.928	14590
921.038	14819
921.148	14815
921.258	14537
921.368	14370
921.477	14221
921.587	14183
921.697	14126
921.806	14317
921.916	14096
922.025	13967
922.134	13944
922.244	13913
922.353	13928
922.462	13807
922.571	13734
922.68	13681
922.789	13499
922.898	13556
923.007	13480
923.116	13628
923.224	13514
923.333	13468
923.442	13415
923.55	13434
923.659	13407
923.767	13419
923.876	13441
923.984	13403
924.092	13270
924.201	13384
924.309	13312
924.417	13312
924.525	13198
924.633	13213
924.741	14123
924.849	13031
924.956	13160
925.064	12954
925.172	12886
925.279	12928
925.387	13050
925.494	12920
925.602	13107
925.709	13023
925.816	12825
925.924	12909
926.031	13012
926.138	12916
926.245	12947
926.352	12821
926.459	13023
926.566	12916
926.673	12844
926.779	12753
926.886	12665
926.993	12597
927.099	12517
927.206	12528
927.312	12414
927.419	12540
927.525	12460
927.631	12585
927.737	12323
927.843	12346
927.95	12258
928.056	12399
928.162	12437
928.267	12399
928.373	12916
928.479	12357
928.585	12186
928.69	12300
928.796	12285
928.901	12292
929.007	12114
929.112	12197
929.218	12216
929.323	12091
929.428	12049
929.533	12220
929.638	12045
929.743	12030
929.848	12117
929.953	11961
930.058	11893
930.163	11771
930.267	11756
930.372	11916
930.477	11710
930.581	11942
930.685	11813
930.79	11695
930.894	11619
930.998	11608
931.103	11714
931.207	11417
931.311	11280
931.415	11246
931.519	11071
931.623	11067
