Data from test_V78500241_370.txt Node
Date: Fri Mar 25 15:12:26 CST 2022
User: usil
Spectrometer: V785-0024
Trigger mode: 0
Integration Time (sec): 4.000000E-1
Scans to average: 1
Nonlinearity correction enabled: false
Boxcar width: 0
Storing dark spectrum: false
XAxis mode: Wavelengths
Number of Pixels in Spectrum: 1024
>>>>>Begin Spectral Data<<<<<
801.071	26857
801.214	26979
801.356	26727
801.499	26804
801.641	26530
801.783	26575
801.926	26609
802.068	26579
802.211	26461
802.353	26408
802.496	26218
802.638	26145
802.78	26229
802.923	26256
803.065	26054
803.208	26024
803.35	26096
803.492	26370
803.635	26313
803.777	26332
803.919	26324
804.061	26560
804.204	26393
804.346	26313
804.488	26161
804.63	26237
804.773	26062
804.915	26248
805.057	26320
805.199	26275
805.341	26229
805.483	26415
805.626	26389
805.768	26343
805.91	26419
806.052	26431
806.194	26278
806.336	26571
806.478	26488
806.62	26404
806.762	26518
806.904	26549
807.046	26956
807.188	26659
807.33	26758
807.472	26887
807.614	26560
807.756	26716
807.898	26579
808.04	26442
808.182	26514
808.324	26613
808.465	26533
808.607	26796
808.749	26944
808.891	26986
809.033	27218
809.174	27051
809.316	27047
809.458	26891
809.6	26819
809.741	27066
809.883	27005
810.025	27249
810.166	27203
810.308	27066
810.45	27188
810.591	27207
810.733	27066
810.875	26940
811.016	26937
811.158	26781
811.299	26948
811.441	27047
811.582	27180
811.724	26895
811.865	26933
812.007	26910
812.148	26979
812.29	26918
812.431	27077
812.573	27310
812.714	27317
812.855	27492
812.997	27583
813.138	27728
813.279	27591
813.421	27431
813.562	27382
813.703	27252
813.845	27104
813.986	26899
814.127	26826
814.268	26731
814.41	26716
814.551	26450
814.692	26674
814.833	26651
814.974	26579
815.115	26758
815.256	26579
815.397	26488
815.539	26431
815.68	26377
815.821	26419
815.962	26415
816.103	26522
816.244	26225
816.385	26206
816.526	26145
816.666	25982
816.807	25822
816.948	25818
817.089	25894
817.23	25906
817.371	25925
817.512	25894
817.653	25883
817.793	25791
817.934	25932
818.075	25932
818.216	25936
818.356	25951
818.497	25712
818.638	25575
818.778	25689
818.919	25620
819.06	25571
819.2	25658
819.341	25803
819.481	25742
819.622	26039
819.762	26130
819.903	26039
820.043	26035
820.184	26027
820.324	25947
820.465	25970
820.605	26046
820.746	25913
820.886	25852
821.026	25917
821.167	25868
821.307	25997
821.447	25989
821.588	25791
821.728	25670
821.868	25457
822.008	25331
822.149	25320
822.289	25422
822.429	25057
822.569	25008
822.709	24989
822.849	24894
822.99	24821
823.13	24741
823.27	24875
823.41	24669
823.55	24532
823.69	24650
823.83	24642
823.97	24483
824.11	24502
824.25	24441
824.389	24464
824.529	24646
824.669	24498
824.809	24505
824.949	24525
825.089	24559
825.228	24551
825.368	24247
825.508	24342
825.648	24308
825.787	24342
825.927	24334
826.067	24346
826.206	24239
826.346	24395
826.485	24232
826.625	24311
826.765	24460
826.904	24513
827.044	24083
827.183	24190
827.323	24091
827.462	24083
827.601	24030
827.741	24003
827.88	24018
828.02	23859
828.159	23908
828.298	24041
828.437	24034
828.577	23882
828.716	24083
828.855	24095
828.994	23798
829.134	23824
829.273	23802
829.412	23707
829.551	23771
829.69	23756
829.829	23729
829.968	23863
830.107	23969
830.246	23794
830.385	23680
830.524	23608
830.663	23535
830.802	23516
830.941	23364
831.08	23376
831.219	23581
831.357	23296
831.496	23577
831.635	23334
831.774	23292
831.913	23174
832.051	23254
832.19	23178
832.329	23277
832.467	23083
832.606	23052
832.744	23090
832.883	23113
833.022	23060
833.16	23124
833.299	23140
833.437	23075
833.576	23067
833.714	23151
833.852	23204
833.991	23216
834.129	23197
834.267	23140
834.406	23147
834.544	23231
834.682	23231
834.821	23041
834.959	23334
835.097	23109
835.235	23166
835.373	23136
835.511	22991
835.65	22889
835.788	23033
835.926	23003
836.064	22630
836.202	22892
836.34	23025
836.478	23136
836.615	22923
836.753	23048
836.891	23052
837.029	23075
837.167	22919
837.305	22809
837.443	22927
837.58	22869
837.718	22953
837.856	22778
837.993	22869
838.131	22805
838.269	22797
838.406	22752
838.544	22645
838.681	22455
838.819	22474
838.956	22109
839.094	22363
839.231	22409
839.369	22451
839.506	22656
839.643	22664
839.781	22287
839.918	22196
840.055	22409
840.193	22318
840.33	22246
840.467	22398
840.604	22253
840.742	22557
840.879	22226
841.016	22090
841.153	22059
841.29	22371
841.427	22287
841.564	22234
841.701	22287
841.838	22154
841.975	22181
842.112	22166
842.249	22070
842.385	22116
842.522	22223
842.659	22105
842.796	22048
842.933	22143
843.069	21964
843.206	21968
843.343	22036
843.479	21983
843.616	21972
843.752	21793
843.889	21937
844.025	22006
844.162	21736
844.298	21869
844.435	21895
844.571	21781
844.708	21941
844.844	21953
844.98	21873
845.117	21808
845.253	21732
845.389	21641
845.525	21698
845.661	21671
845.798	21644
845.934	21701
846.07	21500
846.206	21587
846.342	21816
846.478	21663
846.614	21294
846.75	21275
846.886	21275
847.022	21321
847.158	21439
847.294	21344
847.429	21291
847.565	21287
847.701	21667
847.837	20937
847.972	21108
848.108	21047
848.244	21096
848.379	20914
848.515	20914
848.65	20895
848.786	21013
848.921	20895
849.057	21017
849.192	20971
849.328	20807
849.463	20891
849.598	20796
849.734	20735
849.869	20739
850.004	20724
850.14	20765
850.275	20609
850.41	20644
850.545	20617
850.68	20579
850.815	20705
850.95	20712
851.085	20853
851.22	20807
851.355	20678
851.49	20606
851.625	20701
851.76	20583
851.895	20503
852.03	20602
852.165	20526
852.299	20720
852.434	20746
852.569	20689
852.703	20693
852.838	20678
852.973	20743
853.107	20804
853.242	20686
853.376	20575
853.511	20385
853.645	20465
853.78	20571
853.914	20495
854.048	20465
854.183	20533
854.317	20442
854.451	20686
854.585	20473
854.72	20393
854.854	20526
854.988	20400
855.122	20438
855.256	20355
855.39	20454
855.524	20568
855.658	20514
855.792	20602
855.926	20488
856.06	20621
856.194	20564
856.327	20389
856.461	20389
856.595	20454
856.729	20511
856.862	20590
856.996	20461
857.13	20473
857.263	20594
857.397	20674
857.53	20541
857.664	20530
857.797	20693
857.931	20617
858.064	20549
858.197	20579
858.331	20537
858.464	20434
858.597	20442
858.731	20404
858.864	20499
858.997	20530
859.13	20480
859.263	20545
859.396	20602
859.529	20423
859.662	20522
859.795	20400
859.928	20492
860.061	20598
860.194	20674
860.327	20613
860.46	20465
860.592	20560
860.725	20556
860.858	20636
860.99	20358
861.123	20396
861.256	20415
861.388	20434
861.521	21013
861.653	20301
861.786	20305
861.918	20320
862.05	20362
862.183	20347
862.315	20381
862.447	20503
862.58	20541
862.712	20271
862.844	20294
862.976	20240
863.108	20153
863.24	20629
863.372	20195
863.504	20180
863.636	20275
863.768	20195
863.9	20168
864.032	20119
864.164	20176
864.296	20267
864.428	20324
864.559	20286
864.691	20206
864.823	20172
864.954	20267
865.086	20328
865.217	20176
865.349	20084
865.48	19982
865.612	20115
865.743	20218
865.875	20119
866.006	19989
866.137	20046
866.269	20084
866.4	20142
866.531	19955
866.662	19967
866.793	20084
866.924	20039
867.055	20130
867.186	20008
867.317	19955
867.448	19989
867.579	20043
867.71	19947
867.841	19947
867.972	20081
868.103	20119
868.233	20077
868.364	20119
868.495	20096
868.625	20336
868.756	20431
868.886	20195
869.017	20286
869.147	20434
869.278	20438
869.408	20202
869.539	20252
869.669	20461
869.799	20294
869.929	20457
870.06	20389
870.19	20488
870.32	20708
870.45	20667
870.58	20678
870.71	20785
870.84	20720
870.97	20590
871.1	20594
871.23	20960
871.36	20895
871.489	20727
871.619	20800
871.749	20956
871.879	20914
872.008	20861
872.138	20986
872.267	20963
872.397	20781
872.526	20636
872.656	20804
872.785	20758
872.915	20864
873.044	20880
873.173	20845
873.303	20986
873.432	20990
873.561	21070
873.69	20876
873.819	20906
873.948	21047
874.077	20948
874.206	20834
874.335	20826
874.464	21077
874.593	21138
874.722	21138
874.851	21184
874.979	21378
875.108	21275
875.237	21157
875.365	21146
875.494	21062
875.623	21127
875.751	21123
875.88	21150
876.008	21344
876.136	21329
876.265	21542
876.393	21766
876.521	21545
876.65	21583
876.778	21576
876.906	21507
877.034	21416
877.162	21606
877.29	21412
877.418	21545
877.546	21637
877.674	21462
877.802	21557
877.93	21648
878.058	21485
878.185	21424
878.313	21443
878.441	21580
878.568	21336
878.696	21485
878.824	21519
878.951	21663
879.079	21583
879.206	21873
879.333	21682
879.461	21549
879.588	21587
879.715	21629
879.842	21865
879.97	21595
880.097	21287
880.224	21450
880.351	21454
880.478	21382
880.605	21245
880.732	21287
880.859	21542
880.986	21317
881.112	21408
881.239	21135
881.366	21165
881.493	20979
881.619	21047
881.746	20979
881.872	21024
881.999	20921
882.125	20727
882.252	21036
882.378	20857
882.505	20994
882.631	20746
882.757	20636
882.883	20655
883.01	20663
883.136	20636
883.262	20511
883.388	20545
883.514	20651
883.64	20693
883.766	20518
883.892	20366
884.018	20541
884.143	20598
884.269	20689
884.395	20415
884.52	20355
884.646	20248
884.772	20267
884.897	20301
885.023	20400
885.148	20343
885.274	20404
885.399	20271
885.524	20145
885.65	20332
885.775	20172
885.9	20263
886.025	20438
886.15	20320
886.275	20191
886.4	20161
886.525	20221
886.65	20225
886.775	20233
886.9	20309
887.025	20518
887.149	20263
887.274	20122
887.399	20027
887.523	20107
887.648	19894
887.773	20027
887.897	20100
888.021	20149
888.146	19932
888.27	20187
888.395	20081
888.519	20107
888.643	20103
888.767	20069
888.891	19887
889.015	19890
889.139	19879
889.263	19795
889.387	19906
889.511	20122
889.635	19940
889.759	19868
889.883	19757
890.006	19811
890.13	20001
890.254	19734
890.377	19677
890.501	19727
890.624	19624
890.748	19738
890.871	19605
890.995	19415
891.118	19407
891.241	19480
891.364	19449
891.488	19674
891.611	19403
891.734	19422
891.857	19457
891.98	19525
892.103	19468
892.226	19525
892.349	19403
892.471	19297
892.594	19373
892.717	19434
892.839	19297
892.962	19476
893.085	19415
893.207	19327
893.33	19312
893.452	19194
893.575	19487
893.697	19403
893.819	19632
893.941	19540
894.064	19544
894.186	19362
894.308	19320
894.43	19377
894.552	19464
894.674	19419
894.796	19293
894.918	19365
895.04	19320
895.161	19457
895.283	19354
895.405	19392
895.526	19365
895.648	19430
895.769	19430
895.891	19365
896.012	19506
896.134	19354
896.255	19293
896.376	19278
896.498	19407
896.619	19457
896.74	19312
896.861	19419
896.982	19750
897.103	19818
897.224	19613
897.345	19590
897.466	19616
897.587	19616
897.708	19670
897.828	19548
897.949	19594
898.07	19403
898.19	19590
898.311	19715
898.431	19563
898.552	19571
898.672	19670
898.792	19647
898.913	19594
899.033	19472
899.153	19434
899.273	19365
899.393	19468
899.513	19480
899.633	19426
899.753	19460
899.873	19415
899.993	19327
900.113	19259
900.232	19392
900.352	19228
900.472	19137
900.591	18977
900.711	19148
900.83	19099
900.95	19365
901.069	19160
901.189	19084
901.308	18840
901.427	18665
901.546	18787
901.665	18863
901.784	18802
901.904	18559
902.023	18479
902.141	18350
902.26	18232
902.379	18243
902.498	18300
902.617	18155
902.735	18308
902.854	18216
902.973	18235
903.091	18030
903.21	18030
903.328	17931
903.446	17847
903.565	17764
903.683	17733
903.801	17657
903.919	17672
904.038	17707
904.156	17493
904.274	17577
904.392	17543
904.51	17452
904.627	17585
904.745	17543
904.863	17634
904.981	17246
905.098	17151
905.216	17200
905.334	17265
905.451	17189
905.569	17178
905.686	17269
905.803	17140
905.921	16980
906.038	17037
906.155	16995
906.272	16957
906.389	16991
906.506	16748
906.623	16835
906.74	16702
906.857	16713
906.974	16668
907.091	16873
907.208	16843
907.324	16691
907.441	16580
907.557	16519
907.674	16561
907.79	16451
907.907	16428
908.023	16493
908.139	16470
908.256	16466
908.372	16424
908.488	16253
908.604	16257
908.72	16246
908.836	16112
908.952	16131
909.068	16276
909.184	16230
909.3	16188
909.415	16086
909.531	16143
909.647	16013
909.762	15945
909.878	15937
909.993	15838
910.108	15873
910.224	15831
910.339	15941
910.454	15705
910.57	15656
910.685	15713
910.8	15960
910.915	15922
911.03	15709
911.145	15511
911.259	15450
911.374	15523
911.489	15473
911.604	15397
911.718	15241
911.833	15211
911.947	15211
912.062	15081
912.176	15230
912.291	15173
912.405	15173
912.519	15458
912.633	15466
912.748	15245
912.862	15249
912.976	15142
913.09	14990
913.204	15036
913.318	15154
913.431	15180
913.545	15138
913.659	15233
913.772	15005
913.886	15001
914	14842
914.113	14902
914.226	15043
914.34	14910
914.453	14823
914.566	15017
914.68	14720
914.793	14804
914.906	14644
915.019	14568
915.132	14518
915.245	14427
915.358	14514
915.47	14473
915.583	14480
915.696	14533
915.809	14689
915.921	14720
916.034	14495
916.146	14495
916.259	14393
916.371	14526
916.483	14514
916.595	14404
916.708	14339
916.82	14442
916.932	14396
917.044	14343
917.156	14294
917.268	14176
917.38	14259
917.491	14206
917.603	14263
917.715	14339
917.826	14343
917.938	14195
918.049	14119
918.161	14214
918.272	14294
918.384	14256
918.495	14180
918.606	14084
918.717	14027
918.828	14035
918.939	14088
919.05	13898
919.161	13978
919.272	13845
919.383	13841
919.494	14069
919.604	14088
919.715	14016
919.826	13883
919.936	14054
920.047	14092
920.157	14016
920.267	14256
920.378	13963
920.488	14016
920.598	14161
920.708	14168
920.818	14142
920.928	14069
921.038	14225
921.148	14240
921.258	13951
921.368	13898
921.477	13746
921.587	13799
921.697	13571
921.806	13776
921.916	13548
922.025	13457
922.134	13369
922.244	13362
922.353	13400
922.462	13240
922.571	13168
922.68	13069
922.789	13023
922.898	13084
923.007	12996
923.116	13034
923.224	13012
923.333	13061
923.442	12913
923.55	12932
923.659	12890
923.767	13000
923.876	12890
923.984	12897
924.092	12734
924.201	12848
924.309	12757
924.417	12760
924.525	12707
924.633	12741
924.741	13441
924.849	12494
924.956	12566
925.064	12521
925.172	12452
925.279	12509
925.387	12464
925.494	12437
925.602	12623
925.709	12525
925.816	12384
925.924	12448
926.031	12475
926.138	12380
926.245	12452
926.352	12311
926.459	12513
926.566	12574
926.673	12323
926.779	12251
926.886	12201
926.993	12102
927.099	12110
927.206	11965
927.312	12064
927.419	12049
927.525	11973
927.631	12072
927.737	11901
927.843	11908
927.95	11847
928.056	11916
928.162	11927
928.267	11977
928.373	12509
928.479	12038
928.585	11684
928.69	11771
928.796	11870
928.901	11665
929.007	11619
929.112	11760
929.218	11672
929.323	11665
929.428	11649
929.533	11779
929.638	11493
929.743	11516
929.848	11524
929.953	11532
930.058	11482
930.163	11318
930.267	11334
930.372	11512
930.477	11318
930.581	11528
930.685	11311
930.79	11242
930.894	11223
930.998	11105
931.103	11258
931.207	10965
931.311	10953
931.415	10805
931.519	10577
931.623	10558
