Data from test_V78500241_1387.txt Node
Date: Fri Mar 25 15:19:30 CST 2022
User: usil
Spectrometer: V785-0024
Trigger mode: 0
Integration Time (sec): 4.000000E-1
Scans to average: 1
Nonlinearity correction enabled: false
Boxcar width: 0
Storing dark spectrum: false
XAxis mode: Wavelengths
Number of Pixels in Spectrum: 1024
>>>>>Begin Spectral Data<<<<<
801.071	28272
801.214	28242
801.356	27865
801.499	27869
801.641	27732
801.783	27812
801.926	27694
802.068	27698
802.211	27800
802.353	27709
802.496	27408
802.638	27443
802.78	27321
802.923	27332
803.065	27359
803.208	27393
803.35	27325
803.492	27606
803.635	27545
803.777	27481
803.919	27583
804.061	27953
804.204	27739
804.346	27587
804.488	27504
804.63	27682
804.773	27553
804.915	27709
805.057	27728
805.199	27557
805.341	27720
805.483	27736
805.626	27785
805.768	27682
805.91	27812
806.052	27789
806.194	27523
806.336	27987
806.478	27812
806.62	27911
806.762	27854
806.904	28036
807.046	28215
807.188	28230
807.33	28166
807.472	28196
807.614	28150
807.756	28226
807.898	28109
808.04	27960
808.182	28074
808.324	28051
808.465	28051
808.607	28280
808.749	28470
808.891	28527
809.033	28508
809.174	28432
809.316	28485
809.458	28550
809.6	28386
809.741	28428
809.883	28721
810.025	28706
810.166	28752
810.308	28740
810.45	28698
810.591	28637
810.733	28527
810.875	28478
811.016	28219
811.158	28268
811.299	28474
811.441	28580
811.582	28622
811.724	28459
811.865	28379
812.007	28398
812.148	28337
812.29	28421
812.431	28664
812.573	28755
812.714	28961
812.855	28957
812.997	29113
813.138	29216
813.279	29094
813.421	29067
813.562	29056
813.703	28713
813.845	28679
813.986	28401
814.127	28352
814.268	28162
814.41	28166
814.551	28086
814.692	28310
814.833	28204
814.974	28074
815.115	28188
815.256	28131
815.397	28131
815.539	28135
815.68	27949
815.821	27911
815.962	27918
816.103	28006
816.244	27846
816.385	27770
816.526	27785
816.666	27500
816.807	27382
816.948	27466
817.089	27363
817.23	27488
817.371	27412
817.512	27370
817.653	27466
817.793	27275
817.934	27450
818.075	27530
818.216	27530
818.356	27363
818.497	27469
818.638	27192
818.778	27108
818.919	27089
819.06	27188
819.2	27154
819.341	27427
819.481	27485
819.622	27564
819.762	27701
819.903	27667
820.043	27618
820.184	27519
820.324	27637
820.465	27557
820.605	27545
820.746	27504
820.886	27355
821.026	27401
821.167	27473
821.307	27496
821.447	27485
821.588	27325
821.728	27275
821.868	27146
822.008	26948
822.149	26940
822.289	26887
822.429	26533
822.569	26537
822.709	26587
822.849	26415
822.99	26473
823.13	26575
823.27	26244
823.41	26263
823.55	26187
823.69	26248
823.83	26271
823.97	26244
824.11	26069
824.25	26100
824.389	26020
824.529	26187
824.669	26100
824.809	26195
824.949	26119
825.089	26149
825.228	26122
825.368	25826
825.508	25799
825.648	26008
825.787	25959
825.927	26096
826.067	25898
826.206	25807
826.346	25909
826.485	25978
826.625	25906
826.765	26145
826.904	25879
827.044	25753
827.183	25742
827.323	25624
827.462	25742
827.601	25666
827.741	25525
827.88	25601
828.02	25514
828.159	25666
828.298	25685
828.437	25677
828.577	25601
828.716	25696
828.855	25506
828.994	25266
829.134	25384
829.273	25403
829.412	25464
829.551	25377
829.69	25369
829.829	25430
829.968	25312
830.107	25468
830.246	25377
830.385	25308
830.524	25213
830.663	25122
830.802	25225
830.941	24939
831.08	24951
831.219	25038
831.357	25053
831.496	25103
831.635	24924
831.774	24935
831.913	24779
832.051	24642
832.19	24673
832.329	24795
832.467	24711
832.606	24479
832.744	24551
832.883	24646
833.022	24551
833.16	24681
833.299	24566
833.437	24726
833.576	24639
833.714	24658
833.852	24631
833.991	24760
834.129	24886
834.267	24821
834.406	24677
834.544	24753
834.682	24817
834.821	24703
834.959	24837
835.097	24646
835.235	24654
835.373	24608
835.511	24650
835.65	24498
835.788	24570
835.926	24460
836.064	24410
836.202	24319
836.34	24380
836.478	24509
836.615	24544
836.753	24559
836.891	24540
837.029	24612
837.167	24395
837.305	24426
837.443	24525
837.58	24376
837.718	24418
837.856	24452
837.993	24346
838.131	24327
838.269	24228
838.406	24171
838.544	24152
838.681	24026
838.819	24076
838.956	23786
839.094	23783
839.231	23729
839.369	23996
839.506	24194
839.643	24216
839.781	23832
839.918	23745
840.055	23764
840.193	23703
840.33	23764
840.467	23764
840.604	23832
840.742	23916
840.879	23581
841.016	23726
841.153	23672
841.29	23779
841.427	23756
841.564	23726
841.701	23805
841.838	23649
841.975	23535
842.112	23573
842.249	23486
842.385	23448
842.522	23649
842.659	23436
842.796	23474
842.933	23467
843.069	23376
843.206	23482
843.343	23444
843.479	23425
843.616	23493
843.752	23121
843.889	23197
844.025	23455
844.162	23269
844.298	23398
844.435	23292
844.571	23223
844.708	23277
844.844	23410
844.98	23440
845.117	23322
845.253	23147
845.389	23162
845.525	23083
845.661	23109
845.798	22915
845.934	23003
846.07	22946
846.206	22972
846.342	23200
846.478	22946
846.614	22755
846.75	22668
846.886	22774
847.022	22687
847.158	22759
847.294	22755
847.429	22786
847.565	22763
847.701	22919
847.837	22436
847.972	22440
848.108	22554
848.244	22656
848.379	22318
848.515	22322
848.65	22318
848.786	22329
848.921	22356
849.057	22322
849.192	22352
849.328	22272
849.463	22352
849.598	22246
849.734	22223
849.869	22109
850.004	22093
850.14	22162
850.275	22124
850.41	22013
850.545	22044
850.68	22040
850.815	22013
850.95	22048
851.085	22272
851.22	22086
851.355	22093
851.49	22105
851.625	21953
851.76	22078
851.895	21926
852.03	21861
852.165	22040
852.299	22036
852.434	22070
852.569	21975
852.703	22139
852.838	22116
852.973	22078
853.107	22025
853.242	22029
853.376	21979
853.511	21865
853.645	21899
853.78	22025
853.914	21941
854.048	21739
854.183	21930
854.317	21835
854.451	22021
854.585	21907
854.72	21838
854.854	21899
854.988	21926
855.122	21911
855.256	21667
855.39	21880
855.524	21884
855.658	21804
855.792	21816
855.926	21972
856.06	21903
856.194	22029
856.327	21880
856.461	21892
856.595	21926
856.729	21800
856.862	21960
856.996	21823
857.13	21934
857.263	22006
857.397	21918
857.53	21755
857.664	21903
857.797	21835
857.931	21979
858.064	21869
858.197	21983
858.331	21816
858.464	21793
858.597	21762
858.731	21838
858.864	21850
858.997	21705
859.13	21823
859.263	21831
859.396	21930
859.529	21892
859.662	21846
859.795	21884
859.928	21873
860.061	22048
860.194	21979
860.327	21869
860.46	21755
860.592	21968
860.725	22002
860.858	21983
860.99	21949
861.123	21808
861.256	21812
861.388	21861
861.521	22379
861.653	21751
861.786	21618
861.918	21648
862.05	21778
862.183	21781
862.315	21812
862.447	21804
862.58	21797
862.712	21625
862.844	21549
862.976	21622
863.108	21557
863.24	21880
863.372	21504
863.504	21561
863.636	21561
863.768	21641
863.9	21530
864.032	21500
864.164	21500
864.296	21530
864.428	21660
864.559	21599
864.691	21743
864.823	21572
864.954	21401
865.086	21637
865.217	21526
865.349	21401
865.48	21447
865.612	21496
865.743	21633
865.875	21466
866.006	21420
866.137	21572
866.269	21435
866.4	21416
866.531	21336
866.662	21279
866.793	21397
866.924	21408
867.055	21500
867.186	21264
867.317	21302
867.448	21283
867.579	21226
867.71	21287
867.841	21332
867.972	21397
868.103	21530
868.233	21488
868.364	21397
868.495	21443
868.625	21587
868.756	21739
868.886	21599
869.017	21614
869.147	21789
869.278	21713
869.408	21663
869.539	21705
869.669	21663
869.799	21736
869.929	21774
870.06	21793
870.19	21915
870.32	21880
870.45	21945
870.58	21857
870.71	22040
870.84	22059
870.97	21987
871.1	22059
871.23	22219
871.36	22215
871.489	22131
871.619	22128
871.749	22120
871.879	22158
872.008	22318
872.138	22150
872.267	22265
872.397	21968
872.526	21972
872.656	21964
872.785	22040
872.915	22166
873.044	22173
873.173	22154
873.303	22386
873.432	22291
873.561	22356
873.69	22276
873.819	22265
873.948	22329
874.077	22299
874.206	22169
874.335	22150
874.464	22344
874.593	22310
874.722	22417
874.851	22409
874.979	22455
875.108	22557
875.237	22451
875.365	22390
875.494	22360
875.623	22424
875.751	22417
875.88	22542
876.008	22527
876.136	22542
876.265	22919
876.393	23086
876.521	22866
876.65	22900
876.778	22839
876.906	22805
877.034	22755
877.162	22721
877.29	22736
877.418	22843
877.546	22717
877.674	22866
877.802	22698
877.93	22687
878.058	22611
878.185	22615
878.313	22687
878.441	22805
878.568	22508
878.696	22637
878.824	22797
878.951	22831
879.079	22812
879.206	23041
879.333	22816
879.461	22805
879.588	22896
879.715	23033
879.842	22858
879.97	22748
880.097	22668
880.224	22569
880.351	22599
880.478	22535
880.605	22527
880.732	22596
880.859	22774
880.986	22561
881.112	22542
881.239	22413
881.366	22318
881.493	22185
881.619	22188
881.746	22230
881.872	22211
881.999	22067
882.125	22082
882.252	22215
882.378	22051
882.505	22188
882.631	22017
882.757	21972
882.883	22006
883.01	21983
883.136	21671
883.262	21660
883.388	21690
883.514	21850
883.64	21911
883.766	21720
883.892	21667
884.018	21736
884.143	21751
884.269	21975
884.395	21534
884.52	21477
884.646	21564
884.772	21519
884.897	21473
885.023	21450
885.148	21481
885.274	21637
885.399	21515
885.524	21401
885.65	21542
885.775	21515
885.9	21443
886.025	21564
886.15	21500
886.275	21462
886.4	21454
886.525	21431
886.65	21367
886.775	21526
886.9	21580
887.025	21694
887.149	21492
887.274	21306
887.399	21226
887.523	21283
887.648	21199
887.773	21157
887.897	21382
888.021	21268
888.146	21203
888.27	21325
888.395	21348
888.519	21279
888.643	21325
888.767	21317
888.891	21233
889.015	20990
889.139	21142
889.263	21093
889.387	21051
889.511	21329
889.635	21176
889.759	21089
889.883	21081
890.006	21093
890.13	21195
890.254	20956
890.377	20883
890.501	20804
890.624	20735
890.748	20819
890.871	20720
890.995	20606
891.118	20568
891.241	20598
891.364	20640
891.488	20689
891.611	20735
891.734	20617
891.857	20530
891.98	20670
892.103	20556
892.226	20549
892.349	20495
892.471	20450
892.594	20503
892.717	20499
892.839	20431
892.962	20514
893.085	20556
893.207	20415
893.33	20347
893.452	20336
893.575	20560
893.697	20385
893.819	20682
893.941	20613
894.064	20530
894.186	20492
894.308	20412
894.43	20598
894.552	20606
894.674	20545
894.796	20461
894.918	20564
895.04	20511
895.161	20541
895.283	20503
895.405	20473
895.526	20507
895.648	20446
895.769	20492
895.891	20530
896.012	20659
896.134	20522
896.255	20507
896.376	20442
896.498	20484
896.619	20484
896.74	20389
896.861	20556
896.982	20785
897.103	20975
897.224	20758
897.345	20705
897.466	20625
897.587	20727
897.708	20849
897.828	20727
897.949	20465
898.07	20568
898.19	20636
898.311	20777
898.431	20598
898.552	20678
898.672	20708
898.792	20834
898.913	20708
899.033	20712
899.153	20442
899.273	20374
899.393	20396
899.513	20564
899.633	20484
899.753	20488
899.873	20495
899.993	20518
900.113	20347
900.232	20298
900.352	20419
900.472	20221
900.591	20237
900.711	20126
900.83	20218
900.95	20286
901.069	20233
901.189	20111
901.308	19784
901.427	19814
901.546	19734
901.665	19822
901.784	19772
901.904	19651
902.023	19605
902.141	19392
902.26	19282
902.379	19441
902.498	19339
902.617	19354
902.735	19441
902.854	19358
902.973	19187
903.091	18977
903.21	18985
903.328	18962
903.446	18947
903.565	18806
903.683	18757
903.801	18612
903.919	18730
904.038	18844
904.156	18589
904.274	18601
904.392	18593
904.51	18540
904.627	18540
904.745	18559
904.863	18623
904.981	18239
905.098	18232
905.216	18213
905.334	18334
905.451	18308
905.569	18194
905.686	18357
905.803	18277
905.921	17946
906.038	18174
906.155	18076
906.272	17931
906.389	17843
906.506	17809
906.623	17836
906.74	17764
906.857	17611
906.974	17642
907.091	17767
907.208	17802
907.324	17840
907.441	17623
907.557	17471
907.674	17429
907.79	17360
907.907	17372
908.023	17516
908.139	17429
908.256	17497
908.372	17360
908.488	17330
908.604	17200
908.72	17162
908.836	17242
908.952	17235
909.068	17155
909.184	17296
909.3	17181
909.415	17025
909.531	17197
909.647	16938
909.762	16767
909.878	16847
909.993	16889
910.108	16809
910.224	16889
910.339	16915
910.454	16744
910.57	16672
910.685	16618
910.8	16786
910.915	16736
911.03	16694
911.145	16394
911.259	16455
911.374	16481
911.489	16303
911.604	16333
911.718	16287
911.833	16158
911.947	16006
912.062	16029
912.176	16124
912.291	16078
912.405	16219
912.519	16451
912.633	16299
912.748	16265
912.862	16192
912.976	15934
913.09	15926
913.204	15934
913.318	15975
913.431	16071
913.545	16071
913.659	16154
913.772	15941
913.886	15880
914	15755
914.113	15945
914.226	15953
914.34	15823
914.453	15709
914.566	15713
914.68	15656
914.793	15629
914.906	15454
915.019	15439
915.132	15389
915.245	15363
915.358	15473
915.47	15412
915.583	15382
915.696	15488
915.809	15428
915.921	15458
916.034	15298
916.146	15283
916.259	15291
916.371	15447
916.483	15378
916.595	15237
916.708	15203
916.82	15211
916.932	15169
917.044	15207
917.156	15097
917.268	15047
917.38	15058
917.491	15104
917.603	15089
917.715	15074
917.826	15089
917.938	14887
918.049	14891
918.161	14979
918.272	15104
918.384	15036
918.495	15077
918.606	14864
918.717	14693
918.828	14815
918.939	14899
919.05	14712
919.161	14796
919.272	14552
919.383	14644
919.494	14830
919.604	14998
919.715	14686
919.826	14693
919.936	14769
920.047	14796
920.157	14739
920.267	14982
920.378	14781
920.488	14705
920.598	14990
920.708	14929
920.818	14834
920.928	14823
921.038	15017
921.148	14944
921.258	14773
921.368	14537
921.477	14473
921.587	14427
921.697	14431
921.806	14621
921.916	14351
922.025	14206
922.134	14168
922.244	14092
922.353	14180
922.462	14065
922.571	13875
922.68	13795
922.789	13700
922.898	13776
923.007	13704
923.116	13788
923.224	13757
923.333	13616
923.442	13620
923.55	13552
923.659	13609
923.767	13666
923.876	13495
923.984	13639
924.092	13487
924.201	13514
924.309	13537
924.417	13518
924.525	13453
924.633	13476
924.741	14103
924.849	13255
924.956	13316
925.064	13228
925.172	13149
925.279	13118
925.387	13187
925.494	13187
925.602	13270
925.709	13217
925.816	13072
925.924	13156
926.031	13190
926.138	13194
926.245	13247
926.352	13004
926.459	13156
926.566	13213
926.673	12890
926.779	12852
926.886	12817
926.993	12821
927.099	12719
927.206	12798
927.312	12658
927.419	12795
927.525	12730
927.631	12738
927.737	12547
927.843	12593
927.95	12410
928.056	12525
928.162	12536
928.267	12616
928.373	13179
928.479	12574
928.585	12300
928.69	12448
928.796	12490
928.901	12483
929.007	12311
929.112	12388
929.218	12357
929.323	12395
929.428	12228
929.533	12384
929.638	12175
929.743	12182
929.848	12285
929.953	12235
930.058	12038
930.163	11939
930.267	12011
930.372	12129
930.477	11836
930.581	12064
930.685	12003
930.79	11847
930.894	11901
930.998	11821
931.103	11920
931.207	11665
931.311	11459
931.415	11417
931.519	11189
931.623	11193
