Data from test_V78500241_885.txt Node
Date: Fri Mar 25 15:16:01 CST 2022
User: usil
Spectrometer: V785-0024
Trigger mode: 0
Integration Time (sec): 4.000000E-1
Scans to average: 1
Nonlinearity correction enabled: false
Boxcar width: 0
Storing dark spectrum: false
XAxis mode: Wavelengths
Number of Pixels in Spectrum: 1024
>>>>>Begin Spectral Data<<<<<
801.071	28230
801.214	28147
801.356	27926
801.499	27842
801.641	27671
801.783	27652
801.926	27888
802.068	27595
802.211	27523
802.353	27568
802.496	27450
802.638	27355
802.78	27310
802.923	27237
803.065	27370
803.208	27378
803.35	27329
803.492	27534
803.635	27583
803.777	27542
803.919	27564
804.061	27842
804.204	27530
804.346	27439
804.488	27370
804.63	27648
804.773	27363
804.915	27488
805.057	27717
805.199	27485
805.341	27568
805.483	27728
805.626	27717
805.768	27583
805.91	27629
806.052	27717
806.194	27656
806.336	27945
806.478	27804
806.62	27743
806.762	27934
806.904	27983
807.046	28105
807.188	28162
807.33	28112
807.472	28044
807.614	27903
807.756	28166
807.898	27835
808.04	27949
808.182	27819
808.324	27956
808.465	28139
808.607	28082
808.749	28306
808.891	28375
809.033	28470
809.174	28455
809.316	28291
809.458	28413
809.6	28310
809.741	28466
809.883	28474
810.025	28675
810.166	28584
810.308	28611
810.45	28569
810.591	28516
810.733	28424
810.875	28257
811.016	28185
811.158	28257
811.299	28516
811.441	28535
811.582	28375
811.724	28299
811.865	28306
812.007	28242
812.148	28344
812.29	28390
812.431	28538
812.573	28717
812.714	28664
812.855	28881
812.997	29018
813.138	29143
813.279	29041
813.421	29067
813.562	28900
813.703	28759
813.845	28653
813.986	28249
814.127	28188
814.268	28021
814.41	28006
814.551	28166
814.692	28143
814.833	28059
814.974	28013
815.115	28044
815.256	27964
815.397	27888
815.539	27911
815.68	27918
815.821	27743
815.962	27907
816.103	27713
816.244	27694
816.385	27625
816.526	27633
816.666	27526
816.807	27344
816.948	27549
817.089	27526
817.23	27359
817.371	27492
817.512	27389
817.653	27477
817.793	27283
817.934	27485
818.075	27389
818.216	27477
818.356	27279
818.497	27325
818.638	27017
818.778	27184
818.919	27119
819.06	27230
819.2	27275
819.341	27355
819.481	27397
819.622	27515
819.762	27675
819.903	27717
820.043	27641
820.184	27568
820.324	27587
820.465	27641
820.605	27606
820.746	27386
820.886	27306
821.026	27462
821.167	27408
821.307	27382
821.447	27294
821.588	27340
821.728	27218
821.868	26956
822.008	26887
822.149	26891
822.289	26849
822.429	26629
822.569	26564
822.709	26564
822.849	26423
822.99	26404
823.13	26484
823.27	26351
823.41	26191
823.55	26100
823.69	26233
823.83	26164
823.97	26069
824.11	26043
824.25	25955
824.389	25936
824.529	26172
824.669	25951
824.809	26088
824.949	26115
825.089	26191
825.228	26195
825.368	25849
825.508	25925
825.648	25887
825.787	25830
825.927	26005
826.067	25765
826.206	25955
826.346	26016
826.485	25860
826.625	25986
826.765	25875
826.904	25944
827.044	25784
827.183	25594
827.323	25662
827.462	25727
827.601	25681
827.741	25624
827.88	25651
828.02	25460
828.159	25495
828.298	25700
828.437	25719
828.577	25563
828.716	25746
828.855	25537
828.994	25403
829.134	25282
829.273	25430
829.412	25312
829.551	25289
829.69	25179
829.829	25270
829.968	25316
830.107	25278
830.246	25324
830.385	25213
830.524	25183
830.663	25164
830.802	25012
830.941	24905
831.08	24783
831.219	25072
831.357	24973
831.496	25015
831.635	24935
831.774	24810
831.913	24829
832.051	24681
832.19	24757
832.329	24734
832.467	24677
832.606	24486
832.744	24544
832.883	24612
833.022	24505
833.16	24612
833.299	24745
833.437	24578
833.576	24787
833.714	24757
833.852	24688
833.991	24631
834.129	24848
834.267	24795
834.406	24795
834.544	24692
834.682	24623
834.821	24650
834.959	24817
835.097	24608
835.235	24593
835.373	24608
835.511	24566
835.65	24490
835.788	24555
835.926	24369
836.064	24182
836.202	24471
836.34	24429
836.478	24681
836.615	24445
836.753	24608
836.891	24658
837.029	24410
837.167	24490
837.305	24353
837.443	24357
837.58	24304
837.718	24509
837.856	24296
837.993	24289
838.131	24350
838.269	24174
838.406	24330
838.544	24228
838.681	24030
838.819	23889
838.956	23805
839.094	23752
839.231	23790
839.369	23942
839.506	24155
839.643	23992
839.781	23676
839.918	23585
840.055	23809
840.193	23695
840.33	23764
840.467	23703
840.604	23657
840.742	24003
840.879	23570
841.016	23691
841.153	23627
841.29	23748
841.427	23680
841.564	23676
841.701	23665
841.838	23623
841.975	23554
842.112	23608
842.249	23592
842.385	23486
842.522	23661
842.659	23497
842.796	23360
842.933	23509
843.069	23414
843.206	23474
843.343	23562
843.479	23410
843.616	23440
843.752	23292
843.889	23181
844.025	23341
844.162	23239
844.298	23356
844.435	23098
844.571	23277
844.708	23299
844.844	23345
844.98	23311
845.117	23356
845.253	23162
845.389	23075
845.525	23113
845.661	23174
845.798	22991
845.934	22972
846.07	22942
846.206	23090
846.342	22957
846.478	22858
846.614	22725
846.75	22668
846.886	22679
847.022	22790
847.158	22653
847.294	22706
847.429	22854
847.565	22664
847.701	22930
847.837	22409
847.972	22352
848.108	22569
848.244	22341
848.379	22284
848.515	22276
848.65	22234
848.786	22352
848.921	22268
849.057	22356
849.192	22303
849.328	22284
849.463	22291
849.598	22124
849.734	22158
849.869	22226
850.004	22006
850.14	22010
850.275	22036
850.41	22040
850.545	22032
850.68	21991
850.815	22158
850.95	21960
851.085	22124
851.22	22181
851.355	22006
851.49	22082
851.625	21937
851.76	22051
851.895	21911
852.03	21975
852.165	21876
852.299	22025
852.434	22169
852.569	22139
852.703	21884
852.838	22086
852.973	22090
853.107	22082
853.242	21956
853.376	21895
853.511	21800
853.645	21880
853.78	22010
853.914	21827
854.048	21736
854.183	21915
854.317	21956
854.451	22044
854.585	21808
854.72	21850
854.854	21922
854.988	21800
855.122	21797
855.256	21713
855.39	21842
855.524	21915
855.658	21960
855.792	21835
855.926	21876
856.06	21941
856.194	21831
856.327	21842
856.461	21842
856.595	21766
856.729	21819
856.862	21987
856.996	21907
857.13	21937
857.263	21903
857.397	21861
857.53	21846
857.664	21956
857.797	21892
857.931	21975
858.064	21888
858.197	21949
858.331	21823
858.464	21922
858.597	21713
858.731	21892
858.864	21873
858.997	21823
859.13	21835
859.263	21869
859.396	22032
859.529	21865
859.662	21804
859.795	21819
859.928	21873
860.061	22074
860.194	21960
860.327	21922
860.46	21926
860.592	21949
860.725	22105
860.858	22067
860.99	21846
861.123	21781
861.256	21797
861.388	21842
861.521	22481
861.653	21743
861.786	21728
861.918	21781
862.05	21720
862.183	21793
862.315	21751
862.447	21804
862.58	21808
862.712	21641
862.844	21477
862.976	21781
863.108	21675
863.24	21972
863.372	21507
863.504	21526
863.636	21564
863.768	21564
863.9	21580
864.032	21580
864.164	21549
864.296	21553
864.428	21728
864.559	21603
864.691	21618
864.823	21610
864.954	21530
865.086	21583
865.217	21545
865.349	21466
865.48	21496
865.612	21443
865.743	21583
865.875	21367
866.006	21439
866.137	21488
866.269	21443
866.4	21386
866.531	21275
866.662	21298
866.793	21321
866.924	21310
867.055	21431
867.186	21386
867.317	21363
867.448	21306
867.579	21313
867.71	21252
867.841	21389
867.972	21386
868.103	21439
868.233	21370
868.364	21378
868.495	21519
868.625	21561
868.756	21625
868.886	21504
869.017	21492
869.147	21709
869.278	21781
869.408	21583
869.539	21564
869.669	21778
869.799	21622
869.929	21785
870.06	21709
870.19	21998
870.32	21937
870.45	21934
870.58	21937
870.71	22143
870.84	22063
870.97	22074
871.1	21934
871.23	22188
871.36	22314
871.489	22040
871.619	22200
871.749	22135
871.879	22249
872.008	22459
872.138	22242
872.267	22196
872.397	22070
872.526	21983
872.656	22120
872.785	22036
872.915	22276
873.044	22306
873.173	22318
873.303	22223
873.432	22356
873.561	22398
873.69	22249
873.819	22192
873.948	22306
874.077	22314
874.206	22325
874.335	22207
874.464	22337
874.593	22504
874.722	22322
874.851	22542
874.979	22451
875.108	22500
875.237	22447
875.365	22348
875.494	22527
875.623	22569
875.751	22516
875.88	22424
876.008	22580
876.136	22596
876.265	22968
876.393	22961
876.521	22843
876.65	22889
876.778	22930
876.906	22862
877.034	22740
877.162	22744
877.29	22858
877.418	22831
877.546	22850
877.674	22858
877.802	22748
877.93	22782
878.058	22759
878.185	22607
878.313	22687
878.441	22649
878.568	22675
878.696	22588
878.824	22717
878.951	22869
879.079	22999
879.206	23079
879.333	22877
879.461	22858
879.588	22816
879.715	22934
879.842	23098
879.97	22763
880.097	22736
880.224	22497
880.351	22702
880.478	22569
880.605	22474
880.732	22538
880.859	22763
880.986	22607
881.112	22618
881.239	22531
881.366	22329
881.493	22371
881.619	22162
881.746	22337
881.872	22128
881.999	22166
882.125	22074
882.252	22185
882.378	22120
882.505	22284
882.631	22067
882.757	21975
882.883	21831
883.01	22086
883.136	21823
883.262	21648
883.388	21720
883.514	21819
883.64	21789
883.766	21842
883.892	21682
884.018	21720
884.143	21835
884.269	21774
884.395	21812
884.52	21500
884.646	21519
884.772	21435
884.897	21428
885.023	21485
885.148	21572
885.274	21675
885.399	21618
885.524	21443
885.65	21507
885.775	21443
885.9	21317
886.025	21473
886.15	21553
886.275	21443
886.4	21313
886.525	21450
886.65	21374
886.775	21473
886.9	21595
887.025	21622
887.149	21542
887.274	21401
887.399	21222
887.523	21230
887.648	21340
887.773	21119
887.897	21264
888.021	21378
888.146	21233
888.27	21412
888.395	21370
888.519	21298
888.643	21283
888.767	21310
888.891	21169
889.015	21051
889.139	21146
889.263	21039
889.387	21237
889.511	21283
889.635	21146
889.759	20960
889.883	21032
890.006	21089
890.13	21157
890.254	20963
890.377	21039
890.501	20762
890.624	20769
890.748	20880
890.871	20667
890.995	20693
891.118	20594
891.241	20708
891.364	20655
891.488	20769
891.611	20739
891.734	20609
891.857	20689
891.98	20682
892.103	20651
892.226	20648
892.349	20530
892.471	20438
892.594	20537
892.717	20556
892.839	20621
892.962	20446
893.085	20644
893.207	20434
893.33	20476
893.452	20507
893.575	20552
893.697	20442
893.819	20663
893.941	20693
894.064	20705
894.186	20457
894.308	20396
894.43	20564
894.552	20682
894.674	20537
894.796	20400
894.918	20590
895.04	20347
895.161	20556
895.283	20579
895.405	20495
895.526	20514
895.648	20423
895.769	20530
895.891	20461
896.012	20613
896.134	20419
896.255	20533
896.376	20480
896.498	20495
896.619	20587
896.74	20473
896.861	20442
896.982	20769
897.103	21013
897.224	20800
897.345	20651
897.466	20689
897.587	20697
897.708	20849
897.828	20727
897.949	20476
898.07	20545
898.19	20640
898.311	20758
898.431	20754
898.552	20697
898.672	20724
898.792	20857
898.913	20659
899.033	20705
899.153	20476
899.273	20442
899.393	20412
899.513	20556
899.633	20457
899.753	20400
899.873	20355
899.993	20507
900.113	20427
900.232	20514
900.352	20396
900.472	20252
900.591	20214
900.711	20301
900.83	20142
900.95	20290
901.069	20328
901.189	20054
901.308	19738
901.427	19799
901.546	19883
901.665	19837
901.784	19852
901.904	19693
902.023	19590
902.141	19491
902.26	19419
902.379	19312
902.498	19335
902.617	19244
902.735	19354
902.854	19278
902.973	19217
903.091	18897
903.21	18989
903.328	19050
903.446	18806
903.565	18711
903.683	18852
903.801	18700
903.919	18741
904.038	18726
904.156	18711
904.274	18578
904.392	18623
904.51	18635
904.627	18475
904.745	18574
904.863	18547
904.981	18445
905.098	18174
905.216	18235
905.334	18186
905.451	18216
905.569	18232
905.686	18197
905.803	18159
905.921	17969
906.038	18144
906.155	18019
906.272	17980
906.389	17882
906.506	17703
906.623	17878
906.74	17714
906.857	17737
906.974	17642
907.091	17874
907.208	17927
907.324	17779
907.441	17684
907.557	17558
907.674	17486
907.79	17387
907.907	17345
908.023	17558
908.139	17478
908.256	17440
908.372	17402
908.488	17288
908.604	17269
908.72	17162
908.836	17189
908.952	17128
909.068	17379
909.184	17273
909.3	17124
909.415	17227
909.531	17083
909.647	16896
909.762	16968
909.878	16847
909.993	16862
910.108	16896
910.224	16831
910.339	16877
910.454	16793
910.57	16698
910.685	16603
910.8	16843
910.915	16858
911.03	16763
911.145	16523
911.259	16512
911.374	16470
911.489	16455
911.604	16344
911.718	16158
911.833	16287
911.947	16105
912.062	15994
912.176	16211
912.291	16185
912.405	16211
912.519	16375
912.633	16333
912.748	16272
912.862	16109
912.976	16109
913.09	15926
913.204	16101
913.318	16036
913.431	16078
913.545	16192
913.659	16105
913.772	15899
913.886	15918
914	15781
914.113	15975
914.226	15846
914.34	15831
914.453	15739
914.566	15892
914.68	15694
914.793	15644
914.906	15469
915.019	15450
915.132	15447
915.245	15511
915.358	15477
915.47	15416
915.583	15526
915.696	15439
915.809	15523
915.921	15530
916.034	15287
916.146	15302
916.259	15306
916.371	15378
916.483	15302
916.595	15237
916.708	15256
916.82	15233
916.932	15230
917.044	15169
917.156	15199
917.268	15119
917.38	14990
917.491	15013
917.603	15039
917.715	15093
917.826	15138
917.938	14979
918.049	14891
918.161	15017
918.272	15272
918.384	15093
918.495	15005
918.606	14777
918.717	14830
918.828	14929
918.939	14750
919.05	14792
919.161	14743
919.272	14613
919.383	14617
919.494	14891
919.604	14944
919.715	14830
919.826	14746
919.936	14800
920.047	14788
920.157	14861
920.267	15055
920.378	14735
920.488	14629
920.598	15017
920.708	15043
920.818	14891
920.928	14906
921.038	14990
921.148	14994
921.258	14739
921.368	14537
921.477	14530
921.587	14450
921.697	14412
921.806	14450
921.916	14408
922.025	14237
922.134	14153
922.244	14084
922.353	14134
922.462	14107
922.571	13906
922.68	13856
922.789	13734
922.898	13791
923.007	13780
923.116	13784
923.224	13681
923.333	13811
923.442	13696
923.55	13696
923.659	13666
923.767	13605
923.876	13552
923.984	13651
924.092	13514
924.201	13521
924.309	13571
924.417	13476
924.525	13346
924.633	13449
924.741	14202
924.849	13301
924.956	13316
925.064	13324
925.172	13076
925.279	13171
925.387	13331
925.494	13164
925.602	13270
925.709	13240
925.816	13110
925.924	13190
926.031	13183
926.138	13152
926.245	13217
926.352	13129
926.459	13091
926.566	13190
926.673	13057
926.779	12920
926.886	12882
926.993	12741
927.099	12791
927.206	12684
927.312	12574
927.419	12749
927.525	12798
927.631	12734
927.737	12669
927.843	12566
927.95	12479
928.056	12536
928.162	12563
928.267	12593
928.373	13118
928.479	12582
928.585	12365
928.69	12456
928.796	12536
928.901	12422
929.007	12254
929.112	12399
929.218	12308
929.323	12319
929.428	12292
929.533	12456
929.638	12182
929.743	12144
929.848	12292
929.953	12232
930.058	12133
930.163	11916
930.267	11965
930.372	12087
930.477	11916
930.581	12117
930.685	11996
930.79	11916
930.894	11824
930.998	11847
931.103	11969
931.207	11668
931.311	11490
931.415	11448
931.519	11109
931.623	11258
