Data from test_V78500241_2842.txt Node
Date: Fri Mar 25 15:29:38 CST 2022
User: usil
Spectrometer: V785-0024
Trigger mode: 0
Integration Time (sec): 4.000000E-1
Scans to average: 1
Nonlinearity correction enabled: false
Boxcar width: 0
Storing dark spectrum: false
XAxis mode: Wavelengths
Number of Pixels in Spectrum: 1024
>>>>>Begin Spectral Data<<<<<
801.071	27252
801.214	27154
801.356	26929
801.499	26762
801.641	26826
801.783	26693
801.926	26883
802.068	26792
802.211	26609
802.353	26575
802.496	26575
802.638	26438
802.78	26408
802.923	26389
803.065	26244
803.208	26328
803.35	26495
803.492	26587
803.635	26590
803.777	26412
803.919	26606
804.061	26823
804.204	26511
804.346	26465
804.488	26579
804.63	26339
804.773	26404
804.915	26514
805.057	26678
805.199	26511
805.341	26537
805.483	26712
805.626	26594
805.768	26651
805.91	26727
806.052	26743
806.194	26469
806.336	26716
806.478	26689
806.62	26693
806.762	26800
806.904	26921
807.046	27222
807.188	27127
807.33	27199
807.472	27150
807.614	26933
807.756	27017
807.898	26891
808.04	26800
808.182	26921
808.324	26910
808.465	26914
808.607	27062
808.749	27165
808.891	27348
809.033	27393
809.174	27268
809.316	27245
809.458	27313
809.6	27340
809.741	27336
809.883	27507
810.025	27580
810.166	27519
810.308	27614
810.45	27374
810.591	27336
810.733	27226
810.875	27230
811.016	27116
811.158	27001
811.299	27279
811.441	27439
811.582	27485
811.724	27359
811.865	27207
812.007	27169
812.148	27237
812.29	27157
812.431	27294
812.573	27564
812.714	27557
812.855	27857
812.997	27819
813.138	27895
813.279	27831
813.421	27838
813.562	27694
813.703	27466
813.845	27386
813.986	27218
814.127	27146
814.268	26929
814.41	26910
814.551	26975
814.692	26963
814.833	26788
814.974	26929
815.115	26773
815.256	26800
815.397	26834
815.539	26804
815.68	26636
815.821	26648
815.962	26697
816.103	26667
816.244	26499
816.385	26575
816.526	26393
816.666	26244
816.807	26214
816.948	26324
817.089	26229
817.23	26206
817.371	26252
817.512	26240
817.653	26157
817.793	26149
817.934	26191
818.075	26176
818.216	26107
818.356	26084
818.497	25940
818.638	25936
818.778	25955
818.919	25845
819.06	25921
819.2	26031
819.341	26199
819.481	26081
819.622	26377
819.762	26453
819.903	26412
820.043	26412
820.184	26282
820.324	26275
820.465	26374
820.605	26313
820.746	26267
820.886	26191
821.026	26016
821.167	26199
821.307	26282
821.447	26119
821.588	26069
821.728	26012
821.868	25731
822.008	25658
822.149	25761
822.289	25658
822.429	25403
822.569	25228
822.709	25350
822.849	25240
822.99	25118
823.13	25065
823.27	25053
823.41	24935
823.55	25012
823.69	24985
823.83	24897
823.97	24920
824.11	24757
824.25	24711
824.389	24700
824.529	24798
824.669	24711
824.809	24825
824.949	24859
825.089	24802
825.228	24783
825.368	24589
825.508	24471
825.648	24642
825.787	24547
825.927	24631
826.067	24509
826.206	24642
826.346	24654
826.485	24665
826.625	24555
826.765	24734
826.904	24612
827.044	24258
827.183	24517
827.323	24228
827.462	24327
827.601	24216
827.741	24247
827.88	24365
828.02	24194
828.159	24251
828.298	24300
828.437	24308
828.577	24220
828.716	24464
828.855	24235
828.994	23847
829.134	23954
829.273	23885
829.412	23984
829.551	23889
829.69	24034
829.829	24079
829.968	24163
830.107	24079
830.246	24041
830.385	23901
830.524	23908
830.663	23931
830.802	23707
830.941	23604
831.08	23684
831.219	23748
831.357	23619
831.496	23832
831.635	23672
831.774	23501
831.913	23337
832.051	23387
832.19	23414
832.329	23345
832.467	23322
832.606	23273
832.744	23349
832.883	23311
833.022	23189
833.16	23376
833.299	23261
833.437	23246
833.576	23265
833.714	23417
833.852	23444
833.991	23436
834.129	23414
834.267	23455
834.406	23402
834.544	23379
834.682	23376
834.821	23330
834.959	23467
835.097	23273
835.235	23402
835.373	23280
835.511	23372
835.65	23166
835.788	23181
835.926	23079
836.064	23044
836.202	22961
836.34	23143
836.478	23250
836.615	23083
836.753	23170
836.891	23273
837.029	23197
837.167	23098
837.305	23083
837.443	23010
837.58	23037
837.718	22987
837.856	23185
837.993	22968
838.131	23018
838.269	22854
838.406	22991
838.544	22919
838.681	22691
838.819	22672
838.956	22466
839.094	22443
839.231	22542
839.369	22542
839.506	22980
839.643	22706
839.781	22535
839.918	22367
840.055	22474
840.193	22474
840.33	22474
840.467	22409
840.604	22470
840.742	22683
840.879	22299
841.016	22242
841.153	22325
841.29	22489
841.427	22474
841.564	22443
841.701	22394
841.838	22417
841.975	22299
842.112	22421
842.249	22272
842.385	22284
842.522	22535
842.659	22440
842.796	22215
842.933	22238
843.069	22166
843.206	22162
843.343	22246
843.479	22230
843.616	22207
843.752	21888
843.889	22025
844.025	22188
844.162	21991
844.298	22154
844.435	21994
844.571	21998
844.708	22021
844.844	22105
844.98	22135
845.117	22036
845.253	21922
845.389	21774
845.525	21869
845.661	21766
845.798	21587
845.934	21778
846.07	21694
846.206	21641
846.342	21747
846.478	21724
846.614	21580
846.75	21466
846.886	21397
847.022	21477
847.158	21496
847.294	21462
847.429	21435
847.565	21477
847.701	21652
847.837	21207
847.972	21199
848.108	21249
848.244	21222
848.379	21013
848.515	21207
848.65	20804
848.786	20994
848.921	21047
849.057	21077
849.192	21089
849.328	21036
849.463	21077
849.598	20994
849.734	20944
849.869	20895
850.004	20743
850.14	20864
850.275	20727
850.41	20750
850.545	20743
850.68	20689
850.815	20754
850.95	20743
851.085	20929
851.22	20967
851.355	20864
851.49	20746
851.625	20735
851.76	20800
851.895	20777
852.03	20807
852.165	20765
852.299	20883
852.434	20678
852.569	20731
852.703	20735
852.838	20792
852.973	20941
853.107	20887
853.242	20777
853.376	20587
853.511	20568
853.645	20636
853.78	20758
853.914	20602
854.048	20556
854.183	20629
854.317	20644
854.451	20762
854.585	20568
854.72	20625
854.854	20769
854.988	20560
855.122	20617
855.256	20503
855.39	20556
855.524	20613
855.658	20746
855.792	20640
855.926	20670
856.06	20765
856.194	20743
856.327	20659
856.461	20503
856.595	20484
856.729	20678
856.862	20568
856.996	20674
857.13	20552
857.263	20769
857.397	20720
857.53	20648
857.664	20678
857.797	20682
857.931	20686
858.064	20625
858.197	20697
858.331	20670
858.464	20667
858.597	20408
858.731	20552
858.864	20503
858.997	20571
859.13	20625
859.263	20549
859.396	20712
859.529	20640
859.662	20522
859.795	20678
859.928	20640
860.061	20857
860.194	20941
860.327	20613
860.46	20678
860.592	20743
860.725	20697
860.858	20644
860.99	20621
861.123	20636
861.256	20480
861.388	20659
861.521	21256
861.653	20503
861.786	20427
861.918	20431
862.05	20480
862.183	20488
862.315	20590
862.447	20609
862.58	20552
862.712	20408
862.844	20366
862.976	20431
863.108	20415
863.24	20758
863.372	20263
863.504	20396
863.636	20278
863.768	20248
863.9	20347
864.032	20263
864.164	20400
864.296	20427
864.428	20431
864.559	20377
864.691	20412
864.823	20339
864.954	20267
865.086	20271
865.217	20290
865.349	20126
865.48	20252
865.612	20145
865.743	20328
865.875	20233
866.006	20218
866.137	20218
866.269	20218
866.4	20176
866.531	20343
866.662	20100
866.793	20195
866.924	20107
867.055	20248
867.186	20221
867.317	20161
867.448	20126
867.579	20142
867.71	20187
867.841	20069
867.972	20172
868.103	20058
868.233	20259
868.364	20267
868.495	20393
868.625	20328
868.756	20518
868.886	20294
869.017	20552
869.147	20484
869.278	20518
869.408	20446
869.539	20336
869.669	20404
869.799	20465
869.929	20530
870.06	20503
870.19	20727
870.32	20712
870.45	20735
870.58	20773
870.71	20868
870.84	20918
870.97	20762
871.1	20948
871.23	21020
871.36	21119
871.489	20921
871.619	21058
871.749	21009
871.879	20979
872.008	21142
872.138	21032
872.267	21036
872.397	20853
872.526	20857
872.656	20914
872.785	20724
872.915	21039
873.044	21093
873.173	21108
873.303	21077
873.432	21096
873.561	21085
873.69	20960
873.819	20982
873.948	21077
874.077	21028
874.206	21024
874.335	20998
874.464	21123
874.593	21340
874.722	21218
874.851	21321
874.979	21222
875.108	21279
875.237	21272
875.365	21173
875.494	21237
875.623	21408
875.751	21203
875.88	21393
876.008	21496
876.136	21454
876.265	21751
876.393	21861
876.521	21873
876.65	21709
876.778	21724
876.906	21519
877.034	21622
877.162	21694
877.29	21553
877.418	21747
877.546	21599
877.674	21542
877.802	21553
877.93	21500
878.058	21504
878.185	21397
878.313	21507
878.441	21622
878.568	21515
878.696	21641
878.824	21625
878.951	21728
879.079	21861
879.206	21804
879.333	21857
879.461	21717
879.588	21679
879.715	21934
879.842	21838
879.97	21709
880.097	21481
880.224	21439
880.351	21606
880.478	21504
880.605	21405
880.732	21549
880.859	21766
880.986	21564
881.112	21469
881.239	21291
881.366	21291
881.493	21112
881.619	21039
881.746	21024
881.872	21173
881.999	21001
882.125	21028
882.252	21131
882.378	21051
882.505	21203
882.631	21066
882.757	20819
882.883	20788
883.01	20826
883.136	20705
883.262	20625
883.388	20541
883.514	20727
883.64	20743
883.766	20674
883.892	20518
884.018	20526
884.143	20682
884.269	20727
884.395	20492
884.52	20389
884.646	20366
884.772	20412
884.897	20366
885.023	20454
885.148	20438
885.274	20503
885.399	20495
885.524	20415
885.65	20370
885.775	20408
885.9	20415
886.025	20488
886.15	20484
886.275	20244
886.4	20370
886.525	20377
886.65	20244
886.775	20450
886.9	20404
887.025	20537
887.149	20396
887.274	20229
887.399	20149
887.523	20073
887.648	20157
887.773	20065
887.897	20100
888.021	20278
888.146	20088
888.27	20214
888.395	20278
888.519	20229
888.643	20218
888.767	20225
888.891	20134
889.015	19982
889.139	20100
889.263	20008
889.387	20084
889.511	20237
889.635	20043
889.759	19944
889.883	19997
890.006	19913
890.13	20115
890.254	19959
890.377	19803
890.501	19837
890.624	19814
890.748	19772
890.871	19700
890.995	19544
891.118	19499
891.241	19575
891.364	19635
891.488	19674
891.611	19540
891.734	19605
891.857	19605
891.98	19529
892.103	19563
892.226	19594
892.349	19343
892.471	19259
892.594	19434
892.717	19453
892.839	19533
892.962	19476
893.085	19415
893.207	19571
893.33	19415
893.452	19388
893.575	19525
893.697	19578
893.819	19582
893.941	19742
894.064	19647
894.186	19445
894.308	19438
894.43	19586
894.552	19620
894.674	19525
894.796	19518
894.918	19453
895.04	19403
895.161	19578
895.283	19483
895.405	19476
895.526	19582
895.648	19506
895.769	19438
895.891	19540
896.012	19487
896.134	19506
896.255	19426
896.376	19472
896.498	19449
896.619	19388
896.74	19419
896.861	19559
896.982	19811
897.103	19902
897.224	19818
897.345	19712
897.466	19712
897.587	19814
897.708	19894
897.828	19845
897.949	19643
898.07	19628
898.19	19658
898.311	19753
898.431	19586
898.552	19693
898.672	19727
898.792	19719
898.913	19761
899.033	19590
899.153	19540
899.273	19445
899.393	19377
899.513	19540
899.633	19594
899.753	19548
899.873	19502
899.993	19586
900.113	19476
900.232	19449
900.352	19445
900.472	19343
900.591	19263
900.711	19365
900.83	19308
900.95	19407
901.069	19343
901.189	19145
901.308	19076
901.427	18764
901.546	18779
901.665	18970
901.784	18798
901.904	18764
902.023	18597
902.141	18544
902.26	18452
902.379	18391
902.498	18372
902.617	18372
902.735	18498
902.854	18350
902.973	18323
903.091	17999
903.21	18091
903.328	18034
903.446	18064
903.565	17923
903.683	17897
903.801	17764
903.919	17923
904.038	17821
904.156	17665
904.274	17771
904.392	17745
904.51	17653
904.627	17608
904.745	17798
904.863	17627
904.981	17482
905.098	17261
905.216	17379
905.334	17398
905.451	17425
905.569	17391
905.686	17395
905.803	17239
905.921	17090
906.038	17235
906.155	17155
906.272	17166
906.389	17090
906.506	16904
906.623	16949
906.74	16843
906.857	16862
906.974	16923
907.091	16911
907.208	16957
907.324	16919
907.441	16790
907.557	16603
907.674	16569
907.79	16542
907.907	16626
908.023	16668
908.139	16679
908.256	16611
908.372	16554
908.488	16599
908.604	16379
908.72	16337
908.836	16390
908.952	16356
909.068	16386
909.184	16375
909.3	16375
909.415	16409
909.531	16344
909.647	16177
909.762	16112
909.878	16021
909.993	16112
910.108	16078
910.224	16048
910.339	16006
910.454	15956
910.57	15797
910.685	15759
910.8	16067
910.915	15953
911.03	15972
911.145	15781
911.259	15587
911.374	15663
911.489	15690
911.604	15496
911.718	15336
911.833	15485
911.947	15325
912.062	15310
912.176	15473
912.291	15568
912.405	15466
912.519	15625
912.633	15553
912.748	15435
912.862	15291
912.976	15173
913.09	15108
913.204	15074
913.318	15211
913.431	15329
913.545	15367
913.659	15355
913.772	15264
913.886	15028
914	14994
914.113	15180
914.226	15112
914.34	15085
914.453	14902
914.566	14956
914.68	15058
914.793	14914
914.906	14648
915.019	14686
915.132	14571
915.245	14610
915.358	14648
915.47	14602
915.583	14636
915.696	14651
915.809	14788
915.921	14750
916.034	14640
916.146	14552
916.259	14434
916.371	14617
916.483	14598
916.595	14476
916.708	14492
916.82	14514
916.932	14431
917.044	14381
917.156	14347
917.268	14374
917.38	14332
917.491	14351
917.603	14358
917.715	14431
917.826	14393
917.938	14328
918.049	14161
918.161	14294
918.272	14408
918.384	14358
918.495	14206
918.606	14157
918.717	14065
918.828	14115
918.939	14020
919.05	14012
919.161	13970
919.272	13978
919.383	14005
919.494	14111
919.604	14267
919.715	13989
919.826	14016
919.936	14035
920.047	14176
920.157	14046
920.267	14221
920.378	14058
920.488	14069
920.598	14229
920.708	14278
920.818	14256
920.928	14111
921.038	14408
921.148	14298
921.258	13997
921.368	13967
921.477	13784
921.587	13750
921.697	13594
921.806	13852
921.916	13651
922.025	13548
922.134	13480
922.244	13350
922.353	13438
922.462	13324
922.571	13320
922.68	13110
922.789	13088
922.898	13042
923.007	13015
923.116	13133
923.224	13137
923.333	13072
923.442	12985
923.55	12951
923.659	13015
923.767	13023
923.876	12939
923.984	12996
924.092	12783
924.201	12863
924.309	12924
924.417	12848
924.525	12810
924.633	12837
924.741	13681
924.849	12650
924.956	12753
925.064	12616
925.172	12525
925.279	12494
925.387	12555
925.494	12570
925.602	12730
925.709	12642
925.816	12475
925.924	12479
926.031	12563
926.138	12509
926.245	12608
926.352	12410
926.459	12483
926.566	12544
926.673	12498
926.779	12243
926.886	12376
926.993	12281
927.099	12125
927.206	12079
927.312	12083
927.419	12171
927.525	12106
927.631	12224
927.737	11946
927.843	11961
927.95	11935
928.056	12022
928.162	12003
928.267	11958
928.373	12551
928.479	11927
928.585	11817
928.69	11935
928.796	11954
928.901	11855
929.007	11699
929.112	11832
929.218	11779
929.323	11756
929.428	11653
929.533	11729
929.638	11691
929.743	11615
929.848	11771
929.953	11695
930.058	11570
930.163	11307
930.267	11379
930.372	11512
930.477	11326
930.581	11596
930.685	11421
930.79	11292
930.894	11330
930.998	11220
931.103	11436
931.207	11113
931.311	11094
931.415	10961
931.519	10649
931.623	10622
