Data from test_V78500241_1828.txt Node
Date: Fri Mar 25 15:22:35 CST 2022
User: usil
Spectrometer: V785-0024
Trigger mode: 0
Integration Time (sec): 4.000000E-1
Scans to average: 1
Nonlinearity correction enabled: false
Boxcar width: 0
Storing dark spectrum: false
XAxis mode: Wavelengths
Number of Pixels in Spectrum: 1024
>>>>>Begin Spectral Data<<<<<
801.071	27831
801.214	27808
801.356	27412
801.499	27496
801.641	27348
801.783	27294
801.926	27485
802.068	27275
802.211	27386
802.353	27306
802.496	27173
802.638	27100
802.78	27013
802.923	26990
803.065	26891
803.208	27036
803.35	26925
803.492	27096
803.635	27264
803.777	26971
803.919	27264
804.061	27447
804.204	27363
804.346	27180
804.488	27089
804.63	27256
804.773	27184
804.915	27237
805.057	27329
805.199	27222
805.341	27272
805.483	27405
805.626	27408
805.768	27138
805.91	27351
806.052	27382
806.194	27222
806.336	27466
806.478	27412
806.62	27405
806.762	27481
806.904	27572
807.046	27713
807.188	27713
807.33	27873
807.472	27675
807.614	27458
807.756	27690
807.898	27576
808.04	27675
808.182	27443
808.324	27648
808.465	27720
808.607	27911
808.749	27968
808.891	27998
809.033	28040
809.174	28078
809.316	27884
809.458	27975
809.6	27861
809.741	28086
809.883	28150
810.025	28185
810.166	28268
810.308	28234
810.45	28223
810.591	28048
810.733	28070
810.875	27857
811.016	27838
811.158	27838
811.299	27914
811.441	27994
811.582	28158
811.724	28021
811.865	27903
812.007	27835
812.148	27922
812.29	27949
812.431	28173
812.573	28253
812.714	28443
812.855	28398
812.997	28588
813.138	28687
813.279	28630
813.421	28500
813.562	28379
813.703	28527
813.845	28185
813.986	27861
814.127	27667
814.268	27652
814.41	27644
814.551	27797
814.692	27732
814.833	27542
814.974	27603
815.115	27717
815.256	27599
815.397	27660
815.539	27526
815.68	27530
815.821	27275
815.962	27496
816.103	27340
816.244	27291
816.385	27226
816.526	27138
816.666	27180
816.807	26777
816.948	27062
817.089	26940
817.23	27032
817.371	26849
817.512	26998
817.653	26956
817.793	26853
817.934	27077
818.075	26971
818.216	27085
818.356	26853
818.497	26891
818.638	26686
818.778	26712
818.919	26606
819.06	26701
819.2	26944
819.341	26963
819.481	27024
819.622	27081
819.762	27260
819.903	27310
820.043	27150
820.184	27028
820.324	27032
820.465	27214
820.605	27089
820.746	27017
820.886	26891
821.026	27062
821.167	26940
821.307	27062
821.447	26868
821.588	26925
821.728	26781
821.868	26533
822.008	26492
822.149	26499
822.289	26313
822.429	26168
822.569	26176
822.709	26084
822.849	25849
822.99	26073
823.13	25868
823.27	25936
823.41	25879
823.55	25655
823.69	25826
823.83	25666
823.97	25681
824.11	25552
824.25	25586
824.389	25491
824.529	25578
824.669	25540
824.809	25685
824.949	25635
825.089	25696
825.228	25624
825.368	25373
825.508	25373
825.648	25556
825.787	25438
825.927	25586
826.067	25491
826.206	25525
826.346	25479
826.485	25373
826.625	25453
826.765	25537
826.904	25525
827.044	25065
827.183	25221
827.323	25122
827.462	25263
827.601	25331
827.741	25179
827.88	25217
828.02	25114
828.159	25091
828.298	25183
828.437	25137
828.577	25076
828.716	25301
828.855	25015
828.994	24951
829.134	24791
829.273	24939
829.412	24901
829.551	24867
829.69	24943
829.829	24989
829.968	24989
830.107	24954
830.246	24989
830.385	24772
830.524	24707
830.663	24734
830.802	24703
830.941	24498
831.08	24391
831.219	24532
831.357	24589
831.496	24650
831.635	24528
831.774	24486
831.913	24342
832.051	24285
832.19	24353
832.329	24209
832.467	24083
832.606	24034
832.744	24098
832.883	24136
833.022	24133
833.16	24266
833.299	24133
833.437	24068
833.576	24152
833.714	24205
833.852	24300
833.991	24232
834.129	24353
834.267	24414
834.406	24209
834.544	24224
834.682	24197
834.821	24163
834.959	24334
835.097	24190
835.235	24243
835.373	24197
835.511	24163
835.65	24114
835.788	24022
835.926	23977
836.064	23939
836.202	23923
836.34	24110
836.478	24251
836.615	23961
836.753	24106
836.891	24136
837.029	24106
837.167	23961
837.305	24053
837.443	23901
837.58	23923
837.718	23988
837.856	23984
837.993	23882
838.131	24015
838.269	23760
838.406	23802
838.544	23680
838.681	23630
838.819	23539
838.956	23448
839.094	23531
839.231	23398
839.369	23596
839.506	23745
839.643	23653
839.781	23463
839.918	23391
840.055	23463
840.193	23223
840.33	23292
840.467	23395
840.604	23296
840.742	23512
840.879	23261
841.016	23181
841.153	23204
841.29	23398
841.427	23376
841.564	23330
841.701	23124
841.838	23318
841.975	23239
842.112	23174
842.249	23109
842.385	23098
842.522	23280
842.659	23060
842.796	23044
842.933	23067
843.069	22911
843.206	23014
843.343	23147
843.479	23098
843.616	23136
843.752	22881
843.889	22915
844.025	23083
844.162	22729
844.298	22881
844.435	22930
844.571	22805
844.708	22965
844.844	22995
844.98	22927
845.117	22953
845.253	22828
845.389	22634
845.525	22869
845.661	22668
845.798	22588
845.934	22588
846.07	22580
846.206	22641
846.342	22664
846.478	22516
846.614	22402
846.75	22280
846.886	22318
847.022	22363
847.158	22394
847.294	22318
847.429	22402
847.565	22253
847.701	22599
847.837	22044
847.972	22051
848.108	22181
848.244	22211
848.379	21937
848.515	21998
848.65	21987
848.786	21804
848.921	21873
849.057	21987
849.192	22002
849.328	21949
849.463	21907
849.598	21812
849.734	21736
849.869	21770
850.004	21736
850.14	21644
850.275	21652
850.41	21576
850.545	21633
850.68	21648
850.815	21671
850.95	21759
851.085	21838
851.22	21831
851.355	21698
851.49	21751
851.625	21614
851.76	21603
851.895	21492
852.03	21534
852.165	21663
852.299	21679
852.434	21770
852.569	21747
852.703	21682
852.838	21808
852.973	21759
853.107	21785
853.242	21690
853.376	21431
853.511	21473
853.645	21500
853.78	21641
853.914	21481
854.048	21439
854.183	21412
854.317	21595
854.451	21572
854.585	21450
854.72	21332
854.854	21515
854.988	21332
855.122	21500
855.256	21412
855.39	21580
855.524	21488
855.658	21504
855.792	21466
855.926	21473
856.06	21523
856.194	21606
856.327	21408
856.461	21526
856.595	21405
856.729	21420
856.862	21587
856.996	21488
857.13	21572
857.263	21553
857.397	21576
857.53	21549
857.664	21526
857.797	21500
857.931	21572
858.064	21606
858.197	21545
858.331	21401
858.464	21504
858.597	21359
858.731	21504
858.864	21545
858.997	21473
859.13	21466
859.263	21545
859.396	21530
859.529	21397
859.662	21466
859.795	21397
859.928	21488
860.061	21622
860.194	21675
860.327	21610
860.46	21466
860.592	21625
860.725	21660
860.858	21622
860.99	21458
861.123	21443
861.256	21504
861.388	21542
861.521	22207
861.653	21291
861.786	21252
861.918	21287
862.05	21439
862.183	21412
862.315	21435
862.447	21526
862.58	21374
862.712	21264
862.844	21135
862.976	21230
863.108	21359
863.24	21500
863.372	21123
863.504	21195
863.636	21241
863.768	21367
863.9	21241
864.032	21169
864.164	21199
864.296	21203
864.428	21336
864.559	21306
864.691	21245
864.823	21104
864.954	21294
865.086	21081
865.217	21108
865.349	21142
865.48	21085
865.612	21032
865.743	21283
865.875	21108
866.006	21066
866.137	20998
866.269	20975
866.4	20960
866.531	21043
866.662	21051
866.793	21032
866.924	21104
867.055	21142
867.186	21047
867.317	20941
867.448	21039
867.579	20914
867.71	20948
867.841	20963
867.972	20933
868.103	21093
868.233	21096
868.364	20990
868.495	21043
868.625	21363
868.756	21249
868.886	21283
869.017	21173
869.147	21310
869.278	21466
869.408	21279
869.539	21287
869.669	21313
869.799	21256
869.929	21344
870.06	21348
870.19	21515
870.32	21591
870.45	21595
870.58	21724
870.71	21755
870.84	21747
870.97	21656
871.1	21747
871.23	21827
871.36	21895
871.489	21747
871.619	21838
871.749	21880
871.879	21972
872.008	21922
872.138	21835
872.267	21819
872.397	21759
872.526	21595
872.656	21637
872.785	21671
872.915	21930
873.044	21949
873.173	21819
873.303	21983
873.432	21907
873.561	21918
873.69	21960
873.819	21850
873.948	21922
874.077	21781
874.206	21850
874.335	21903
874.464	21907
874.593	22219
874.722	21991
874.851	22112
874.979	22158
875.108	22082
875.237	22082
875.365	21949
875.494	22120
875.623	22135
875.751	22128
875.88	22188
876.008	22261
876.136	22398
876.265	22554
876.393	22554
876.521	22557
876.65	22603
876.778	22436
876.906	22478
877.034	22417
877.162	22417
877.29	22371
877.418	22481
877.546	22546
877.674	22394
877.802	22481
877.93	22382
878.058	22344
878.185	22291
878.313	22398
878.441	22375
878.568	22341
878.696	22356
878.824	22474
878.951	22557
879.079	22538
879.206	22706
879.333	22641
879.461	22497
879.588	22512
879.715	22466
879.842	22713
879.97	22459
880.097	22280
880.224	22253
880.351	22280
880.478	22322
880.605	22382
880.732	22253
880.859	22478
880.986	22333
881.112	22318
881.239	22181
881.366	22010
881.493	21911
881.619	21972
881.746	21846
881.872	21819
881.999	21865
882.125	21774
882.252	21945
882.378	21911
882.505	22059
882.631	21652
882.757	21583
882.883	21736
883.01	21553
883.136	21462
883.262	21466
883.388	21454
883.514	21614
883.64	21599
883.766	21504
883.892	21176
884.018	21329
884.143	21572
884.269	21591
884.395	21218
884.52	21119
884.646	21340
884.772	21195
884.897	21066
885.023	21199
885.148	21329
885.274	21386
885.399	21252
885.524	21237
885.65	21154
885.775	21184
885.9	21085
886.025	21374
886.15	21275
886.275	21180
886.4	21138
886.525	21173
886.65	21203
886.775	21188
886.9	21298
887.025	21397
887.149	21294
887.274	20975
887.399	20982
887.523	21020
887.648	20944
887.773	20906
887.897	20952
888.021	21093
888.146	20872
888.27	21096
888.395	21013
888.519	21089
888.643	21024
888.767	21093
888.891	20899
889.015	20830
889.139	20857
889.263	20899
889.387	20994
889.511	21039
889.635	20918
889.759	20781
889.883	20739
890.006	20773
890.13	20830
890.254	20708
890.377	20648
890.501	20549
890.624	20537
890.748	20564
890.871	20556
890.995	20404
891.118	20374
891.241	20412
891.364	20263
891.488	20514
891.611	20431
891.734	20294
891.857	20404
891.98	20267
892.103	20419
892.226	20305
892.349	20263
892.471	20103
892.594	20191
892.717	20374
892.839	20259
892.962	20301
893.085	20199
893.207	20153
893.33	20214
893.452	20199
893.575	20332
893.697	20271
893.819	20473
893.941	20499
894.064	20317
894.186	20191
894.308	20199
894.43	20267
894.552	20393
894.674	20332
894.796	20111
894.918	20271
895.04	20237
895.161	20339
895.283	20275
895.405	20050
895.526	20313
895.648	20145
895.769	20252
895.891	20244
896.012	20237
896.134	20431
896.255	20237
896.376	20191
896.498	20298
896.619	20199
896.74	20214
896.861	20252
896.982	20507
897.103	20674
897.224	20560
897.345	20419
897.466	20419
897.587	20461
897.708	20549
897.828	20454
897.949	20488
898.07	20313
898.19	20240
898.311	20484
898.431	20408
898.552	20488
898.672	20571
898.792	20442
898.913	20507
899.033	20320
899.153	20275
899.273	20126
899.393	20271
899.513	20180
899.633	20233
899.753	20221
899.873	20008
899.993	20237
900.113	20153
900.232	20267
900.352	20050
900.472	20005
900.591	19947
900.711	19959
900.83	19932
900.95	20100
901.069	20024
901.189	19822
901.308	19651
901.427	19373
901.546	19445
901.665	19476
901.784	19563
901.904	19460
902.023	19343
902.141	19118
902.26	19114
902.379	19129
902.498	18951
902.617	19031
902.735	19168
902.854	18989
902.973	18924
903.091	18738
903.21	18688
903.328	18700
903.446	18650
903.565	18498
903.683	18483
903.801	18509
903.919	18486
904.038	18593
904.156	18327
904.274	18342
904.392	18262
904.51	18144
904.627	18410
904.745	18456
904.863	18311
904.981	18114
905.098	18041
905.216	17988
905.334	17980
905.451	17965
905.569	17904
905.686	18003
905.803	18003
905.921	17794
906.038	17969
906.155	17714
906.272	17767
906.389	17657
906.506	17566
906.623	17482
906.74	17592
906.857	17455
906.974	17391
907.091	17497
907.208	17573
907.324	17547
907.441	17372
907.557	17166
907.674	17277
907.79	17128
907.907	17185
908.023	17303
908.139	17193
908.256	17197
908.372	17060
908.488	17083
908.604	16911
908.72	16812
908.836	17014
908.952	16927
909.068	16938
909.184	16987
909.3	16987
909.415	16957
909.531	16809
909.647	16679
909.762	16637
909.878	16668
909.993	16584
910.108	16656
910.224	16550
910.339	16554
910.454	16451
910.57	16493
910.685	16390
910.8	16664
910.915	16596
911.03	16459
911.145	16242
911.259	16303
911.374	16192
911.489	16101
911.604	16032
911.718	15983
911.833	16116
911.947	15819
912.062	15888
912.176	15975
912.291	15979
912.405	15915
912.519	16234
912.633	16105
912.748	15895
912.862	15972
912.976	15785
913.09	15732
913.204	15819
913.318	15842
913.431	15804
913.545	15907
913.659	15835
913.772	15686
913.886	15618
914	15622
914.113	15739
914.226	15736
914.34	15679
914.453	15526
914.566	15637
914.68	15496
914.793	15424
914.906	15317
915.019	15135
915.132	15249
915.245	15230
915.358	15245
915.47	15298
915.583	15214
915.696	15173
915.809	15344
915.921	15340
916.034	15169
916.146	15154
916.259	15123
916.371	15161
916.483	15207
916.595	15020
916.708	15165
916.82	14979
916.932	15028
917.044	15047
917.156	15077
917.268	14861
917.38	14804
917.491	14670
917.603	14929
917.715	14902
917.826	14921
917.938	14811
918.049	14811
918.161	14754
918.272	14929
918.384	14925
918.495	14830
918.606	14632
918.717	14606
918.828	14674
918.939	14583
919.05	14556
919.161	14518
919.272	14522
919.383	14408
919.494	14556
919.604	14754
919.715	14598
919.826	14564
919.936	14526
920.047	14560
920.157	14533
920.267	14663
920.378	14655
920.488	14511
920.598	14792
920.708	14834
920.818	14686
920.928	14689
921.038	14853
921.148	14781
921.258	14476
921.368	14465
921.477	14358
921.587	14271
921.697	14218
921.806	14339
921.916	14111
922.025	13978
922.134	13940
922.244	13917
922.353	13917
922.462	13772
922.571	13731
922.68	13597
922.789	13609
922.898	13537
923.007	13506
923.116	13613
923.224	13483
923.333	13658
923.442	13430
923.55	13381
923.659	13415
923.767	13445
923.876	13274
923.984	13438
924.092	13324
924.201	13350
924.309	13312
924.417	13316
924.525	13263
924.633	13244
924.741	14176
924.849	12970
924.956	13160
925.064	13057
925.172	12901
925.279	12916
925.387	12951
925.494	13004
925.602	13088
925.709	13012
925.816	12966
925.924	12943
926.031	13023
926.138	12901
926.245	13072
926.352	12943
926.459	13050
926.566	13027
926.673	12829
926.779	12707
926.886	12696
926.993	12665
927.099	12631
927.206	12536
927.312	12532
927.419	12559
927.525	12631
927.631	12627
927.737	12467
927.843	12372
927.95	12224
928.056	12399
928.162	12369
928.267	12460
928.373	13057
928.479	12448
928.585	12228
928.69	12281
928.796	12338
928.901	12308
929.007	12182
929.112	12178
929.218	12251
929.323	12136
929.428	12087
929.533	12209
929.638	11977
929.743	12034
929.848	12110
929.953	11965
930.058	11939
930.163	11752
930.267	11775
930.372	11969
930.477	11729
930.581	12041
930.685	11813
930.79	11653
930.894	11729
930.998	11661
931.103	11813
931.207	11387
931.311	11330
931.415	11273
931.519	11113
931.623	11033
