Data from test_V78500241_1348.txt Node
Date: Fri Mar 25 15:19:14 CST 2022
User: usil
Spectrometer: V785-0024
Trigger mode: 0
Integration Time (sec): 4.000000E-1
Scans to average: 1
Nonlinearity correction enabled: false
Boxcar width: 0
Storing dark spectrum: false
XAxis mode: Wavelengths
Number of Pixels in Spectrum: 1024
>>>>>Begin Spectral Data<<<<<
801.071	28158
801.214	27991
801.356	27899
801.499	27876
801.641	27778
801.783	27652
801.926	27709
802.068	27812
802.211	27755
802.353	27587
802.496	27367
802.638	27264
802.78	27310
802.923	27272
803.065	27317
803.208	27370
803.35	27321
803.492	27496
803.635	27507
803.777	27416
803.919	27652
804.061	27914
804.204	27641
804.346	27504
804.488	27462
804.63	27530
804.773	27386
804.915	27690
805.057	27603
805.199	27462
805.341	27671
805.483	27705
805.626	27671
805.768	27637
805.91	27698
806.052	27755
806.194	27625
806.336	27998
806.478	27755
806.62	27709
806.762	27800
806.904	28086
807.046	28268
807.188	28048
807.33	28162
807.472	28238
807.614	28090
807.756	28162
807.898	27968
808.04	27987
808.182	28006
808.324	28059
808.465	28124
808.607	28150
808.749	28310
808.891	28489
809.033	28493
809.174	28401
809.316	28310
809.458	28371
809.6	28333
809.741	28417
809.883	28573
810.025	28702
810.166	28641
810.308	28755
810.45	28618
810.591	28550
810.733	28542
810.875	28466
811.016	28181
811.158	28360
811.299	28405
811.441	28573
811.582	28352
811.724	28382
811.865	28352
812.007	28386
812.148	28341
812.29	28390
812.431	28493
812.573	28634
812.714	28691
812.855	28888
812.997	29014
813.138	29166
813.279	29029
813.421	28820
813.562	28843
813.703	28656
813.845	28573
813.986	28390
814.127	28287
814.268	28082
814.41	28082
814.551	28048
814.692	28086
814.833	27918
814.974	28032
815.115	28154
815.256	27865
815.397	27892
815.539	27899
815.68	27778
815.821	27797
815.962	27994
816.103	27804
816.244	27724
816.385	27564
816.526	27648
816.666	27435
816.807	27416
816.948	27412
817.089	27443
817.23	27405
817.371	27272
817.512	27351
817.653	27310
817.793	27302
817.934	27408
818.075	27317
818.216	27298
818.356	27317
818.497	27180
818.638	27207
818.778	27119
818.919	27142
819.06	27199
819.2	27226
819.341	27386
819.481	27420
819.622	27485
819.762	27682
819.903	27682
820.043	27439
820.184	27439
820.324	27393
820.465	27431
820.605	27443
820.746	27427
820.886	27317
821.026	27412
821.167	27363
821.307	27389
821.447	27344
821.588	27207
821.728	27169
821.868	26857
822.008	26880
822.149	26804
822.289	26868
822.429	26560
822.569	26503
822.709	26503
822.849	26393
822.99	26438
823.13	26298
823.27	26206
823.41	26218
823.55	25902
823.69	26202
823.83	26134
823.97	26043
824.11	25917
824.25	25860
824.389	25921
824.529	26005
824.669	26031
824.809	26107
824.949	26050
825.089	26100
825.228	25970
825.368	25791
825.508	25856
825.648	25784
825.787	25951
825.927	25932
826.067	25898
826.206	25772
826.346	25879
826.485	25795
826.625	25830
826.765	25944
826.904	25811
827.044	25647
827.183	25632
827.323	25700
827.462	25578
827.601	25472
827.741	25586
827.88	25567
828.02	25377
828.159	25552
828.298	25537
828.437	25704
828.577	25533
828.716	25647
828.855	25483
828.994	25377
829.134	25377
829.273	25346
829.412	25114
829.551	25168
829.69	25164
829.829	25282
829.968	25358
830.107	25358
830.246	25206
830.385	25244
830.524	25183
830.663	25057
830.802	24928
830.941	24882
831.08	24951
831.219	24989
831.357	24833
831.496	25126
831.635	24829
831.774	24833
831.913	24669
832.051	24688
832.19	24665
832.329	24604
832.467	24544
832.606	24544
832.744	24559
832.883	24410
833.022	24555
833.16	24593
833.299	24448
833.437	24642
833.576	24787
833.714	24715
833.852	24692
833.991	24741
834.129	24738
834.267	24654
834.406	24715
834.544	24700
834.682	24517
834.821	24547
834.959	24681
835.097	24513
835.235	24620
835.373	24521
835.511	24555
835.65	24422
835.788	24494
835.926	24334
836.064	24334
836.202	24182
836.34	24486
836.478	24525
836.615	24517
836.753	24330
836.891	24395
837.029	24509
837.167	24350
837.305	24350
837.443	24258
837.58	24232
837.718	24391
837.856	24292
837.993	24159
838.131	24190
838.269	24049
838.406	24110
838.544	24068
838.681	24015
838.819	23950
838.956	23722
839.094	23676
839.231	23866
839.369	23939
839.506	24163
839.643	24045
839.781	23718
839.918	23600
840.055	23642
840.193	23726
840.33	23786
840.467	23752
840.604	23691
840.742	23954
840.879	23528
841.016	23528
841.153	23524
841.29	23703
841.427	23707
841.564	23729
841.701	23623
841.838	23573
841.975	23554
842.112	23558
842.249	23531
842.385	23455
842.522	23608
842.659	23516
842.796	23452
842.933	23436
843.069	23334
843.206	23452
843.343	23516
843.479	23395
843.616	23376
843.752	23261
843.889	23326
844.025	23303
844.162	23147
844.298	23284
844.435	23159
844.571	23102
844.708	23235
844.844	23212
844.98	23124
845.117	23391
845.253	23071
845.389	22976
845.525	23143
845.661	22968
845.798	22942
845.934	23018
846.07	22923
846.206	22927
846.342	23010
846.478	22934
846.614	22653
846.75	22527
846.886	22584
847.022	22637
847.158	22649
847.294	22535
847.429	22729
847.565	22630
847.701	22839
847.837	22295
847.972	22295
848.108	22493
848.244	22523
848.379	22188
848.515	22257
848.65	22181
848.786	22310
848.921	22238
849.057	22306
849.192	22310
849.328	22131
849.463	22196
849.598	22192
849.734	22055
849.869	22078
850.004	21987
850.14	22162
850.275	21941
850.41	21903
850.545	22032
850.68	21907
850.815	22025
850.95	21968
851.085	22265
851.22	22067
851.355	21975
851.49	21998
851.625	21873
851.76	21918
851.895	21857
852.03	21854
852.165	21895
852.299	22036
852.434	22074
852.569	21922
852.703	21968
852.838	22040
852.973	22131
853.107	22143
853.242	21987
853.376	21770
853.511	21774
853.645	21778
853.78	21911
853.914	21800
854.048	21816
854.183	21781
854.317	21781
854.451	21930
854.585	21838
854.72	21907
854.854	21838
854.988	21808
855.122	21755
855.256	21644
855.39	21728
855.524	21857
855.658	21861
855.792	21956
855.926	21797
856.06	21835
856.194	22017
856.327	21675
856.461	21819
856.595	21865
856.729	21739
856.862	21835
856.996	21869
857.13	21899
857.263	21953
857.397	21953
857.53	21915
857.664	21800
857.797	21945
857.931	21880
858.064	21838
858.197	21945
858.331	21774
858.464	21774
858.597	21618
858.731	21728
858.864	21675
858.997	21774
859.13	21793
859.263	21819
859.396	21979
859.529	21686
859.662	21736
859.795	21812
859.928	21762
860.061	21968
860.194	21926
860.327	21873
860.46	21922
860.592	21941
860.725	22017
860.858	21915
860.99	21816
861.123	21644
861.256	21660
861.388	21785
861.521	22299
861.653	21652
861.786	21523
861.918	21671
862.05	21724
862.183	21637
862.315	21800
862.447	21835
862.58	21656
862.712	21511
862.844	21416
862.976	21625
863.108	21614
863.24	21857
863.372	21450
863.504	21485
863.636	21405
863.768	21507
863.9	21526
864.032	21500
864.164	21485
864.296	21526
864.428	21610
864.559	21534
864.691	21625
864.823	21412
864.954	21526
865.086	21580
865.217	21428
865.349	21469
865.48	21458
865.612	21462
865.743	21523
865.875	21462
866.006	21306
866.137	21443
866.269	21351
866.4	21332
866.531	21344
866.662	21348
866.793	21317
866.924	21294
867.055	21348
867.186	21408
867.317	21222
867.448	21283
867.579	21405
867.71	21226
867.841	21207
867.972	21260
868.103	21424
868.233	21340
868.364	21431
868.495	21504
868.625	21492
868.756	21698
868.886	21485
869.017	21557
869.147	21713
869.278	21599
869.408	21492
869.539	21496
869.669	21545
869.799	21618
869.929	21603
870.06	21694
870.19	21854
870.32	21770
870.45	21857
870.58	21934
870.71	22059
870.84	21979
870.97	22070
871.1	21930
871.23	22192
871.36	22093
871.489	22006
871.619	22192
871.749	22101
871.879	22048
872.008	22257
872.138	22101
872.267	22143
872.397	21994
872.526	21892
872.656	21994
872.785	22002
872.915	22181
873.044	22188
873.173	22143
873.303	22207
873.432	22177
873.561	22379
873.69	22272
873.819	22185
873.948	22109
874.077	22169
874.206	22124
874.335	22128
874.464	22367
874.593	22504
874.722	22265
874.851	22428
874.979	22481
875.108	22493
875.237	22219
875.365	22344
875.494	22325
875.623	22455
875.751	22230
875.88	22432
876.008	22580
876.136	22432
876.265	22687
876.393	22927
876.521	22820
876.65	22816
876.778	22717
876.906	22656
877.034	22729
877.162	22774
877.29	22641
877.418	22801
877.546	22755
877.674	22706
877.802	22713
877.93	22854
878.058	22702
878.185	22569
878.313	22698
878.441	22801
878.568	22603
878.696	22683
878.824	22778
878.951	22706
879.079	22812
879.206	22999
879.333	22881
879.461	22771
879.588	22835
879.715	22831
879.842	22976
879.97	22790
880.097	22405
880.224	22519
880.351	22519
880.478	22622
880.605	22462
880.732	22599
880.859	22755
880.986	22546
881.112	22443
881.239	22489
881.366	22295
881.493	22150
881.619	22078
881.746	22242
881.872	22181
881.999	21956
882.125	22036
882.252	22166
882.378	21960
882.505	22166
882.631	21934
882.757	21903
882.883	21766
883.01	21907
883.136	21819
883.262	21553
883.388	21595
883.514	21682
883.64	21907
883.766	21720
883.892	21580
884.018	21633
884.143	21743
884.269	21835
884.395	21610
884.52	21450
884.646	21515
884.772	21424
884.897	21355
885.023	21496
885.148	21549
885.274	21610
885.399	21481
885.524	21435
885.65	21428
885.775	21454
885.9	21431
886.025	21545
886.15	21538
886.275	21408
886.4	21332
886.525	21363
886.65	21355
886.775	21245
886.9	21564
887.025	21656
887.149	21466
887.274	21317
887.399	21291
887.523	21104
887.648	21161
887.773	21157
887.897	21340
888.021	21237
888.146	21013
888.27	21237
888.395	21287
888.519	21252
888.643	21192
888.767	21230
888.891	21100
889.015	21039
889.139	21028
889.263	21017
889.387	21055
889.511	21195
889.635	21055
889.759	21001
889.883	20906
890.006	21062
890.13	21005
890.254	20925
890.377	20971
890.501	20910
890.624	20781
890.748	20777
890.871	20727
890.995	20545
891.118	20446
891.241	20663
891.364	20617
891.488	20724
891.611	20579
891.734	20697
891.857	20583
891.98	20465
892.103	20693
892.226	20575
892.349	20469
892.471	20396
892.594	20473
892.717	20522
892.839	20556
892.962	20457
893.085	20503
893.207	20454
893.33	20389
893.452	20366
893.575	20480
893.697	20366
893.819	20617
893.941	20712
894.064	20537
894.186	20385
894.308	20408
894.43	20476
894.552	20537
894.674	20590
894.796	20381
894.918	20381
895.04	20476
895.161	20632
895.283	20465
895.405	20469
895.526	20431
895.648	20400
895.769	20537
895.891	20446
896.012	20590
896.134	20446
896.255	20434
896.376	20385
896.498	20568
896.619	20590
896.74	20389
896.861	20594
896.982	20705
897.103	20762
897.224	20750
897.345	20819
897.466	20503
897.587	20644
897.708	20750
897.828	20746
897.949	20644
898.07	20347
898.19	20514
898.311	20777
898.431	20625
898.552	20667
898.672	20590
898.792	20739
898.913	20712
899.033	20579
899.153	20530
899.273	20336
899.393	20393
899.513	20339
899.633	20320
899.753	20446
899.873	20263
899.993	20412
900.113	20343
900.232	20423
900.352	20278
900.472	20214
900.591	20081
900.711	20206
900.83	20062
900.95	20377
901.069	20317
901.189	19936
901.308	19875
901.427	19689
901.546	19746
901.665	19753
901.784	19772
901.904	19609
902.023	19540
902.141	19255
902.26	19312
902.379	19331
902.498	19263
902.617	19274
902.735	19282
902.854	19335
902.973	19202
903.091	18920
903.21	19031
903.328	18814
903.446	18829
903.565	18806
903.683	18776
903.801	18646
903.919	18684
904.038	18715
904.156	18566
904.274	18563
904.392	18357
904.51	18604
904.627	18483
904.745	18566
904.863	18604
904.981	18289
905.098	18110
905.216	18133
905.334	18159
905.451	18155
905.569	18015
905.686	18133
905.803	18095
905.921	17977
906.038	18129
906.155	17927
906.272	17843
906.389	17901
906.506	17779
906.623	17707
906.74	17615
906.857	17547
906.974	17642
907.091	17733
907.208	17771
907.324	17726
907.441	17585
907.557	17395
907.674	17455
907.79	17315
907.907	17360
908.023	17444
908.139	17391
908.256	17345
908.372	17288
908.488	17368
908.604	17170
908.72	17083
908.836	17170
908.952	17041
909.068	17181
909.184	17292
909.3	17178
909.415	17159
909.531	17105
909.647	16881
909.762	16850
909.878	16744
909.993	16919
910.108	16824
910.224	16725
910.339	16790
910.454	16691
910.57	16679
910.685	16615
910.8	16892
910.915	16713
911.03	16664
911.145	16550
911.259	16413
911.374	16443
911.489	16417
911.604	16318
911.718	16314
911.833	16303
911.947	16002
912.062	16029
912.176	16139
912.291	16112
912.405	16135
912.519	16234
912.633	16284
912.748	16158
912.862	16116
912.976	16010
913.09	15876
913.204	16021
913.318	16120
913.431	16105
913.545	16010
913.659	16147
913.772	16010
913.886	15861
914	15774
914.113	15911
914.226	15899
914.34	15827
914.453	15679
914.566	15713
914.68	15679
914.793	15663
914.906	15462
915.019	15424
915.132	15317
915.245	15317
915.358	15412
915.47	15389
915.583	15302
915.696	15412
915.809	15454
915.921	15488
916.034	15313
916.146	15252
916.259	15310
916.371	15294
916.483	15317
916.595	15157
916.708	15146
916.82	15173
916.932	15180
917.044	15214
917.156	15127
917.268	14952
917.38	14994
917.491	15077
917.603	15169
917.715	15081
917.826	15047
917.938	14906
918.049	14895
918.161	14979
918.272	15097
918.384	15070
918.495	14853
918.606	14815
918.717	14724
918.828	14743
918.939	14689
919.05	14667
919.161	14720
919.272	14625
919.383	14606
919.494	14674
919.604	14982
919.715	14602
919.826	14659
919.936	14693
920.047	14765
920.157	14762
920.267	14891
920.378	14777
920.488	14777
920.598	14804
920.708	15001
920.818	14868
920.928	14777
921.038	15009
921.148	14872
921.258	14682
921.368	14686
921.477	14495
921.587	14431
921.697	14377
921.806	14476
921.916	14324
922.025	14199
922.134	14134
922.244	14043
922.353	14077
922.462	13989
922.571	13887
922.68	13723
922.789	13670
922.898	13655
923.007	13742
923.116	13708
923.224	13864
923.333	13738
923.442	13616
923.55	13609
923.659	13582
923.767	13575
923.876	13381
923.984	13567
924.092	13464
924.201	13537
924.309	13529
924.417	13605
924.525	13362
924.633	13304
924.741	14134
924.849	13225
924.956	13335
925.064	13168
925.172	13217
925.279	13088
925.387	13099
925.494	13015
925.602	13301
925.709	13152
925.816	13050
925.924	13031
926.031	13168
926.138	13065
926.245	13175
926.352	12985
926.459	13053
926.566	13103
926.673	12943
926.779	12852
926.886	12905
926.993	12711
927.099	12753
927.206	12612
927.312	12700
927.419	12738
927.525	12715
927.631	12692
927.737	12589
927.843	12486
927.95	12422
928.056	12486
928.162	12498
928.267	12483
928.373	13171
928.479	12601
928.585	12342
928.69	12486
928.796	12486
928.901	12277
929.007	12239
929.112	12350
929.218	12365
929.323	12350
929.428	12224
929.533	12380
929.638	12213
929.743	12178
929.848	12205
929.953	12163
930.058	11992
930.163	11969
930.267	11958
930.372	12038
930.477	11920
930.581	12125
930.685	12015
930.79	11870
930.894	11821
930.998	11805
931.103	11927
931.207	11528
931.311	11493
931.415	11360
931.519	11170
931.623	11204
