Data from test_V78500241_1178.txt Node
Date: Fri Mar 25 15:18:03 CST 2022
User: usil
Spectrometer: V785-0024
Trigger mode: 0
Integration Time (sec): 4.000000E-1
Scans to average: 1
Nonlinearity correction enabled: false
Boxcar width: 0
Storing dark spectrum: false
XAxis mode: Wavelengths
Number of Pixels in Spectrum: 1024
>>>>>Begin Spectral Data<<<<<
801.071	27911
801.214	27682
801.356	27549
801.499	27450
801.641	27363
801.783	27367
801.926	27458
802.068	27454
802.211	27230
802.353	27313
802.496	27195
802.638	27112
802.78	27116
802.923	27020
803.065	26940
803.208	27085
803.35	26952
803.492	27119
803.635	27226
803.777	27123
803.919	27291
804.061	27587
804.204	27294
804.346	27176
804.488	27161
804.63	27287
804.773	27214
804.915	27157
805.057	27401
805.199	27180
805.341	27447
805.483	27332
805.626	27481
805.768	27230
805.91	27317
806.052	27329
806.194	27302
806.336	27603
806.478	27302
806.62	27405
806.762	27534
806.904	27644
807.046	27781
807.188	27785
807.33	27800
807.472	27808
807.614	27595
807.756	27694
807.898	27622
808.04	27572
808.182	27504
808.324	27698
808.465	27667
808.607	27911
808.749	27926
808.891	28143
809.033	28067
809.174	28143
809.316	27914
809.458	28086
809.6	28055
809.741	28139
809.883	28253
810.025	28348
810.166	28207
810.308	28215
810.45	28215
810.591	28249
810.733	28070
810.875	28070
811.016	27975
811.158	27873
811.299	28162
811.441	28086
811.582	28116
811.724	28124
811.865	27899
812.007	27998
812.148	27892
812.29	27953
812.431	28276
812.573	28398
812.714	28447
812.855	28432
812.997	28634
813.138	28706
813.279	28592
813.421	28459
813.562	28535
813.703	28325
813.845	28112
813.986	27987
814.127	27812
814.268	27751
814.41	27812
814.551	27568
814.692	27930
814.833	27603
814.974	27663
815.115	27770
815.256	27587
815.397	27515
815.539	27542
815.68	27610
815.821	27458
815.962	27523
816.103	27572
816.244	27389
816.385	27241
816.526	27370
816.666	27173
816.807	27081
816.948	27146
817.089	27150
817.23	26861
817.371	26994
817.512	27017
817.653	27047
817.793	26963
817.934	26918
818.075	27039
818.216	26975
818.356	26861
818.497	26887
818.638	26823
818.778	26689
818.919	26663
819.06	26804
819.2	26781
819.341	26967
819.481	27005
819.622	27173
819.762	27367
819.903	27222
820.043	27112
820.184	27176
820.324	27169
820.465	27222
820.605	27066
820.746	27161
820.886	26914
821.026	26998
821.167	27138
821.307	27272
821.447	27062
821.588	27032
821.728	26880
821.868	26693
822.008	26568
822.149	26469
822.289	26488
822.429	26225
822.569	26134
822.709	26267
822.849	26088
822.99	26073
823.13	25864
823.27	26005
823.41	25731
823.55	25731
823.69	25761
823.83	25841
823.97	25719
824.11	25685
824.25	25613
824.389	25696
824.529	25662
824.669	25635
824.809	25845
824.949	25799
825.089	25757
825.228	25632
825.368	25438
825.508	25689
825.648	25575
825.787	25464
825.927	25632
826.067	25499
826.206	25491
826.346	25499
826.485	25544
826.625	25518
826.765	25582
826.904	25438
827.044	25228
827.183	25168
827.323	25282
827.462	25331
827.601	25198
827.741	25255
827.88	25259
828.02	25141
828.159	25198
828.298	25316
828.437	25171
828.577	25156
828.716	25381
828.855	25206
828.994	24977
829.134	25038
829.273	24943
829.412	25000
829.551	24939
829.69	24954
829.829	25122
829.968	25008
830.107	24958
830.246	24886
830.385	24992
830.524	24871
830.663	24787
830.802	24757
830.941	24559
831.08	24639
831.219	24673
831.357	24711
831.496	24749
831.635	24604
831.774	24601
831.913	24384
832.051	24270
832.19	24334
832.329	24403
832.467	24186
832.606	24311
832.744	24254
832.883	24281
833.022	24201
833.16	24243
833.299	24289
833.437	24372
833.576	24315
833.714	24254
833.852	24448
833.991	24346
834.129	24445
834.267	24365
834.406	24285
834.544	24330
834.682	24254
834.821	24201
834.959	24418
835.097	24258
835.235	24365
835.373	24388
835.511	24330
835.65	24182
835.788	24201
835.926	24022
836.064	23920
836.202	24018
836.34	24251
836.478	24224
836.615	24182
836.753	24213
836.891	24235
837.029	24057
837.167	24053
837.305	24072
837.443	23999
837.58	23923
837.718	24106
837.856	24114
837.993	23927
838.131	23992
838.269	23927
838.406	23843
838.544	23961
838.681	23676
838.819	23672
838.956	23516
839.094	23398
839.231	23543
839.369	23653
839.506	23809
839.643	23756
839.781	23528
839.918	23360
840.055	23463
840.193	23471
840.33	23299
840.467	23425
840.604	23448
840.742	23547
840.879	23303
841.016	23372
841.153	23242
841.29	23448
841.427	23455
841.564	23391
841.701	23322
841.838	23402
841.975	23242
842.112	23368
842.249	23132
842.385	23033
842.522	23288
842.659	23235
842.796	23250
842.933	23189
843.069	23170
843.206	23117
843.343	23193
843.479	23025
843.616	23151
843.752	22942
843.889	22831
844.025	23044
844.162	22904
844.298	23075
844.435	22980
844.571	22866
844.708	22930
844.844	23029
844.98	23269
845.117	22995
845.253	22908
845.389	22847
845.525	22820
845.661	22748
845.798	22615
845.934	22752
846.07	22748
846.206	22706
846.342	22812
846.478	22618
846.614	22432
846.75	22276
846.886	22478
847.022	22440
847.158	22402
847.294	22402
847.429	22432
847.565	22303
847.701	22588
847.837	22105
847.972	22021
848.108	22306
848.244	22135
848.379	21937
848.515	21876
848.65	21991
848.786	21968
848.921	22078
849.057	22215
849.192	22032
849.328	21945
849.463	21983
849.598	22017
849.734	21918
849.869	21903
850.004	21835
850.14	21842
850.275	21865
850.41	21713
850.545	21762
850.68	21778
850.815	21812
850.95	21842
851.085	21922
851.22	21854
851.355	21838
851.49	21797
851.625	21797
851.76	21637
851.895	21633
852.03	21587
852.165	21728
852.299	21759
852.434	21873
852.569	21774
852.703	21698
852.838	21907
852.973	21937
853.107	21960
853.242	21770
853.376	21614
853.511	21500
853.645	21648
853.78	21701
853.914	21610
854.048	21504
854.183	21583
854.317	21652
854.451	21713
854.585	21481
854.72	21591
854.854	21770
854.988	21587
855.122	21580
855.256	21458
855.39	21431
855.524	21576
855.658	21717
855.792	21663
855.926	21660
856.06	21580
856.194	21644
856.327	21519
856.461	21435
856.595	21458
856.729	21473
856.862	21698
856.996	21637
857.13	21641
857.263	21660
857.397	21629
857.53	21473
857.664	21724
857.797	21622
857.931	21648
858.064	21629
858.197	21644
858.331	21549
858.464	21549
858.597	21454
858.731	21515
858.864	21481
858.997	21401
859.13	21496
859.263	21553
859.396	21705
859.529	21534
859.662	21679
859.795	21591
859.928	21507
860.061	21724
860.194	21732
860.327	21591
860.46	21435
860.592	21762
860.725	21591
860.858	21701
860.99	21557
861.123	21507
861.256	21572
861.388	21576
861.521	22363
861.653	21370
861.786	21447
861.918	21450
862.05	21492
862.183	21545
862.315	21572
862.447	21511
862.58	21473
862.712	21298
862.844	21230
862.976	21325
863.108	21294
863.24	21530
863.372	21192
863.504	21329
863.636	21306
863.768	21374
863.9	21408
864.032	21252
864.164	21226
864.296	21241
864.428	21416
864.559	21348
864.691	21355
864.823	21321
864.954	21203
865.086	21268
865.217	21256
865.349	21138
865.48	21127
865.612	21108
865.743	21279
865.875	21211
866.006	21279
866.137	21249
866.269	21100
866.4	21180
866.531	21013
866.662	20990
866.793	21131
866.924	21112
867.055	21062
867.186	21123
867.317	20948
867.448	20948
867.579	21047
867.71	21051
867.841	21116
867.972	20994
868.103	21108
868.233	21173
868.364	21131
868.495	21173
868.625	21306
868.756	21561
868.886	21348
869.017	21469
869.147	21287
869.278	21450
869.408	21393
869.539	21283
869.669	21344
869.799	21359
869.929	21477
870.06	21538
870.19	21599
870.32	21694
870.45	21751
870.58	21759
870.71	21873
870.84	21762
870.97	21572
871.1	21873
871.23	21983
871.36	21979
871.489	21918
871.619	21926
871.749	21956
871.879	21972
872.008	21991
872.138	21869
872.267	21888
872.397	21800
872.526	21804
872.656	21755
872.785	21816
872.915	22036
873.044	22017
873.173	21972
873.303	22105
873.432	21991
873.561	21949
873.69	22093
873.819	21873
873.948	22013
874.077	21930
874.206	21968
874.335	21903
874.464	22090
874.593	22238
874.722	22181
874.851	22166
874.979	22238
875.108	22173
875.237	22128
875.365	22154
875.494	22131
875.623	22352
875.751	22154
875.88	22219
876.008	22447
876.136	22436
876.265	22675
876.393	22660
876.521	22736
876.65	22645
876.778	22630
876.906	22519
877.034	22455
877.162	22546
877.29	22459
877.418	22626
877.546	22561
877.674	22462
877.802	22421
877.93	22500
878.058	22478
878.185	22447
878.313	22405
878.441	22481
878.568	22322
878.696	22470
878.824	22527
878.951	22550
879.079	22679
879.206	22831
879.333	22687
879.461	22584
879.588	22706
879.715	22672
879.842	22694
879.97	22523
880.097	22379
880.224	22337
880.351	22382
880.478	22405
880.605	22341
880.732	22382
880.859	22653
880.986	22329
881.112	22238
881.239	22257
881.366	22124
881.493	22070
881.619	22032
881.746	21949
881.872	21991
881.999	21873
882.125	21861
882.252	22010
882.378	21861
882.505	21941
882.631	21785
882.757	21728
882.883	21564
883.01	21701
883.136	21561
883.262	21443
883.388	21435
883.514	21564
883.64	21698
883.766	21591
883.892	21321
884.018	21382
884.143	21561
884.269	21690
884.395	21412
884.52	21249
884.646	21325
884.772	21294
884.897	21207
885.023	21351
885.148	21317
885.274	21397
885.399	21386
885.524	21275
885.65	21188
885.775	21211
885.9	21252
886.025	21344
886.15	21272
886.275	21123
886.4	21146
886.525	21344
886.65	21123
886.775	21142
886.9	21386
887.025	21496
887.149	21214
887.274	20998
887.399	21032
887.523	20998
887.648	20998
887.773	20910
887.897	21104
888.021	21070
888.146	21017
888.27	21077
888.395	21157
888.519	21096
888.643	21032
888.767	20994
888.891	20937
889.015	20899
889.139	20948
889.263	20724
889.387	21077
889.511	21032
889.635	20925
889.759	20823
889.883	20834
890.006	20823
890.13	20937
890.254	20796
890.377	20796
890.501	20670
890.624	20511
890.748	20708
890.871	20393
890.995	20385
891.118	20218
891.241	20423
891.364	20423
891.488	20488
891.611	20473
891.734	20370
891.857	20469
891.98	20484
892.103	20480
892.226	20275
892.349	20377
892.471	20126
892.594	20244
892.717	20419
892.839	20298
892.962	20339
893.085	20404
893.207	20176
893.33	20225
893.452	20271
893.575	20317
893.697	20389
893.819	20385
893.941	20454
894.064	20305
894.186	20244
894.308	20134
894.43	20240
894.552	20427
894.674	20214
894.796	20221
894.918	20240
895.04	20214
895.161	20256
895.283	20381
895.405	20244
895.526	20176
895.648	20256
895.769	20381
895.891	20309
896.012	20309
896.134	20309
896.255	20290
896.376	20138
896.498	20396
896.619	20248
896.74	20225
896.861	20381
896.982	20667
897.103	20659
897.224	20590
897.345	20537
897.466	20450
897.587	20431
897.708	20670
897.828	20507
897.949	20476
898.07	20343
898.19	20408
898.311	20514
898.431	20301
898.552	20469
898.672	20606
898.792	20602
898.913	20587
899.033	20362
899.153	20275
899.273	20176
899.393	20248
899.513	20286
899.633	20229
899.753	20130
899.873	20084
899.993	20278
900.113	20145
900.232	20233
900.352	20187
900.472	20039
900.591	19925
900.711	20058
900.83	19951
900.95	20073
901.069	20119
901.189	19989
901.308	19689
901.427	19582
901.546	19582
901.665	19616
901.784	19590
901.904	19400
902.023	19362
902.141	19274
902.26	19061
902.379	19232
902.498	19031
902.617	19065
902.735	19164
902.854	18935
902.973	18939
903.091	18703
903.21	18688
903.328	18726
903.446	18734
903.565	18486
903.683	18612
903.801	18471
903.919	18479
904.038	18509
904.156	18342
904.274	18475
904.392	18334
904.51	18304
904.627	18262
904.745	18281
904.863	18384
904.981	18136
905.098	17969
905.216	18064
905.334	18068
905.451	18064
905.569	18003
905.686	18015
905.803	18038
905.921	17855
906.038	17935
906.155	17775
906.272	17592
906.389	17794
906.506	17543
906.623	17516
906.74	17551
906.857	17440
906.974	17497
907.091	17642
907.208	17668
907.324	17577
907.441	17387
907.557	17296
907.674	17269
907.79	17216
907.907	17227
908.023	17151
908.139	17227
908.256	17143
908.372	17166
908.488	17159
908.604	17014
908.72	16927
908.836	16930
908.952	17025
909.068	16942
909.184	16953
909.3	17033
909.415	16972
909.531	16873
909.647	16763
909.762	16771
909.878	16675
909.993	16687
910.108	16717
910.224	16694
910.339	16706
910.454	16603
910.57	16504
910.685	16459
910.8	16618
910.915	16565
911.03	16421
911.145	16375
911.259	16230
911.374	16390
911.489	16211
911.604	16200
911.718	15956
911.833	16055
911.947	15838
912.062	15850
912.176	16002
912.291	15979
912.405	15922
912.519	16158
912.633	16131
912.748	16097
912.862	15941
912.976	15812
913.09	15717
913.204	15751
913.318	15945
913.431	15835
913.545	15949
913.659	15972
913.772	15747
913.886	15530
914	15614
914.113	15755
914.226	15751
914.34	15663
914.453	15542
914.566	15561
914.68	15526
914.793	15488
914.906	15294
915.019	15245
915.132	15138
915.245	15279
915.358	15249
915.47	15272
915.583	15249
915.696	15260
915.809	15367
915.921	15272
916.034	15131
916.146	15241
916.259	15039
916.371	15203
916.483	15195
916.595	15154
916.708	15119
916.82	15039
916.932	14986
917.044	14956
917.156	14921
917.268	14838
917.38	14925
917.491	14861
917.603	14906
917.715	15009
917.826	14952
917.938	14785
918.049	14750
918.161	14792
918.272	15020
918.384	14952
918.495	14739
918.606	14792
918.717	14575
918.828	14724
918.939	14659
919.05	14575
919.161	14610
919.272	14374
919.383	14434
919.494	14575
919.604	14712
919.715	14613
919.826	14488
919.936	14594
920.047	14697
920.157	14571
920.267	14773
920.378	14579
920.488	14613
920.598	14701
920.708	14952
920.818	14735
920.928	14648
921.038	14872
921.148	14895
921.258	14419
921.368	14465
921.477	14347
921.587	14233
921.697	14149
921.806	14347
921.916	14183
922.025	14062
922.134	13978
922.244	13928
922.353	13932
922.462	13890
922.571	13742
922.68	13575
922.789	13636
922.898	13590
923.007	13487
923.116	13685
923.224	13563
923.333	13601
923.442	13499
923.55	13468
923.659	13499
923.767	13441
923.876	13392
923.984	13438
924.092	13373
924.201	13384
924.309	13339
924.417	13331
924.525	13244
924.633	13320
924.741	14263
924.849	13088
924.956	13171
925.064	13057
925.172	12882
925.279	12977
925.387	13050
925.494	13000
925.602	13149
925.709	13050
925.816	12924
925.924	12951
926.031	12981
926.138	13000
926.245	13076
926.352	12909
926.459	12993
926.566	13091
926.673	12840
926.779	12776
926.886	12757
926.993	12627
927.099	12601
927.206	12517
927.312	12566
927.419	12616
927.525	12570
927.631	12536
927.737	12528
927.843	12403
927.95	12304
928.056	12395
928.162	12494
928.267	12490
928.373	12951
928.479	12483
928.585	12289
928.69	12380
928.796	12357
928.901	12342
929.007	12148
929.112	12289
929.218	12296
929.323	12178
929.428	12178
929.533	12239
929.638	12114
929.743	12072
929.848	12098
929.953	12034
930.058	11901
930.163	11756
930.267	11737
930.372	12019
930.477	11745
930.581	12053
930.685	11946
930.79	11707
930.894	11718
930.998	11695
931.103	11836
931.207	11532
931.311	11296
931.415	11364
931.519	11132
931.623	11045
