Data from test_V78500241_2267.txt Node
Date: Fri Mar 25 15:25:38 CST 2022
User: usil
Spectrometer: V785-0024
Trigger mode: 0
Integration Time (sec): 4.000000E-1
Scans to average: 1
Nonlinearity correction enabled: false
Boxcar width: 0
Storing dark spectrum: false
XAxis mode: Wavelengths
Number of Pixels in Spectrum: 1024
>>>>>Begin Spectral Data<<<<<
801.071	27660
801.214	27507
801.356	27245
801.499	27211
801.641	27039
801.783	27161
801.926	27100
802.068	27150
802.211	27020
802.353	26914
802.496	26956
802.638	26880
802.78	26792
802.923	26701
803.065	26720
803.208	26811
803.35	26773
803.492	26929
803.635	26971
803.777	26777
803.919	26853
804.061	27233
804.204	27032
804.346	26929
804.488	26861
804.63	26849
804.773	26735
804.915	26982
805.057	27165
805.199	26857
805.341	26998
805.483	27039
805.626	27119
805.768	27093
805.91	27062
806.052	27135
806.194	27024
806.336	27176
806.478	27017
806.62	27001
806.762	27252
806.904	27294
807.046	27462
807.188	27580
807.33	27496
807.472	27447
807.614	27332
807.756	27447
807.898	27351
808.04	27313
808.182	27310
808.324	27344
808.465	27332
808.607	27572
808.749	27698
808.891	27675
809.033	27835
809.174	27827
809.316	27587
809.458	27618
809.6	27709
809.741	27739
809.883	27793
810.025	27949
810.166	27865
810.308	27918
810.45	27914
810.591	27911
810.733	27660
810.875	27564
811.016	27447
811.158	27507
811.299	27652
811.441	27800
811.582	27732
811.724	27561
811.865	27515
812.007	27591
812.148	27656
812.29	27720
812.431	27800
812.573	27907
812.714	28006
812.855	28135
812.997	28204
813.138	28379
813.279	28341
813.421	28192
813.562	28215
813.703	27987
813.845	27812
813.986	27622
814.127	27485
814.268	27332
814.41	27477
814.551	27188
814.692	27393
814.833	27165
814.974	27374
815.115	27306
815.256	27116
815.397	27207
815.539	27359
815.68	27165
815.821	26902
815.962	27260
816.103	27108
816.244	26979
816.385	26872
816.526	26861
816.666	26773
816.807	26560
816.948	26739
817.089	26807
817.23	26571
817.371	26625
817.512	26655
817.653	26617
817.793	26598
817.934	26530
818.075	26537
818.216	26590
818.356	26541
818.497	26377
818.638	26396
818.778	26343
818.919	26423
819.06	26412
819.2	26351
819.341	26598
819.481	26682
819.622	26697
819.762	26963
819.903	26849
820.043	26720
820.184	26579
820.324	26758
820.465	26788
820.605	26552
820.746	26686
820.886	26644
821.026	26678
821.167	26636
821.307	26708
821.447	26583
821.588	26621
821.728	26355
821.868	26202
822.008	26043
822.149	26039
822.289	26077
822.429	25818
822.569	25849
822.709	25632
822.849	25563
822.99	25616
823.13	25468
823.27	25540
823.41	25403
823.55	25327
823.69	25407
823.83	25335
823.97	25304
824.11	25198
824.25	25118
824.389	25133
824.529	25263
824.669	25114
824.809	25373
824.949	25457
825.089	25145
825.228	25259
825.368	25110
825.508	24981
825.648	24989
825.787	25084
825.927	25027
826.067	24951
826.206	25042
826.346	25110
826.485	25118
826.625	25053
826.765	25213
826.904	25145
827.044	24901
827.183	24821
827.323	24878
827.462	24779
827.601	24791
827.741	24760
827.88	24726
828.02	24604
828.159	24798
828.298	24764
828.437	24772
828.577	24669
828.716	24928
828.855	24661
828.994	24475
829.134	24551
829.273	24490
829.412	24452
829.551	24471
829.69	24467
829.829	24441
829.968	24403
830.107	24429
830.246	24597
830.385	24380
830.524	24407
830.663	24323
830.802	24133
830.941	24041
831.08	23984
831.219	24171
831.357	24133
831.496	24330
831.635	24136
831.774	24007
831.913	23859
832.051	23813
832.19	23946
832.329	23889
832.467	23771
832.606	23729
832.744	23741
832.883	23756
833.022	23737
833.16	23741
833.299	23851
833.437	23707
833.576	23931
833.714	23786
833.852	23851
833.991	23836
834.129	23927
834.267	23832
834.406	23805
834.544	23817
834.682	23843
834.821	23809
834.959	24049
835.097	23817
835.235	23893
835.373	23798
835.511	23726
835.65	23676
835.788	23752
835.926	23535
836.064	23410
836.202	23478
836.34	23562
836.478	23680
836.615	23634
836.753	23539
836.891	23695
837.029	23608
837.167	23558
837.305	23501
837.443	23444
837.58	23531
837.718	23452
837.856	23417
837.993	23303
838.131	23463
838.269	23322
838.406	23353
838.544	23239
838.681	23159
838.819	23098
838.956	22930
839.094	23022
839.231	22972
839.369	23018
839.506	23292
839.643	23185
839.781	22904
839.918	22862
840.055	22999
840.193	22908
840.33	23025
840.467	22816
840.604	22915
840.742	23044
840.879	22691
841.016	22816
841.153	22622
841.29	22961
841.427	22805
841.564	22866
841.701	22801
841.838	22816
841.975	22805
842.112	22824
842.249	22736
842.385	22611
842.522	22812
842.659	22752
842.796	22664
842.933	22527
843.069	22538
843.206	22516
843.343	22538
843.479	22607
843.616	22481
843.752	22421
843.889	22421
844.025	22508
844.162	22402
844.298	22413
844.435	22386
844.571	22310
844.708	22451
844.844	22516
844.98	22512
845.117	22470
845.253	22394
845.389	22325
845.525	22390
845.661	22207
845.798	22093
845.934	22196
846.07	22059
846.206	22230
846.342	22223
846.478	22204
846.614	21823
846.75	21857
846.886	21873
847.022	21953
847.158	21949
847.294	21964
847.429	21998
847.565	21823
847.701	22143
847.837	21644
847.972	21587
848.108	21595
848.244	21682
848.379	21393
848.515	21386
848.65	21435
848.786	21583
848.921	21557
849.057	21530
849.192	21644
849.328	21614
849.463	21298
849.598	21359
849.734	21428
849.869	21260
850.004	21142
850.14	21195
850.275	21351
850.41	21108
850.545	21116
850.68	21146
850.815	21195
850.95	21146
851.085	21473
851.22	21283
851.355	21313
851.49	21119
851.625	21135
851.76	21123
851.895	21184
852.03	21131
852.165	21188
852.299	21233
852.434	21294
852.569	21283
852.703	21252
852.838	21283
852.973	21313
853.107	21344
853.242	21165
853.376	21066
853.511	20921
853.645	20960
853.78	21157
853.914	21116
854.048	20960
854.183	20982
854.317	21100
854.451	21180
854.585	20937
854.72	21009
854.854	21093
854.988	21032
855.122	20994
855.256	20838
855.39	20986
855.524	21100
855.658	21108
855.792	21036
855.926	21081
856.06	21154
856.194	21055
856.327	20929
856.461	20944
856.595	20902
856.729	21020
856.862	21165
856.996	21043
857.13	21001
857.263	21142
857.397	21047
857.53	20967
857.664	20967
857.797	21047
857.931	21138
858.064	21070
858.197	21279
858.331	21005
858.464	20937
858.597	20933
858.731	21047
858.864	21127
858.997	20998
859.13	20998
859.263	20941
859.396	21146
859.529	20948
859.662	20895
859.795	20956
859.928	21062
860.061	21123
860.194	21211
860.327	21039
860.46	21154
860.592	21161
860.725	21161
860.858	21176
860.99	21089
861.123	21017
861.256	20902
861.388	21066
861.521	21728
861.653	20876
861.786	20895
861.918	20807
862.05	20998
862.183	21039
862.315	20891
862.447	21017
862.58	20941
862.712	20781
862.844	20697
862.976	20834
863.108	20804
863.24	21123
863.372	20796
863.504	20655
863.636	20712
863.768	20876
863.9	20682
864.032	20533
864.164	20716
864.296	20686
864.428	20826
864.559	20807
864.691	20792
864.823	20758
864.954	20792
865.086	20727
865.217	20716
865.349	20541
865.48	20514
865.612	20621
865.743	20773
865.875	20769
866.006	20682
866.137	20674
866.269	20640
866.4	20507
866.531	20568
866.662	20488
866.793	20674
866.924	20488
867.055	20636
867.186	20587
867.317	20587
867.448	20431
867.579	20629
867.71	20533
867.841	20484
867.972	20590
868.103	20423
868.233	20587
868.364	20621
868.495	20526
868.625	20777
868.756	20990
868.886	20792
869.017	20849
869.147	20929
869.278	20891
869.408	20880
869.539	20712
869.669	20864
869.799	20777
869.929	20971
870.06	21077
870.19	21207
870.32	21214
870.45	21077
870.58	21154
870.71	21389
870.84	21351
870.97	21207
871.1	21161
871.23	21420
871.36	21462
871.489	21336
871.619	21340
871.749	21393
871.879	21428
872.008	21523
872.138	21401
872.267	21340
872.397	21306
872.526	21192
872.656	21325
872.785	21287
872.915	21477
873.044	21511
873.173	21351
873.303	21439
873.432	21473
873.561	21351
873.69	21401
873.819	21492
873.948	21534
874.077	21447
874.206	21466
874.335	21393
874.464	21568
874.593	21633
874.722	21587
874.851	21686
874.979	21675
875.108	21660
875.237	21614
875.365	21568
875.494	21648
875.623	21663
875.751	21622
875.88	21701
876.008	21804
876.136	21865
876.265	22086
876.393	22265
876.521	22173
876.65	22063
876.778	22055
876.906	21941
877.034	21895
877.162	22090
877.29	22055
877.418	22154
877.546	22002
877.674	22116
877.802	22078
877.93	21983
878.058	21869
878.185	21876
878.313	22025
878.441	21975
878.568	21816
878.696	22029
878.824	21937
878.951	22158
879.079	21994
879.206	22204
879.333	22135
879.461	22051
879.588	22124
879.715	22135
879.842	22154
879.97	21983
880.097	21819
880.224	21945
880.351	21846
880.478	21747
880.605	21808
880.732	21857
880.859	21998
880.986	21793
881.112	21926
881.239	21709
881.366	21488
881.493	21606
881.619	21454
881.746	21428
881.872	21530
881.999	21359
882.125	21336
882.252	21447
882.378	21374
882.505	21393
882.631	21294
882.757	21226
882.883	21203
883.01	21062
883.136	21100
883.262	20986
883.388	20868
883.514	21135
883.64	21218
883.766	21032
883.892	20887
884.018	20910
884.143	21036
884.269	21127
884.395	20906
884.52	20811
884.646	20880
884.772	20667
884.897	20617
885.023	20743
885.148	20853
885.274	20925
885.399	20887
885.524	20834
885.65	20716
885.775	20754
885.9	20667
886.025	20788
886.15	20868
886.275	20693
886.4	20686
886.525	20678
886.65	20556
886.775	20670
886.9	20849
887.025	20849
887.149	20727
887.274	20537
887.399	20522
887.523	20518
887.648	20454
887.773	20259
887.897	20518
888.021	20621
888.146	20522
888.27	20609
888.395	20594
888.519	20571
888.643	20648
888.767	20590
888.891	20503
889.015	20282
889.139	20404
889.263	20324
889.387	20419
889.511	20705
889.635	20434
889.759	20294
889.883	20282
890.006	20278
890.13	20305
890.254	20229
890.377	20187
890.501	20134
890.624	20145
890.748	20153
890.871	19932
890.995	19868
891.118	19799
891.241	19860
891.364	20073
891.488	20050
891.611	19947
891.734	19982
891.857	20062
891.98	19928
892.103	19883
892.226	20016
892.349	19890
892.471	19639
892.594	19811
892.717	19799
892.839	19712
892.962	19826
893.085	19883
893.207	19906
893.33	19681
893.452	19772
893.575	19833
893.697	19795
893.819	19944
893.941	20050
894.064	20062
894.186	19830
894.308	19704
894.43	19871
894.552	19887
894.674	19947
894.796	19734
894.918	19689
895.04	19841
895.161	19879
895.283	19845
895.405	19788
895.526	19818
895.648	19833
895.769	19841
895.891	19822
896.012	19841
896.134	19864
896.255	19830
896.376	19887
896.498	19875
896.619	19814
896.74	19807
896.861	19963
896.982	20142
897.103	20256
897.224	20065
897.345	20081
897.466	20031
897.587	20092
897.708	20229
897.828	20073
897.949	20069
898.07	19917
898.19	20020
898.311	20191
898.431	19993
898.552	20050
898.672	20115
898.792	20088
898.913	20058
899.033	19944
899.153	19761
899.273	19677
899.393	19875
899.513	19849
899.633	19803
899.753	19849
899.873	19784
899.993	19925
900.113	19811
900.232	19830
900.352	19708
900.472	19529
900.591	19499
900.711	19586
900.83	19548
900.95	19772
901.069	19567
901.189	19441
901.308	19251
901.427	19114
901.546	19304
901.665	19164
901.784	19190
901.904	18989
902.023	18875
902.141	18764
902.26	18768
902.379	18730
902.498	18741
902.617	18642
902.735	18673
902.854	18696
902.973	18574
903.091	18365
903.21	18422
903.328	18418
903.446	18334
903.565	18190
903.683	18216
903.801	18022
903.919	18171
904.038	18102
904.156	18011
904.274	18003
904.392	17961
904.51	17961
904.627	17824
904.745	17980
904.863	18030
904.981	17760
905.098	17566
905.216	17638
905.334	17691
905.451	17585
905.569	17558
905.686	17642
905.803	17627
905.921	17516
906.038	17554
906.155	17459
906.272	17303
906.389	17220
906.506	17193
906.623	17208
906.74	17121
906.857	17045
906.974	17064
907.091	17170
907.208	17322
907.324	17094
907.441	17048
907.557	16866
907.674	16843
907.79	16805
907.907	16877
908.023	16869
908.139	16843
908.256	16835
908.372	16801
908.488	16630
908.604	16542
908.72	16630
908.836	16607
908.952	16546
909.068	16584
909.184	16725
909.3	16668
909.415	16596
909.531	16531
909.647	16382
909.762	16265
909.878	16158
909.993	16344
910.108	16185
910.224	16253
910.339	16276
910.454	16135
910.57	16032
910.685	16067
910.8	16314
910.915	16219
911.03	16006
911.145	15964
911.259	15823
911.374	15808
911.489	15831
911.604	15778
911.718	15679
911.833	15660
911.947	15576
912.062	15412
912.176	15663
912.291	15698
912.405	15633
912.519	15835
912.633	15804
912.748	15618
912.862	15686
912.976	15420
913.09	15325
913.204	15355
913.318	15405
913.431	15500
913.545	15504
913.659	15557
913.772	15428
913.886	15291
914	15249
914.113	15344
914.226	15389
914.34	15321
914.453	14998
914.566	15344
914.68	15127
914.793	15043
914.906	14914
915.019	14971
915.132	14788
915.245	14921
915.358	14899
915.47	14864
915.583	14849
915.696	14838
915.809	15032
915.921	14986
916.034	14765
916.146	14781
916.259	14720
916.371	14921
916.483	14876
916.595	14655
916.708	14708
916.82	14785
916.932	14686
917.044	14655
917.156	14625
917.268	14602
917.38	14571
917.491	14492
917.603	14587
917.715	14674
917.826	14670
917.938	14556
918.049	14404
918.161	14442
918.272	14659
918.384	14667
918.495	14503
918.606	14294
918.717	14282
918.828	14396
918.939	14374
919.05	14263
919.161	14271
919.272	14081
919.383	14218
919.494	14465
919.604	14457
919.715	14320
919.826	14134
919.936	14210
920.047	14343
920.157	14263
920.267	14419
920.378	14317
920.488	14267
920.598	14339
920.708	14552
920.818	14457
920.928	14488
921.038	14583
921.148	14492
921.258	14267
921.368	14050
921.477	14020
921.587	14031
921.697	13830
921.806	13959
921.916	13811
922.025	13670
922.134	13628
922.244	13655
922.353	13605
922.462	13563
922.571	13396
922.68	13213
922.789	13304
922.898	13251
923.007	13183
923.116	13369
923.224	13206
923.333	13251
923.442	13175
923.55	13240
923.659	13145
923.767	13198
923.876	13023
923.984	13095
924.092	13088
924.201	13122
924.309	13061
924.417	12970
924.525	12897
924.633	13000
924.741	13734
924.849	12791
924.956	12935
925.064	12772
925.172	12692
925.279	12677
925.387	12703
925.494	12722
925.602	12814
925.709	12760
925.816	12700
925.924	12730
926.031	12741
926.138	12707
926.245	12703
926.352	12677
926.459	12627
926.566	12711
926.673	12692
926.779	12509
926.886	12498
926.993	12277
927.099	12350
927.206	12228
927.312	12338
927.419	12334
927.525	12239
927.631	12277
927.737	12304
927.843	12175
927.95	12114
928.056	12034
928.162	12102
928.267	12224
928.373	12825
928.479	12205
928.585	11950
928.69	12125
928.796	12007
928.901	11977
929.007	11863
929.112	12087
929.218	11901
929.323	11920
929.428	11824
929.533	11969
929.638	11779
929.743	11809
929.848	11843
929.953	11745
930.058	11691
930.163	11520
930.267	11570
930.372	11688
930.477	11471
930.581	11684
930.685	11646
930.79	11478
930.894	11364
930.998	11528
931.103	11486
931.207	11212
931.311	11109
931.415	10953
931.519	10812
931.623	10900
