Data from test_V78500241_3276.txt Node
Date: Fri Mar 25 15:32:40 CST 2022
User: usil
Spectrometer: V785-0024
Trigger mode: 0
Integration Time (sec): 4.000000E-1
Scans to average: 1
Nonlinearity correction enabled: false
Boxcar width: 0
Storing dark spectrum: false
XAxis mode: Wavelengths
Number of Pixels in Spectrum: 1024
>>>>>Begin Spectral Data<<<<<
801.071	27332
801.214	27230
801.356	27058
801.499	26880
801.641	26880
801.783	26686
801.926	26925
802.068	26880
802.211	26807
802.353	26716
802.496	26552
802.638	26511
802.78	26495
802.923	26492
803.065	26233
803.208	26423
803.35	26419
803.492	26705
803.635	26762
803.777	26530
803.919	26659
804.061	26826
804.204	26849
804.346	26598
804.488	26583
804.63	26594
804.773	26511
804.915	26689
805.057	26674
805.199	26602
805.341	26617
805.483	26880
805.626	26697
805.768	26663
805.91	26918
806.052	26804
806.194	26815
806.336	26845
806.478	26655
806.62	26811
806.762	26830
806.904	26990
807.046	27279
807.188	27173
807.33	27287
807.472	27165
807.614	27294
807.756	27188
807.898	27070
808.04	26868
808.182	27005
808.324	27028
808.465	27039
808.607	27070
808.749	27382
808.891	27401
809.033	27515
809.174	27374
809.316	27344
809.458	27397
809.6	27329
809.741	27523
809.883	27408
810.025	27652
810.166	27656
810.308	27530
810.45	27641
810.591	27534
810.733	27363
810.875	27348
811.016	27291
811.158	27294
811.299	27408
811.441	27587
811.582	27610
811.724	27370
811.865	27222
812.007	27268
812.148	27294
812.29	27420
812.431	27443
812.573	27694
812.714	27652
812.855	27911
812.997	27914
813.138	28036
813.279	27842
813.421	27812
813.562	27797
813.703	27743
813.845	27473
813.986	27332
814.127	27119
814.268	27074
814.41	27077
814.551	27020
814.692	27032
814.833	26971
814.974	26910
815.115	26952
815.256	26880
815.397	26990
815.539	26849
815.68	26868
815.821	26785
815.962	26758
816.103	26640
816.244	26651
816.385	26651
816.526	26537
816.666	26351
816.807	26282
816.948	26240
817.089	26446
817.23	26381
817.371	26221
817.512	26286
817.653	26218
817.793	26240
817.934	26142
818.075	26317
818.216	26366
818.356	26183
818.497	26092
818.638	26031
818.778	26096
818.919	25997
819.06	26005
819.2	26199
819.341	26282
819.481	26180
819.622	26518
819.762	26667
819.903	26484
820.043	26438
820.184	26309
820.324	26389
820.465	26541
820.605	26408
820.746	26366
820.886	26324
821.026	26408
821.167	26202
821.307	26393
821.447	26271
821.588	26290
821.728	26077
821.868	25932
822.008	25753
822.149	25761
822.289	25791
822.429	25571
822.569	25464
822.709	25331
822.849	25331
822.99	25183
823.13	25251
823.27	25320
823.41	25000
823.55	24989
823.69	25141
823.83	25084
823.97	24909
824.11	24894
824.25	24753
824.389	24916
824.529	24878
824.669	24882
824.809	25042
824.949	24966
825.089	24939
825.228	25031
825.368	24757
825.508	24715
825.648	24863
825.787	24856
825.927	24837
826.067	24719
826.206	24817
826.346	24878
826.485	24810
826.625	24837
826.765	24924
826.904	24787
827.044	24597
827.183	24471
827.323	24388
827.462	24445
827.601	24418
827.741	24445
827.88	24460
828.02	24403
828.159	24460
828.298	24464
828.437	24471
828.577	24429
828.716	24661
828.855	24232
828.994	24205
829.134	24224
829.273	24216
829.412	24213
829.551	24182
829.69	24243
829.829	24178
829.968	24232
830.107	24338
830.246	24209
830.385	24091
830.524	23897
830.663	24007
830.802	23927
830.941	23885
831.08	23737
831.219	23790
831.357	23748
831.496	23980
831.635	23855
831.774	23665
831.913	23653
832.051	23539
832.19	23623
832.329	23562
832.467	23520
832.606	23372
832.744	23349
832.883	23524
833.022	23307
833.16	23570
833.299	23558
833.437	23490
833.576	23634
833.714	23467
833.852	23509
833.991	23570
834.129	23547
834.267	23493
834.406	23604
834.544	23535
834.682	23547
834.821	23615
834.959	23764
835.097	23589
835.235	23497
835.373	23528
835.511	23501
835.65	23398
835.788	23433
835.926	23235
836.064	23235
836.202	23261
836.34	23379
836.478	23330
836.615	23318
836.753	23330
836.891	23562
837.029	23391
837.167	23429
837.305	23311
837.443	23166
837.58	23391
837.718	23299
837.856	23303
837.993	23181
838.131	23212
838.269	23056
838.406	23174
838.544	23159
838.681	22953
838.819	22991
838.956	22809
839.094	22725
839.231	22866
839.369	22908
839.506	23105
839.643	22953
839.781	22706
839.918	22569
840.055	22752
840.193	22744
840.33	22683
840.467	22733
840.604	22641
840.742	22942
840.879	22588
841.016	22748
841.153	22596
841.29	22675
841.427	22561
841.564	22675
841.701	22725
841.838	22664
841.975	22569
842.112	22687
842.249	22455
842.385	22462
842.522	22611
842.659	22569
842.796	22485
842.933	22443
843.069	22356
843.206	22394
843.343	22481
843.479	22371
843.616	22421
843.752	22261
843.889	22280
844.025	22325
844.162	22044
844.298	22314
844.435	22287
844.571	22299
844.708	22093
844.844	22447
844.98	22204
845.117	22211
845.253	22169
845.389	21937
845.525	22055
845.661	22002
845.798	21964
845.934	22002
846.07	21819
846.206	21964
846.342	22112
846.478	21876
846.614	21747
846.75	21728
846.886	21603
847.022	21762
847.158	21694
847.294	21675
847.429	21770
847.565	21587
847.701	21960
847.837	21545
847.972	21348
848.108	21386
848.244	21496
848.379	21245
848.515	21203
848.65	21203
848.786	21268
848.921	21283
849.057	21317
849.192	21363
849.328	21351
849.463	21230
849.598	21294
849.734	21203
849.869	21222
850.004	21055
850.14	21093
850.275	21108
850.41	20963
850.545	21055
850.68	21001
850.815	21127
850.95	21005
851.085	21161
851.22	21135
851.355	21017
851.49	20948
851.625	21047
851.76	20982
851.895	21024
852.03	20990
852.165	20914
852.299	21096
852.434	21142
852.569	21066
852.703	20998
852.838	21028
852.973	21066
853.107	21123
853.242	21051
853.376	20819
853.511	20842
853.645	20868
853.78	21062
853.914	20853
854.048	20876
854.183	20944
854.317	20883
854.451	20998
854.585	20769
854.72	20750
854.854	20819
854.988	20876
855.122	20845
855.256	20762
855.39	20781
855.524	21036
855.658	20842
855.792	20967
855.926	20986
856.06	20910
856.194	20967
856.327	20743
856.461	20807
856.595	20800
856.729	20800
856.862	20990
856.996	20952
857.13	20902
857.263	20998
857.397	20933
857.53	20773
857.664	20861
857.797	20845
857.931	20982
858.064	21047
858.197	20937
858.331	20921
858.464	20754
858.597	20826
858.731	20815
858.864	20811
858.997	20845
859.13	20842
859.263	20845
859.396	20963
859.529	20830
859.662	20667
859.795	20800
859.928	20906
860.061	20929
860.194	21024
860.327	20906
860.46	20807
860.592	20781
860.725	21066
860.858	20963
860.99	20667
861.123	20845
861.256	20811
861.388	20857
861.521	21367
861.653	20800
861.786	20617
861.918	20727
862.05	20720
862.183	20750
862.315	20739
862.447	20853
862.58	20655
862.712	20549
862.844	20495
862.976	20697
863.108	20762
863.24	21180
863.372	20568
863.504	20537
863.636	20575
863.768	20621
863.9	20552
864.032	20545
864.164	20541
864.296	20545
864.428	20648
864.559	20640
864.691	20655
864.823	20556
864.954	20651
865.086	20568
865.217	20473
865.349	20450
865.48	20511
865.612	20393
865.743	20678
865.875	20465
866.006	20480
866.137	20434
866.269	20495
866.4	20389
866.531	20484
866.662	20336
866.793	20385
866.924	20480
867.055	20514
867.186	20503
867.317	20389
867.448	20320
867.579	20427
867.71	20237
867.841	20400
867.972	20370
868.103	20438
868.233	20457
868.364	20381
868.495	20484
868.625	20720
868.756	20705
868.886	20674
869.017	20602
869.147	20815
869.278	20743
869.408	20670
869.539	20731
869.669	20727
869.799	20750
869.929	20895
870.06	20781
870.19	20986
870.32	21074
870.45	21100
870.58	21100
870.71	21169
870.84	21192
870.97	21024
871.1	21093
871.23	21203
871.36	21344
871.489	21157
871.619	21161
871.749	21241
871.879	21279
872.008	21416
872.138	21222
872.267	21211
872.397	21150
872.526	21176
872.656	21127
872.785	21051
872.915	21237
873.044	21374
873.173	21283
873.303	21435
873.432	21325
873.561	21443
873.69	21287
873.819	21116
873.948	21260
874.077	21233
874.206	21302
874.335	21135
874.464	21298
874.593	21485
874.722	21534
874.851	21530
874.979	21549
875.108	21625
875.237	21549
875.365	21420
875.494	21408
875.623	21595
875.751	21504
875.88	21454
876.008	21663
876.136	21675
876.265	21880
876.393	22082
876.521	22124
876.65	22105
876.778	21945
876.906	22013
877.034	21812
877.162	21911
877.29	21812
877.418	21888
877.546	22002
877.674	21774
877.802	21953
877.93	21857
878.058	21816
878.185	21724
878.313	21876
878.441	21778
878.568	21755
878.696	21911
878.824	22032
878.951	21861
879.079	22063
879.206	22055
879.333	22051
879.461	21838
879.588	21953
879.715	22124
879.842	22143
879.97	22093
880.097	21641
880.224	21648
880.351	21614
880.478	21663
880.605	21747
880.732	21686
880.859	21907
880.986	21701
881.112	21759
881.239	21766
881.366	21435
881.493	21370
881.619	21374
881.746	21355
881.872	21287
881.999	21195
882.125	21173
882.252	21329
882.378	21169
882.505	21351
882.631	21081
882.757	21070
882.883	21116
883.01	21146
883.136	20971
883.262	20788
883.388	20838
883.514	20921
883.64	21013
883.766	20819
883.892	20792
884.018	20853
884.143	20845
884.269	21070
884.395	20792
884.52	20727
884.646	20765
884.772	20552
884.897	20606
885.023	20617
885.148	20811
885.274	20815
885.399	20777
885.524	20571
885.65	20758
885.775	20746
885.9	20602
886.025	20625
886.15	20746
886.275	20598
886.4	20564
886.525	20465
886.65	20450
886.775	20590
886.9	20746
887.025	20811
887.149	20571
887.274	20309
887.399	20442
887.523	20457
887.648	20412
887.773	20317
887.897	20507
888.021	20488
888.146	20362
888.27	20518
888.395	20522
888.519	20434
888.643	20389
888.767	20377
888.891	20339
889.015	20214
889.139	20313
889.263	20206
889.387	20377
889.511	20465
889.635	20252
889.759	20248
889.883	20195
890.006	20237
890.13	20180
890.254	20084
890.377	20244
890.501	19974
890.624	19940
890.748	19925
890.871	19860
890.995	19731
891.118	19807
891.241	19658
891.364	19788
891.488	19765
891.611	19826
891.734	19856
891.857	19955
891.98	19795
892.103	19932
892.226	19693
892.349	19662
892.471	19681
892.594	19643
892.717	19753
892.839	19712
892.962	19674
893.085	19818
893.207	19814
893.33	19624
893.452	19670
893.575	19814
893.697	19712
893.819	19921
893.941	19936
894.064	19833
894.186	19647
894.308	19616
894.43	19860
894.552	19993
894.674	19757
894.796	19609
894.918	19651
895.04	19567
895.161	19784
895.283	19757
895.405	19609
895.526	19719
895.648	19814
895.769	19803
895.891	19693
896.012	19704
896.134	19761
896.255	19814
896.376	19685
896.498	19643
896.619	19769
896.74	19693
896.861	19742
896.982	19906
897.103	20301
897.224	20027
897.345	19970
897.466	19799
897.587	19940
897.708	20054
897.828	20005
897.949	19879
898.07	19788
898.19	19871
898.311	19993
898.431	19852
898.552	19963
898.672	19974
898.792	20100
898.913	19940
899.033	19761
899.153	19753
899.273	19586
899.393	19723
899.513	19681
899.633	19613
899.753	19712
899.873	19556
899.993	19731
900.113	19605
900.232	19605
900.352	19563
900.472	19472
900.591	19392
900.711	19354
900.83	19400
900.95	19544
901.069	19597
901.189	19316
901.308	19114
901.427	19137
901.546	19057
901.665	18989
901.784	19080
901.904	18996
902.023	18856
902.141	18696
902.26	18639
902.379	18768
902.498	18578
902.617	18555
902.735	18494
902.854	18528
902.973	18445
903.091	18262
903.21	18186
903.328	18213
903.446	18228
903.565	18106
903.683	17939
903.801	18068
903.919	17889
904.038	18125
904.156	17821
904.274	17779
904.392	17779
904.51	17665
904.627	17783
904.745	17824
904.863	17920
904.981	17657
905.098	17490
905.216	17471
905.334	17520
905.451	17391
905.569	17436
905.686	17615
905.803	17512
905.921	17360
906.038	17471
906.155	17345
906.272	17212
906.389	17159
906.506	17052
906.623	17048
906.74	17090
906.857	16900
906.974	16961
907.091	17056
907.208	17033
907.324	17003
907.441	16972
907.557	16828
907.674	16831
907.79	16736
907.907	16733
908.023	16679
908.139	16752
908.256	16607
908.372	16622
908.488	16626
908.604	16596
908.72	16493
908.836	16424
908.952	16497
909.068	16470
909.184	16694
909.3	16497
909.415	16443
909.531	16474
909.647	16223
909.762	16188
909.878	16154
909.993	16200
910.108	16238
910.224	16143
910.339	16181
910.454	16093
910.57	15972
910.685	16067
910.8	16223
910.915	16093
911.03	16029
911.145	15865
911.259	15831
911.374	15766
911.489	15686
911.604	15679
911.718	15534
911.833	15557
911.947	15511
912.062	15325
912.176	15637
912.291	15603
912.405	15606
912.519	15709
912.633	15728
912.748	15690
912.862	15568
912.976	15443
913.09	15264
913.204	15294
913.318	15386
913.431	15507
913.545	15336
913.659	15443
913.772	15230
913.886	15237
914	15146
914.113	15249
914.226	15252
914.34	15222
914.453	15066
914.566	15169
914.68	15104
914.793	15066
914.906	14792
915.019	14735
915.132	14720
915.245	14807
915.358	14769
915.47	14796
915.583	14861
915.696	14819
915.809	14849
915.921	14872
916.034	14727
916.146	14678
916.259	14659
916.371	14800
916.483	14762
916.595	14564
916.708	14571
916.82	14674
916.932	14587
917.044	14575
917.156	14518
917.268	14377
917.38	14473
917.491	14415
917.603	14541
917.715	14541
917.826	14503
917.938	14465
918.049	14313
918.161	14362
918.272	14514
918.384	14564
918.495	14396
918.606	14237
918.717	14145
918.828	14142
918.939	14301
919.05	14134
919.161	14111
919.272	13997
919.383	14001
919.494	14366
919.604	14408
919.715	14195
919.826	14119
919.936	14164
920.047	14176
920.157	14130
920.267	14351
920.378	14229
920.488	14157
920.598	14328
920.708	14434
920.818	14347
920.928	14351
921.038	14476
921.148	14484
921.258	14157
921.368	14069
921.477	13936
921.587	13856
921.697	13871
921.806	13982
921.916	13750
922.025	13601
922.134	13594
922.244	13590
922.353	13575
922.462	13422
922.571	13392
922.68	13339
922.789	13285
922.898	13164
923.007	13088
923.116	13278
923.224	13255
923.333	13072
923.442	13141
923.55	13061
923.659	13076
923.767	13149
923.876	13038
923.984	13027
924.092	12962
924.201	12962
924.309	13008
924.417	13038
924.525	12844
924.633	12878
924.741	13837
924.849	12684
924.956	12802
925.064	12715
925.172	12688
925.279	12589
925.387	12753
925.494	12738
925.602	12760
925.709	12673
925.816	12506
925.924	12654
926.031	12684
926.138	12662
926.245	12597
926.352	12559
926.459	12593
926.566	12563
926.673	12498
926.779	12525
926.886	12475
926.993	12281
927.099	12224
927.206	12129
927.312	12209
927.419	12285
927.525	12224
927.631	12197
927.737	12007
927.843	12057
927.95	11882
928.056	12041
928.162	12053
928.267	12045
928.373	12745
928.479	12171
928.585	11889
928.69	12007
928.796	12030
928.901	11969
929.007	11741
929.112	11950
929.218	11916
929.323	11775
929.428	11741
929.533	11920
929.638	11638
929.743	11745
929.848	11817
929.953	11741
930.058	11665
930.163	11486
930.267	11471
930.372	11653
930.477	11539
930.581	11665
930.685	11562
930.79	11387
930.894	11398
930.998	11299
931.103	11452
931.207	11181
931.311	11098
931.415	11037
931.519	10862
931.623	10782
