Data from test_V78500241_2685.txt Node
Date: Fri Mar 25 15:28:33 CST 2022
User: usil
Spectrometer: V785-0024
Trigger mode: 0
Integration Time (sec): 4.000000E-1
Scans to average: 1
Nonlinearity correction enabled: false
Boxcar width: 0
Storing dark spectrum: false
XAxis mode: Wavelengths
Number of Pixels in Spectrum: 1024
>>>>>Begin Spectral Data<<<<<
801.071	27192
801.214	26929
801.356	26781
801.499	26663
801.641	26579
801.783	26590
801.926	26651
802.068	26621
802.211	26526
802.353	26503
802.496	26218
802.638	26126
802.78	26111
802.923	26069
803.065	26210
803.208	26199
803.35	26210
803.492	26355
803.635	26469
803.777	26275
803.919	26377
804.061	26659
804.204	26404
804.346	26389
804.488	26214
804.63	26358
804.773	26225
804.915	26309
805.057	26408
805.199	26336
805.341	26355
805.483	26556
805.626	26606
805.768	26351
805.91	26507
806.052	26469
806.194	26339
806.336	26609
806.478	26518
806.62	26469
806.762	26484
806.904	26606
807.046	26948
807.188	26868
807.33	26804
807.472	26956
807.614	26819
807.756	26861
807.898	26636
808.04	26590
808.182	26648
808.324	26769
808.465	26861
808.607	26994
808.749	27138
808.891	26982
809.033	27233
809.174	27085
809.316	27093
809.458	27096
809.6	26963
809.741	27020
809.883	27066
810.025	27317
810.166	27275
810.308	27317
810.45	27260
810.591	27332
810.733	26998
810.875	26864
811.016	27051
811.158	27013
811.299	27176
811.441	27317
811.582	27230
811.724	27001
811.865	26910
812.007	26845
812.148	26998
812.29	26994
812.431	27222
812.573	27310
812.714	27397
812.855	27416
812.997	27599
813.138	27880
813.279	27644
813.421	27492
813.562	27477
813.703	27431
813.845	27207
813.986	27104
814.127	26754
814.268	26674
814.41	26602
814.551	26670
814.692	26632
814.833	26541
814.974	26655
815.115	26750
815.256	26549
815.397	26530
815.539	26568
815.68	26317
815.821	26381
815.962	26484
816.103	26374
816.244	26328
816.385	26221
816.526	26286
816.666	25944
816.807	25837
816.948	26084
817.089	26046
817.23	25989
817.371	25940
817.512	25875
817.653	25871
817.793	25845
817.934	25940
818.075	25845
818.216	25856
818.356	25883
818.497	25852
818.638	25753
818.778	25746
818.919	25689
819.06	25803
819.2	25906
819.341	25852
819.481	25890
819.622	26096
819.762	26309
819.903	26157
820.043	26077
820.184	26088
820.324	26149
820.465	26050
820.605	26058
820.746	25951
820.886	25982
821.026	26115
821.167	25959
821.307	26043
821.447	25993
821.588	25814
821.728	25731
821.868	25510
822.008	25419
822.149	25396
822.289	25422
822.429	25206
822.569	25053
822.709	25141
822.849	24852
822.99	24844
823.13	24856
823.27	24882
823.41	24760
823.55	24654
823.69	24787
823.83	24715
823.97	24608
824.11	24452
824.25	24521
824.389	24627
824.529	24566
824.669	24422
824.809	24798
824.949	24639
825.089	24593
825.228	24627
825.368	24437
825.508	24357
825.648	24540
825.787	24460
825.927	24547
826.067	24300
826.206	24300
826.346	24505
826.485	24547
826.625	24517
826.765	24551
826.904	24376
827.044	24110
827.183	24144
827.323	24091
827.462	24148
827.601	24197
827.741	24171
827.88	24167
828.02	23939
828.159	24228
828.298	24053
828.437	24003
828.577	24087
828.716	24334
828.855	24041
828.994	23904
829.134	23847
829.273	23878
829.412	23847
829.551	23710
829.69	23790
829.829	23832
829.968	23836
830.107	23851
830.246	23798
830.385	23878
830.524	23726
830.663	23581
830.802	23596
830.941	23376
831.08	23364
831.219	23379
831.357	23402
831.496	23600
831.635	23349
831.774	23379
831.913	23337
832.051	23242
832.19	23216
832.329	23231
832.467	23193
832.606	23052
832.744	23208
832.883	23094
833.022	23109
833.16	23242
833.299	23254
833.437	23159
833.576	23140
833.714	23166
833.852	23067
833.991	23193
834.129	23364
834.267	23239
834.406	23197
834.544	23170
834.682	23006
834.821	23136
834.959	23258
835.097	23109
835.235	23223
835.373	23159
835.511	23083
835.65	23018
835.788	23140
835.926	22938
836.064	22782
836.202	22892
836.34	22980
836.478	23067
836.615	22934
836.753	23037
836.891	23071
837.029	23109
837.167	22953
837.305	22949
837.443	22862
837.58	22828
837.718	22965
837.856	22919
837.993	22744
838.131	22839
838.269	22820
838.406	22725
838.544	22561
838.681	22542
838.819	22459
838.956	22436
839.094	22280
839.231	22443
839.369	22653
839.506	22588
839.643	22622
839.781	22261
839.918	22276
840.055	22352
840.193	22318
840.33	22284
840.467	22379
840.604	22310
840.742	22637
840.879	22177
841.016	22272
841.153	22082
841.29	22333
841.427	22238
841.564	22333
841.701	22158
841.838	22166
841.975	22268
842.112	22226
842.249	22158
842.385	22173
842.522	22238
842.659	22109
842.796	22086
842.933	21953
843.069	21960
843.206	21937
843.343	22048
843.479	22010
843.616	22017
843.752	21915
843.889	21766
844.025	21953
844.162	21819
844.298	21781
844.435	21751
844.571	21808
844.708	21895
844.844	21861
844.98	21949
845.117	21842
845.253	21755
845.389	21720
845.525	21576
845.661	21610
845.798	21564
845.934	21701
846.07	21557
846.206	21561
846.342	21671
846.478	21492
846.614	21348
846.75	21405
846.886	21302
847.022	21252
847.158	21249
847.294	21332
847.429	21386
847.565	21222
847.701	21428
847.837	21074
847.972	20956
848.108	21043
848.244	21176
848.379	20956
848.515	20876
848.65	20891
848.786	20845
848.921	20899
849.057	21005
849.192	20933
849.328	20902
849.463	20857
849.598	20792
849.734	20845
849.869	20708
850.004	20648
850.14	20640
850.275	20670
850.41	20492
850.545	20644
850.68	20602
850.815	20731
850.95	20533
851.085	20807
851.22	20716
851.355	20602
851.49	20594
851.625	20651
851.76	20731
851.895	20644
852.03	20533
852.165	20545
852.299	20678
852.434	20708
852.569	20560
852.703	20674
852.838	20697
852.973	20800
853.107	20750
853.242	20659
853.376	20412
853.511	20434
853.645	20412
853.78	20530
853.914	20431
854.048	20389
854.183	20514
854.317	20503
854.451	20655
854.585	20511
854.72	20533
854.854	20499
854.988	20370
855.122	20571
855.256	20271
855.39	20438
855.524	20590
855.658	20518
855.792	20495
855.926	20549
856.06	20461
856.194	20526
856.327	20427
856.461	20492
856.595	20454
856.729	20514
856.862	20499
856.996	20499
857.13	20522
857.263	20686
857.397	20613
857.53	20423
857.664	20488
857.797	20404
857.931	20587
858.064	20473
858.197	20511
858.331	20396
858.464	20412
858.597	20412
858.731	20469
858.864	20400
858.997	20381
859.13	20469
859.263	20552
859.396	20518
859.529	20480
859.662	20423
859.795	20320
859.928	20507
860.061	20533
860.194	20663
860.327	20609
860.46	20442
860.592	20617
860.725	20571
860.858	20587
860.99	20469
861.123	20419
861.256	20381
861.388	20480
861.521	21348
861.653	20343
861.786	20290
861.918	20305
862.05	20233
862.183	20465
862.315	20362
862.447	20484
862.58	20377
862.712	20278
862.844	20233
862.976	20278
863.108	20351
863.24	20686
863.372	20142
863.504	20244
863.636	20195
863.768	20218
863.9	20218
864.032	20168
864.164	20214
864.296	20313
864.428	20347
864.559	20225
864.691	20229
864.823	20328
864.954	20221
865.086	20107
865.217	20111
865.349	20046
865.48	20149
865.612	20218
865.743	20256
865.875	20187
866.006	20062
866.137	20024
866.269	20039
866.4	20065
866.531	20164
866.662	20012
866.793	19982
866.924	20107
867.055	19944
867.186	20020
867.317	20031
867.448	19993
867.579	19997
867.71	20024
867.841	19845
867.972	20084
868.103	20050
868.233	20050
868.364	20062
868.495	20115
868.625	20271
868.756	20423
868.886	20172
869.017	20362
869.147	20324
869.278	20469
869.408	20237
869.539	20252
869.669	20256
869.799	20366
869.929	20393
870.06	20480
870.19	20583
870.32	20507
870.45	20609
870.58	20697
870.71	20746
870.84	20773
870.97	20606
871.1	20621
871.23	20853
871.36	20880
871.489	20811
871.619	20826
871.749	20864
871.879	20876
872.008	20956
872.138	20929
872.267	20842
872.397	20838
872.526	20716
872.656	20701
872.785	20708
872.915	20872
873.044	21085
873.173	20956
873.303	20933
873.432	20982
873.561	20971
873.69	20937
873.819	20887
873.948	21028
874.077	20921
874.206	21017
874.335	20864
874.464	20994
874.593	21214
874.722	21138
874.851	21241
874.979	21104
875.108	21104
875.237	21055
875.365	21085
875.494	21135
875.623	21218
875.751	21138
875.88	21302
876.008	21222
876.136	21313
876.265	21538
876.393	21736
876.521	21568
876.65	21519
876.778	21576
876.906	21557
877.034	21568
877.162	21496
877.29	21408
877.418	21469
877.546	21561
877.674	21424
877.802	21496
877.93	21424
878.058	21492
878.185	21382
878.313	21428
878.441	21492
878.568	21306
878.696	21389
878.824	21568
878.951	21561
879.079	21564
879.206	21720
879.333	21682
879.461	21614
879.588	21549
879.715	21694
879.842	21743
879.97	21507
880.097	21310
880.224	21412
880.351	21355
880.478	21294
880.605	21161
880.732	21256
880.859	21572
880.986	21317
881.112	21287
881.239	21226
881.366	21116
881.493	20963
881.619	20914
881.746	21028
881.872	20963
881.999	20941
882.125	20895
882.252	21009
882.378	20948
882.505	20891
882.631	20750
882.757	20705
882.883	20697
883.01	20609
883.136	20575
883.262	20537
883.388	20473
883.514	20644
883.64	20636
883.766	20473
883.892	20438
884.018	20355
884.143	20636
884.269	20606
884.395	20301
884.52	20328
884.646	20229
884.772	20267
884.897	20214
885.023	20343
885.148	20336
885.274	20381
885.399	20438
885.524	20221
885.65	20221
885.775	20301
885.9	20240
886.025	20381
886.15	20446
886.275	20240
886.4	20157
886.525	20336
886.65	20240
886.775	20100
886.9	20427
887.025	20526
887.149	20210
887.274	20103
887.399	20016
887.523	20081
887.648	19845
887.773	20016
887.897	20214
888.021	20073
888.146	20020
888.27	20111
888.395	20122
888.519	20035
888.643	20115
888.767	20248
888.891	19928
889.015	19913
889.139	19890
889.263	19799
889.387	19959
889.511	20008
889.635	19936
889.759	19757
889.883	19788
890.006	19841
890.13	19944
890.254	19765
890.377	19655
890.501	19514
890.624	19483
890.748	19666
890.871	19597
890.995	19464
891.118	19460
891.241	19369
891.364	19449
891.488	19582
891.611	19403
891.734	19324
891.857	19552
891.98	19388
892.103	19384
892.226	19419
892.349	19362
892.471	19206
892.594	19304
892.717	19495
892.839	19304
892.962	19506
893.085	19400
893.207	19358
893.33	19225
893.452	19415
893.575	19419
893.697	19297
893.819	19525
893.941	19506
894.064	19506
894.186	19209
894.308	19263
894.43	19289
894.552	19502
894.674	19495
894.796	19274
894.918	19350
895.04	19266
895.161	19381
895.283	19411
895.405	19251
895.526	19434
895.648	19384
895.769	19365
895.891	19396
896.012	19472
896.134	19308
896.255	19381
896.376	19335
896.498	19320
896.619	19430
896.74	19373
896.861	19369
896.982	19727
897.103	19860
897.224	19616
897.345	19658
897.466	19521
897.587	19639
897.708	19693
897.828	19681
897.949	19616
898.07	19392
898.19	19518
898.311	19616
898.431	19533
898.552	19666
898.672	19662
898.792	19620
898.913	19715
899.033	19384
899.153	19377
899.273	19316
899.393	19377
899.513	19453
899.633	19362
899.753	19331
899.873	19293
899.993	19419
900.113	19236
900.232	19388
900.352	19308
900.472	19209
900.591	19183
900.711	19095
900.83	19107
900.95	19259
901.069	19164
901.189	19008
901.308	18962
901.427	18810
901.546	18738
901.665	18859
901.784	18642
901.904	18623
902.023	18574
902.141	18445
902.26	18330
902.379	18429
902.498	18254
902.617	18311
902.735	18186
902.854	18353
902.973	18171
903.091	17939
903.21	17931
903.328	17901
903.446	17923
903.565	17745
903.683	17756
903.801	17748
903.919	17718
904.038	17691
904.156	17577
904.274	17657
904.392	17558
904.51	17429
904.627	17497
904.745	17505
904.863	17554
904.981	17395
905.098	17216
905.216	17261
905.334	17231
905.451	17223
905.569	17223
905.686	17246
905.803	17181
905.921	17033
906.038	17121
906.155	16972
906.272	16828
906.389	16949
906.506	16828
906.623	16866
906.74	16641
906.857	16664
906.974	16733
907.091	16778
907.208	16850
907.324	16771
907.441	16721
907.557	16535
907.674	16523
907.79	16371
907.907	16413
908.023	16455
908.139	16394
908.256	16462
908.372	16318
908.488	16386
908.604	16265
908.72	16048
908.836	16284
908.952	16238
909.068	16204
909.184	16382
909.3	16139
909.415	16223
909.531	16150
909.647	16021
909.762	15960
909.878	15869
909.993	15838
910.108	15899
910.224	15819
910.339	15789
910.454	15831
910.57	15675
910.685	15523
910.8	15915
910.915	15873
911.03	15713
911.145	15591
911.259	15542
911.374	15485
911.489	15507
911.604	15386
911.718	15207
911.833	15340
911.947	15135
912.062	15131
912.176	15321
912.291	15355
912.405	15272
912.519	15431
912.633	15454
912.748	15351
912.862	15195
912.976	15131
913.09	14929
913.204	15017
913.318	15142
913.431	15154
913.545	15100
913.659	15214
913.772	15013
913.886	14804
914	14883
914.113	14990
914.226	14956
914.34	14960
914.453	14769
914.566	15024
914.68	14746
914.793	14663
914.906	14594
915.019	14644
915.132	14423
915.245	14484
915.358	14560
915.47	14514
915.583	14636
915.696	14526
915.809	14602
915.921	14648
916.034	14450
916.146	14389
916.259	14389
916.371	14514
916.483	14499
916.595	14301
916.708	14355
916.82	14351
916.932	14290
917.044	14385
917.156	14271
917.268	14225
917.38	14100
917.491	14195
917.603	14126
917.715	14278
917.826	14290
917.938	14138
918.049	13993
918.161	14191
918.272	14252
918.384	14320
918.495	14195
918.606	14001
918.717	13890
918.828	13978
918.939	14008
919.05	13993
919.161	13849
919.272	13746
919.383	13841
919.494	14043
919.604	14161
919.715	13932
919.826	13852
919.936	13951
920.047	13989
920.157	13898
920.267	14069
920.378	13986
920.488	13906
920.598	14043
920.708	14221
920.818	14081
920.928	14084
921.038	14278
921.148	14237
921.258	13913
921.368	13742
921.477	13712
921.587	13670
921.697	13563
921.806	13689
921.916	13491
922.025	13426
922.134	13426
922.244	13324
922.353	13491
922.462	13297
922.571	13103
922.68	13000
922.789	13012
922.898	13004
923.007	12901
923.116	12966
923.224	13023
923.333	13072
923.442	12882
923.55	12837
923.659	12821
923.767	12924
923.876	12692
923.984	12863
924.092	12734
924.201	12768
924.309	12753
924.417	12772
924.525	12703
924.633	12673
924.741	13597
924.849	12566
924.956	12578
925.064	12521
925.172	12437
925.279	12361
925.387	12395
925.494	12441
925.602	12589
925.709	12483
925.816	12372
925.924	12384
926.031	12498
926.138	12289
926.245	12410
926.352	12334
926.459	12437
926.566	12350
926.673	12251
926.779	12228
926.886	12197
926.993	12155
927.099	11969
927.206	12015
927.312	11973
927.419	11954
927.525	12011
927.631	12011
927.737	11950
927.843	11931
927.95	11798
928.056	11859
928.162	11859
928.267	11927
928.373	12388
928.479	11984
928.585	11661
928.69	11843
928.796	11927
928.901	11733
929.007	11581
929.112	11756
929.218	11703
929.323	11604
929.428	11699
929.533	11718
929.638	11532
929.743	11592
929.848	11642
929.953	11551
930.058	11414
930.163	11280
930.267	11322
930.372	11429
930.477	11246
930.581	11387
930.685	11391
930.79	11197
930.894	11170
930.998	11124
931.103	11246
931.207	11010
931.311	10839
931.415	10771
931.519	10641
931.623	10649
