Data from test_V78500241_1999.txt Node
Date: Fri Mar 25 15:23:46 CST 2022
User: usil
Spectrometer: V785-0024
Trigger mode: 0
Integration Time (sec): 4.000000E-1
Scans to average: 1
Nonlinearity correction enabled: false
Boxcar width: 0
Storing dark spectrum: false
XAxis mode: Wavelengths
Number of Pixels in Spectrum: 1024
>>>>>Begin Spectral Data<<<<<
801.071	27884
801.214	27797
801.356	27564
801.499	27755
801.641	27420
801.783	27458
801.926	27488
802.068	27462
802.211	27481
802.353	27367
802.496	27119
802.638	27036
802.78	27032
802.923	26952
803.065	27142
803.208	27188
803.35	27096
803.492	27165
803.635	27389
803.777	27260
803.919	27325
804.061	27526
804.204	27264
804.346	27283
804.488	27207
804.63	27325
804.773	27207
804.915	27275
805.057	27389
805.199	27313
805.341	27435
805.483	27416
805.626	27401
805.768	27359
805.91	27443
806.052	27523
806.194	27412
806.336	27542
806.478	27378
806.62	27458
806.762	27660
806.904	27568
807.046	27945
807.188	27816
807.33	27861
807.472	27903
807.614	27793
807.756	27739
807.898	27671
808.04	27701
808.182	27713
808.324	27816
808.465	27694
808.607	27945
808.749	28029
808.891	28196
809.033	28211
809.174	28128
809.316	28131
809.458	28017
809.6	27987
809.741	28078
809.883	28109
810.025	28371
810.166	28348
810.308	28363
810.45	28322
810.591	28211
810.733	28074
810.875	28032
811.016	28059
811.158	27960
811.299	28135
811.441	28169
811.582	28177
811.724	28086
811.865	27865
812.007	28097
812.148	27956
812.29	28101
812.431	28211
812.573	28261
812.714	28451
812.855	28611
812.997	28565
813.138	28915
813.279	28660
813.421	28618
813.562	28588
813.703	28390
813.845	28310
813.986	28013
814.127	27949
814.268	27736
814.41	27797
814.551	27580
814.692	27774
814.833	27728
814.974	27800
815.115	27819
815.256	27534
815.397	27732
815.539	27485
815.68	27515
815.821	27538
815.962	27656
816.103	27511
816.244	27549
816.385	27329
816.526	27283
816.666	27150
816.807	26998
816.948	27051
817.089	27116
817.23	26998
817.371	27013
817.512	26944
817.653	27009
817.793	26994
817.934	26998
818.075	27005
818.216	26963
818.356	27051
818.497	26807
818.638	26800
818.778	26727
818.919	26697
819.06	26777
819.2	26921
819.341	27066
819.481	27020
819.622	27245
819.762	27268
819.903	27279
820.043	27112
820.184	27089
820.324	27123
820.465	27173
820.605	27138
820.746	27214
820.886	27036
821.026	27233
821.167	27135
821.307	27195
821.447	27154
821.588	27001
821.728	26864
821.868	26613
822.008	26682
822.149	26560
822.289	26492
822.429	26176
822.569	26138
822.709	26103
822.849	25978
822.99	26092
823.13	26054
823.27	25993
823.41	25974
823.55	25685
823.69	25803
823.83	25803
823.97	25822
824.11	25693
824.25	25658
824.389	25666
824.529	25658
824.669	25651
824.809	25731
824.949	25753
825.089	25696
825.228	25780
825.368	25616
825.508	25487
825.648	25453
825.787	25559
825.927	25491
826.067	25563
826.206	25487
826.346	25674
826.485	25472
826.625	25518
826.765	25537
826.904	25479
827.044	25324
827.183	25350
827.323	25255
827.462	25362
827.601	25251
827.741	25247
827.88	25232
828.02	25133
828.159	25263
828.298	25289
828.437	25285
828.577	25221
828.716	25331
828.855	25137
828.994	24970
829.134	25004
829.273	24928
829.412	24916
829.551	24798
829.69	24894
829.829	25042
829.968	25019
830.107	25084
830.246	24939
830.385	24833
830.524	24939
830.663	24684
830.802	24719
830.941	24616
831.08	24635
831.219	24631
831.357	24700
831.496	24734
831.635	24570
831.774	24623
831.913	24467
832.051	24376
832.19	24414
832.329	24376
832.467	24254
832.606	24277
832.744	24228
832.883	24201
833.022	24163
833.16	24292
833.299	24239
833.437	24262
833.576	24273
833.714	24300
833.852	24448
833.991	24308
834.129	24422
834.267	24426
834.406	24224
834.544	24403
834.682	24285
834.821	24186
834.959	24483
835.097	24174
835.235	24330
835.373	24171
835.511	24350
835.65	24136
835.788	24068
835.926	23977
836.064	23912
836.202	23954
836.34	24064
836.478	24239
836.615	24213
836.753	24133
836.891	24232
837.029	24247
837.167	24087
837.305	23946
837.443	24011
837.58	24011
837.718	23992
837.856	23901
837.993	23920
838.131	23935
838.269	23893
838.406	23901
838.544	23809
838.681	23691
838.819	23566
838.956	23539
839.094	23490
839.231	23501
839.369	23668
839.506	23798
839.643	23809
839.781	23444
839.918	23387
840.055	23524
840.193	23406
840.33	23395
840.467	23433
840.604	23398
840.742	23562
840.879	23212
841.016	23288
841.153	23128
841.29	23391
841.427	23482
841.564	23379
841.701	23315
841.838	23250
841.975	23280
842.112	23368
842.249	23273
842.385	23056
842.522	23242
842.659	23083
842.796	23098
842.933	23113
843.069	23094
843.206	22927
843.343	23166
843.479	23159
843.616	23143
843.752	22915
843.889	22919
844.025	22968
844.162	22889
844.298	23022
844.435	22953
844.571	22843
844.708	23018
844.844	23071
844.98	23010
845.117	22923
845.253	22858
845.389	22706
845.525	22786
845.661	22736
845.798	22641
845.934	22675
846.07	22656
846.206	22660
846.342	22752
846.478	22577
846.614	22367
846.75	22287
846.886	22459
847.022	22405
847.158	22322
847.294	22421
847.429	22428
847.565	22284
847.701	22626
847.837	22032
847.972	22002
848.108	22166
848.244	22147
848.379	21960
848.515	21922
848.65	21945
848.786	22006
848.921	22002
849.057	22055
849.192	22082
849.328	21964
849.463	21926
849.598	21934
849.734	21770
849.869	21797
850.004	21682
850.14	21808
850.275	21622
850.41	21641
850.545	21587
850.68	21682
850.815	21648
850.95	21751
851.085	21945
851.22	21800
851.355	21819
851.49	21705
851.625	21679
851.76	21614
851.895	21583
852.03	21633
852.165	21637
852.299	21667
852.434	21797
852.569	21720
852.703	21656
852.838	21717
852.973	21785
853.107	21770
853.242	21671
853.376	21682
853.511	21485
853.645	21454
853.78	21663
853.914	21599
854.048	21492
854.183	21447
854.317	21420
854.451	21713
854.585	21568
854.72	21477
854.854	21701
854.988	21561
855.122	21477
855.256	21447
855.39	21443
855.524	21622
855.658	21595
855.792	21572
855.926	21549
856.06	21610
856.194	21618
856.327	21496
856.461	21534
856.595	21504
856.729	21583
856.862	21671
856.996	21469
857.13	21652
857.263	21671
857.397	21553
857.53	21458
857.664	21641
857.797	21580
857.931	21644
858.064	21515
858.197	21564
858.331	21431
858.464	21488
858.597	21500
858.731	21580
858.864	21477
858.997	21420
859.13	21443
859.263	21519
859.396	21622
859.529	21553
859.662	21511
859.795	21370
859.928	21561
860.061	21694
860.194	21717
860.327	21439
860.46	21545
860.592	21572
860.725	21667
860.858	21671
860.99	21530
861.123	21416
861.256	21359
861.388	21496
861.521	22090
861.653	21454
861.786	21340
861.918	21412
862.05	21496
862.183	21420
862.315	21435
862.447	21492
862.58	21370
862.712	21237
862.844	21150
862.976	21325
863.108	21214
863.24	21755
863.372	21127
863.504	21249
863.636	21252
863.768	21268
863.9	21412
864.032	21176
864.164	21256
864.296	21173
864.428	21249
864.559	21359
864.691	21329
864.823	21135
864.954	21272
865.086	21142
865.217	21233
865.349	21009
865.48	21161
865.612	21161
865.743	21264
865.875	21104
866.006	20944
866.137	21009
866.269	21108
866.4	21195
866.531	21055
866.662	21028
866.793	21017
866.924	21096
867.055	21093
867.186	21062
867.317	21119
867.448	21085
867.579	21100
867.71	20979
867.841	20979
867.972	21039
868.103	21119
868.233	21039
868.364	21036
868.495	21116
868.625	21245
868.756	21393
868.886	21176
869.017	21321
869.147	21526
869.278	21386
869.408	21256
869.539	21268
869.669	21355
869.799	21340
869.929	21466
870.06	21458
870.19	21530
870.32	21606
870.45	21652
870.58	21720
870.71	21911
870.84	21808
870.97	21797
871.1	21656
871.23	21876
871.36	21865
871.489	21876
871.619	21838
871.749	21873
871.879	22070
872.008	22021
872.138	21994
872.267	21842
872.397	21827
872.526	21701
872.656	21709
872.785	21720
872.915	21888
873.044	21972
873.173	21907
873.303	21975
873.432	22032
873.561	22021
873.69	21949
873.819	21854
873.948	21895
874.077	21899
874.206	21831
874.335	21842
874.464	21907
874.593	22131
874.722	22101
874.851	22150
874.979	22158
875.108	22287
875.237	22063
875.365	22002
875.494	22139
875.623	22211
875.751	22090
875.88	22280
876.008	22139
876.136	22303
876.265	22588
876.393	22561
876.521	22561
876.65	22596
876.778	22489
876.906	22519
877.034	22500
877.162	22481
877.29	22348
877.418	22550
877.546	22554
877.674	22413
877.802	22493
877.93	22516
878.058	22337
878.185	22306
878.313	22402
878.441	22577
878.568	22246
878.696	22390
878.824	22497
878.951	22470
879.079	22649
879.206	22790
879.333	22626
879.461	22516
879.588	22653
879.715	22668
879.842	22706
879.97	22523
880.097	22314
880.224	22344
880.351	22333
880.478	22272
880.605	22219
880.732	22287
880.859	22474
880.986	22303
881.112	22280
881.239	22246
881.366	22040
881.493	21911
881.619	21956
881.746	21903
881.872	21911
881.999	21903
882.125	21816
882.252	21876
882.378	21823
882.505	21983
882.631	21781
882.757	21606
882.883	21728
883.01	21564
883.136	21564
883.262	21435
883.388	21367
883.514	21675
883.64	21561
883.766	21477
883.892	21340
884.018	21344
884.143	21462
884.269	21519
884.395	21367
884.52	21108
884.646	21169
884.772	21154
884.897	21093
885.023	21146
885.148	21287
885.274	21294
885.399	21275
885.524	21199
885.65	21279
885.775	21169
885.9	21188
886.025	21214
886.15	21313
886.275	21131
886.4	21112
886.525	21176
886.65	21161
886.775	21127
886.9	21214
887.025	21447
887.149	21176
887.274	20967
887.399	20941
887.523	20914
887.648	20937
887.773	20944
887.897	20967
888.021	21001
888.146	20967
888.27	21028
888.395	21157
888.519	21077
888.643	21066
888.767	20982
888.891	20948
889.015	20785
889.139	20765
889.263	20716
889.387	20864
889.511	20994
889.635	20838
889.759	20815
889.883	20769
890.006	20743
890.13	20918
890.254	20659
890.377	20651
890.501	20621
890.624	20484
890.748	20621
890.871	20446
890.995	20351
891.118	20183
891.241	20290
891.364	20370
891.488	20343
891.611	20423
891.734	20431
891.857	20317
891.98	20332
892.103	20457
892.226	20374
892.349	20282
892.471	20210
892.594	20355
892.717	20362
892.839	20164
892.962	20298
893.085	20271
893.207	20225
893.33	20153
893.452	20244
893.575	20263
893.697	20191
893.819	20415
893.941	20438
894.064	20393
894.186	20176
894.308	20191
894.43	20332
894.552	20324
894.674	20328
894.796	20206
894.918	20244
895.04	20206
895.161	20164
895.283	20180
895.405	20199
895.526	20229
895.648	20206
895.769	20210
895.891	20206
896.012	20381
896.134	20252
896.255	20271
896.376	20164
896.498	20187
896.619	20202
896.74	20202
896.861	20248
896.982	20495
897.103	20629
897.224	20495
897.345	20415
897.466	20320
897.587	20495
897.708	20636
897.828	20389
897.949	20408
898.07	20259
898.19	20431
898.311	20499
898.431	20419
898.552	20522
898.672	20431
898.792	20511
898.913	20499
899.033	20412
899.153	20332
899.273	20240
899.393	20202
899.513	20202
899.633	20206
899.753	20225
899.873	20119
899.993	20130
900.113	20035
900.232	20164
900.352	20084
900.472	20062
900.591	19890
900.711	20016
900.83	19913
900.95	20096
901.069	19989
901.189	19879
901.308	19597
901.427	19537
901.546	19419
901.665	19620
901.784	19525
901.904	19400
902.023	19335
902.141	19156
902.26	19027
902.379	19175
902.498	19053
902.617	18966
902.735	18981
902.854	18947
902.973	18966
903.091	18715
903.21	18779
903.328	18730
903.446	18650
903.565	18506
903.683	18544
903.801	18452
903.919	18566
904.038	18509
904.156	18330
904.274	18308
904.392	18292
904.51	18300
904.627	18186
904.745	18300
904.863	18285
904.981	18079
905.098	17923
905.216	17935
905.334	18003
905.451	18015
905.569	17984
905.686	17977
905.803	17923
905.921	17832
906.038	17821
906.155	17855
906.272	17623
906.389	17619
906.506	17566
906.623	17520
906.74	17577
906.857	17334
906.974	17360
907.091	17528
907.208	17585
907.324	17532
907.441	17425
907.557	17261
907.674	17277
907.79	17117
907.907	17166
908.023	17288
908.139	17212
908.256	17109
908.372	17170
908.488	17094
908.604	16976
908.72	16961
908.836	16987
908.952	16881
909.068	16889
909.184	17048
909.3	16892
909.415	16949
909.531	16930
909.647	16740
909.762	16561
909.878	16698
909.993	16641
910.108	16603
910.224	16577
910.339	16519
910.454	16447
910.57	16417
910.685	16280
910.8	16527
910.915	16588
911.03	16485
911.145	16215
911.259	16314
911.374	16230
911.489	16181
911.604	16207
911.718	15987
911.833	16071
911.947	15827
912.062	15797
912.176	15972
912.291	15956
912.405	15937
912.519	16169
912.633	16139
912.748	15922
912.862	15861
912.976	15846
913.09	15732
913.204	15724
913.318	15785
913.431	15861
913.545	15991
913.659	15915
913.772	15774
913.886	15618
914	15622
914.113	15694
914.226	15629
914.34	15705
914.453	15450
914.566	15705
914.68	15530
914.793	15336
914.906	15275
915.019	15260
915.132	15032
915.245	15112
915.358	15237
915.47	15184
915.583	15207
915.696	15173
915.809	15252
915.921	15203
916.034	15161
916.146	15127
916.259	14944
916.371	15089
916.483	15146
916.595	15028
916.708	15062
916.82	15165
916.932	14944
917.044	14853
917.156	14952
917.268	14815
917.38	14807
917.491	14804
917.603	14727
917.715	14883
917.826	14906
917.938	14769
918.049	14731
918.161	14758
918.272	14876
918.384	14845
918.495	14693
918.606	14598
918.717	14530
918.828	14625
918.939	14625
919.05	14492
919.161	14514
919.272	14404
919.383	14499
919.494	14556
919.604	14834
919.715	14469
919.826	14476
919.936	14503
920.047	14629
920.157	14541
920.267	14674
920.378	14617
920.488	14457
920.598	14731
920.708	14842
920.818	14640
920.928	14743
921.038	14853
921.148	14769
921.258	14396
921.368	14393
921.477	14370
921.587	14278
921.697	14149
921.806	14290
921.916	14096
922.025	13997
922.134	13944
922.244	13902
922.353	14012
922.462	13814
922.571	13746
922.68	13597
922.789	13613
922.898	13620
923.007	13491
923.116	13582
923.224	13548
923.333	13563
923.442	13445
923.55	13487
923.659	13377
923.767	13506
923.876	13365
923.984	13422
924.092	13331
924.201	13335
924.309	13358
924.417	13316
924.525	13274
924.633	13244
924.741	14020
924.849	12973
924.956	13091
925.064	13091
925.172	12996
925.279	13031
925.387	13080
925.494	13012
925.602	13046
925.709	13179
925.816	12909
925.924	12947
926.031	13000
926.138	12913
926.245	13027
926.352	12833
926.459	13004
926.566	12943
926.673	12825
926.779	12829
926.886	12764
926.993	12525
927.099	12673
927.206	12559
927.312	12536
927.419	12597
927.525	12608
927.631	12578
927.737	12486
927.843	12342
927.95	12300
928.056	12456
928.162	12330
928.267	12407
928.373	13027
928.479	12456
928.585	12224
928.69	12338
928.796	12407
928.901	12209
929.007	12117
929.112	12213
929.218	12178
929.323	12197
929.428	12114
929.533	12182
929.638	12030
929.743	12083
929.848	12121
929.953	12087
930.058	11855
930.163	11748
930.267	11874
930.372	11912
930.477	11748
930.581	12030
930.685	11817
930.79	11638
930.894	11771
930.998	11646
931.103	11828
931.207	11379
931.311	11322
931.415	11242
931.519	11067
931.623	11083
