Data from test_V78500241_3419.txt Node
Date: Fri Mar 25 15:33:40 CST 2022
User: usil
Spectrometer: V785-0024
Trigger mode: 0
Integration Time (sec): 4.000000E-1
Scans to average: 1
Nonlinearity correction enabled: false
Boxcar width: 0
Storing dark spectrum: false
XAxis mode: Wavelengths
Number of Pixels in Spectrum: 1024
>>>>>Begin Spectral Data<<<<<
801.071	27256
801.214	27089
801.356	27024
801.499	26925
801.641	26765
801.783	26792
801.926	26845
802.068	26842
802.211	26708
802.353	26651
802.496	26419
802.638	26503
802.78	26404
802.923	26278
803.065	26298
803.208	26278
803.35	26309
803.492	26522
803.635	26651
803.777	26511
803.919	26530
804.061	26929
804.204	26651
804.346	26480
804.488	26415
804.63	26461
804.773	26640
804.915	26594
805.057	26701
805.199	26465
805.341	26575
805.483	26670
805.626	26667
805.768	26571
805.91	26689
806.052	26571
806.194	26552
806.336	26788
806.478	26712
806.62	26549
806.762	26724
806.904	26925
807.046	27142
807.188	27047
807.33	27112
807.472	27150
807.614	26864
807.756	27184
807.898	26956
808.04	26857
808.182	26910
808.324	26952
808.465	27017
808.607	27226
808.749	27260
808.891	27291
809.033	27382
809.174	27401
809.316	27093
809.458	27188
809.6	27089
809.741	27363
809.883	27294
810.025	27625
810.166	27420
810.308	27469
810.45	27443
810.591	27325
810.733	27382
810.875	27150
811.016	27142
811.158	27237
811.299	27351
811.441	27336
811.582	27405
811.724	27184
811.865	27024
812.007	27112
812.148	27237
812.29	27268
812.431	27386
812.573	27538
812.714	27530
812.855	27694
812.997	27781
813.138	27930
813.279	27888
813.421	27785
813.562	27625
813.703	27454
813.845	27310
813.986	27131
814.127	26990
814.268	26910
814.41	27055
814.551	27020
814.692	26921
814.833	26777
814.974	26712
815.115	26838
815.256	26670
815.397	26861
815.539	26724
815.68	26693
815.821	26644
815.962	26686
816.103	26640
816.244	26461
816.385	26385
816.526	26408
816.666	26225
816.807	26077
816.948	26267
817.089	26473
817.23	25970
817.371	26172
817.512	26153
817.653	26142
817.793	26134
817.934	26229
818.075	26187
818.216	26088
818.356	26168
818.497	26043
818.638	26016
818.778	25856
818.919	25727
819.06	25826
819.2	26100
819.341	26016
819.481	26191
819.622	26400
819.762	26438
819.903	26343
820.043	26400
820.184	26214
820.324	26206
820.465	26336
820.605	26324
820.746	26172
820.886	26046
821.026	26237
821.167	26214
821.307	26275
821.447	26115
821.588	26103
821.728	25799
821.868	25875
822.008	25658
822.149	25582
822.289	25582
822.429	25304
822.569	25346
822.709	25297
822.849	25091
822.99	25034
823.13	25114
823.27	25061
823.41	24985
823.55	24814
823.69	24867
823.83	24886
823.97	24886
824.11	24692
824.25	24738
824.389	24681
824.529	24798
824.669	24757
824.809	24772
824.949	24897
825.089	24783
825.228	24787
825.368	24384
825.508	24475
825.648	24517
825.787	24601
825.927	24734
826.067	24593
826.206	24612
826.346	24547
826.485	24623
826.625	24585
826.765	24711
826.904	24642
827.044	24582
827.183	24448
827.323	24388
827.462	24437
827.601	24414
827.741	24148
827.88	24357
828.02	24300
828.159	24277
828.298	24330
828.437	24384
828.577	24315
828.716	24403
828.855	24273
828.994	23916
829.134	24144
829.273	23988
829.412	23973
829.551	23954
829.69	24072
829.829	24110
829.968	24190
830.107	24136
830.246	24091
830.385	23954
830.524	23958
830.663	23927
830.802	23786
830.941	23684
831.08	23699
831.219	23790
831.357	23718
831.496	23798
831.635	23714
831.774	23661
831.913	23345
832.051	23467
832.19	23486
832.329	23493
832.467	23360
832.606	23235
832.744	23341
832.883	23337
833.022	23265
833.16	23337
833.299	23440
833.437	23402
833.576	23467
833.714	23398
833.852	23554
833.991	23539
834.129	23558
834.267	23589
834.406	23516
834.544	23566
834.682	23444
834.821	23379
834.959	23615
835.097	23368
835.235	23467
835.373	23433
835.511	23406
835.65	23269
835.788	23299
835.926	23143
836.064	23151
836.202	23193
836.34	23379
836.478	23349
836.615	23341
836.753	23417
836.891	23406
837.029	23391
837.167	23216
837.305	23136
837.443	23261
837.58	23113
837.718	23174
837.856	23227
837.993	23181
838.131	23185
838.269	22991
838.406	23029
838.544	22949
838.681	22889
838.819	22736
838.956	22611
839.094	22500
839.231	22630
839.369	22752
839.506	23018
839.643	22854
839.781	22656
839.918	22546
840.055	22653
840.193	22615
840.33	22554
840.467	22504
840.604	22694
840.742	22858
840.879	22432
841.016	22440
841.153	22577
841.29	22527
841.427	22538
841.564	22710
841.701	22618
841.838	22577
841.975	22481
842.112	22459
842.249	22478
842.385	22413
842.522	22565
842.659	22310
842.796	22360
842.933	22360
843.069	22276
843.206	22272
843.343	22363
843.479	22318
843.616	22436
843.752	22090
843.889	22082
844.025	22238
844.162	22040
844.298	22124
844.435	22051
844.571	22169
844.708	22135
844.844	22242
844.98	22196
845.117	22249
845.253	22112
845.389	21964
845.525	21968
845.661	22090
845.798	21808
845.934	21880
846.07	21850
846.206	21785
846.342	21994
846.478	21770
846.614	21583
846.75	21488
846.886	21545
847.022	21663
847.158	21564
847.294	21682
847.429	21644
847.565	21599
847.701	21713
847.837	21332
847.972	21272
848.108	21488
848.244	21348
848.379	21275
848.515	21169
848.65	21173
848.786	21161
848.921	21252
849.057	21348
849.192	21233
849.328	21249
849.463	21077
849.598	21104
849.734	21135
849.869	20937
850.004	20826
850.14	20925
850.275	20941
850.41	20845
850.545	20925
850.68	20925
850.815	20868
850.95	20944
851.085	21093
851.22	21096
851.355	20967
851.49	20979
851.625	20880
851.76	20944
851.895	20887
852.03	20929
852.165	20967
852.299	20986
852.434	20994
852.569	20937
852.703	20918
852.838	20963
852.973	21112
853.107	21013
853.242	20845
853.376	20712
853.511	20724
853.645	20667
853.78	20971
853.914	20727
854.048	20834
854.183	20708
854.317	20777
854.451	20914
854.585	20857
854.72	20765
854.854	20986
854.988	20659
855.122	20750
855.256	20746
855.39	20819
855.524	20781
855.658	20750
855.792	20861
855.926	20701
856.06	20811
856.194	20788
856.327	20659
856.461	20792
856.595	20708
856.729	20678
856.862	20956
856.996	20754
857.13	20750
857.263	20864
857.397	20819
857.53	20693
857.664	20853
857.797	20868
857.931	20834
858.064	20750
858.197	20944
858.331	20731
858.464	20727
858.597	20598
858.731	20735
858.864	20739
858.997	20674
859.13	20853
859.263	20796
859.396	20998
859.529	20727
859.662	20758
859.795	20804
859.928	20853
860.061	20963
860.194	20804
860.327	20861
860.46	20682
860.592	20720
860.725	20914
860.858	20963
860.99	20807
861.123	20743
861.256	20571
861.388	20807
861.521	21428
861.653	20587
861.786	20507
861.918	20522
862.05	20621
862.183	20617
862.315	20724
862.447	20792
862.58	20629
862.712	20552
862.844	20518
862.976	20663
863.108	20545
863.24	20960
863.372	20427
863.504	20434
863.636	20381
863.768	20454
863.9	20499
864.032	20419
864.164	20473
864.296	20446
864.428	20533
864.559	20552
864.691	20583
864.823	20541
864.954	20480
865.086	20442
865.217	20488
865.349	20381
865.48	20370
865.612	20412
865.743	20381
865.875	20446
866.006	20343
866.137	20286
866.269	20366
866.4	20240
866.531	20438
866.662	20309
866.793	20240
866.924	20339
867.055	20408
867.186	20259
867.317	20221
867.448	20259
867.579	20275
867.71	20237
867.841	20237
867.972	20385
868.103	20248
868.233	20355
868.364	20256
868.495	20370
868.625	20530
868.756	20625
868.886	20358
869.017	20514
869.147	20705
869.278	20708
869.408	20655
869.539	20617
869.669	20659
869.799	20705
869.929	20697
870.06	20724
870.19	20887
870.32	20823
870.45	20998
870.58	20979
870.71	20979
870.84	20975
870.97	21051
871.1	20944
871.23	21051
871.36	21188
871.489	21089
871.619	21066
871.749	21150
871.879	21203
872.008	21340
872.138	21287
872.267	21241
872.397	21055
872.526	20872
872.656	21043
872.785	20994
872.915	21108
873.044	21256
873.173	21142
873.303	21184
873.432	21260
873.561	21355
873.69	21188
873.819	21161
873.948	21355
874.077	21112
874.206	21173
874.335	21096
874.464	21359
874.593	21458
874.722	21428
874.851	21500
874.979	21481
875.108	21500
875.237	21507
875.365	21401
875.494	21321
875.623	21507
875.751	21431
875.88	21431
876.008	21641
876.136	21599
876.265	21793
876.393	21865
876.521	21827
876.65	21934
876.778	21857
876.906	21732
877.034	21762
877.162	21781
877.29	21728
877.418	21812
877.546	21656
877.674	21728
877.802	21850
877.93	21846
878.058	21804
878.185	21648
878.313	21816
878.441	21953
878.568	21701
878.696	21747
878.824	21743
878.951	21918
879.079	21865
879.206	22070
879.333	21934
879.461	21724
879.588	21865
879.715	21888
879.842	22124
879.97	21831
880.097	21622
880.224	21629
880.351	21686
880.478	21519
880.605	21549
880.732	21599
880.859	21903
880.986	21564
881.112	21599
881.239	21397
881.366	21340
881.493	21279
881.619	21192
881.746	21252
881.872	21249
881.999	21123
882.125	21062
882.252	21062
882.378	21039
882.505	21340
882.631	21112
882.757	20876
882.883	21058
883.01	21032
883.136	20849
883.262	20758
883.388	20682
883.514	20830
883.64	20975
883.766	20769
883.892	20727
884.018	20845
884.143	20773
884.269	21017
884.395	20590
884.52	20568
884.646	20602
884.772	20564
884.897	20461
885.023	20598
885.148	20564
885.274	20701
885.399	20686
885.524	20511
885.65	20514
885.775	20625
885.9	20602
886.025	20640
886.15	20518
886.275	20465
886.4	20427
886.525	20404
886.65	20476
886.775	20465
886.9	20644
887.025	20720
887.149	20511
887.274	20480
887.399	20309
887.523	20248
887.648	20263
887.773	20267
887.897	20431
888.021	20298
888.146	20157
888.27	20400
888.395	20366
888.519	20271
888.643	20305
888.767	20415
888.891	20240
889.015	20180
889.139	20107
889.263	20191
889.387	20195
889.511	20366
889.635	20199
889.759	20111
889.883	20145
890.006	20187
890.13	20191
890.254	20062
890.377	19993
890.501	19898
890.624	19967
890.748	19928
890.871	19776
890.995	19727
891.118	19563
891.241	19784
891.364	19731
891.488	19902
891.611	19651
891.734	19719
891.857	19700
891.98	19677
892.103	19696
892.226	19784
892.349	19540
892.471	19457
892.594	19628
892.717	19575
892.839	19548
892.962	19597
893.085	19666
893.207	19537
893.33	19491
893.452	19487
893.575	19715
893.697	19537
893.819	19681
893.941	19818
894.064	19662
894.186	19601
894.308	19514
894.43	19704
894.552	19753
894.674	19696
894.796	19556
894.918	19734
895.04	19559
895.161	19734
895.283	19578
895.405	19529
895.526	19658
895.648	19556
895.769	19601
895.891	19647
896.012	19681
896.134	19594
896.255	19700
896.376	19544
896.498	19483
896.619	19693
896.74	19635
896.861	19727
896.982	19849
897.103	20069
897.224	19947
897.345	19795
897.466	19822
897.587	19849
897.708	19932
897.828	19887
897.949	19811
898.07	19556
898.19	19772
898.311	19890
898.431	19845
898.552	19772
898.672	19978
898.792	19951
898.913	19837
899.033	19776
899.153	19662
899.273	19502
899.393	19742
899.513	19575
899.633	19582
899.753	19506
899.873	19567
899.993	19586
900.113	19556
900.232	19594
900.352	19525
900.472	19369
900.591	19407
900.711	19312
900.83	19365
900.95	19468
901.069	19510
901.189	19251
901.308	19088
901.427	18943
901.546	18954
901.665	19019
901.784	18897
901.904	18741
902.023	18779
902.141	18563
902.26	18544
902.379	18547
902.498	18471
902.617	18479
902.735	18536
902.854	18334
902.973	18338
903.091	18106
903.21	18117
903.328	18201
903.446	17984
903.565	18041
903.683	17946
903.801	17794
903.919	17992
904.038	17897
904.156	17737
904.274	17722
904.392	17729
904.51	17684
904.627	17653
904.745	17809
904.863	17828
904.981	17562
905.098	17467
905.216	17482
905.334	17501
905.451	17452
905.569	17345
905.686	17543
905.803	17444
905.921	17174
906.038	17246
906.155	17296
906.272	17181
906.389	17117
906.506	17018
906.623	17052
906.74	16972
906.857	16828
906.974	16938
907.091	16934
907.208	17006
907.324	17025
907.441	16809
907.557	16710
907.674	16710
907.79	16584
907.907	16687
908.023	16805
908.139	16656
908.256	16542
908.372	16558
908.488	16573
908.604	16432
908.72	16325
908.836	16508
908.952	16280
909.068	16451
909.184	16527
909.3	16417
909.415	16440
909.531	16447
909.647	16116
909.762	16124
909.878	16082
909.993	16139
910.108	16086
910.224	16116
910.339	16131
910.454	16025
910.57	15964
910.685	15888
910.8	16158
910.915	16139
911.03	15911
911.145	15755
911.259	15774
911.374	15793
911.489	15728
911.604	15572
911.718	15542
911.833	15466
911.947	15393
912.062	15367
912.176	15397
912.291	15553
912.405	15515
912.519	15679
912.633	15587
912.748	15443
912.862	15363
912.976	15287
913.09	15119
913.204	15226
913.318	15344
913.431	15428
913.545	15329
913.659	15367
913.772	15230
913.886	15161
914	15062
914.113	15176
914.226	15211
914.34	15165
914.453	14998
914.566	15081
914.68	14994
914.793	14967
914.906	14853
915.019	14716
915.132	14705
915.245	14682
915.358	14769
915.47	14708
915.583	14670
915.696	14864
915.809	14762
915.921	14876
916.034	14716
916.146	14587
916.259	14587
916.371	14746
916.483	14720
916.595	14480
916.708	14594
916.82	14476
916.932	14404
917.044	14514
917.156	14533
917.268	14393
917.38	14438
917.491	14324
917.603	14400
917.715	14450
917.826	14503
917.938	14339
918.049	14229
918.161	14309
918.272	14454
918.384	14465
918.495	14366
918.606	14206
918.717	14020
918.828	14233
918.939	14134
919.05	14084
919.161	14161
919.272	13913
919.383	14001
919.494	14172
919.604	14358
919.715	14138
919.826	14134
919.936	14024
920.047	14126
920.157	14161
920.267	14305
920.378	14123
920.488	14054
920.598	14309
920.708	14499
920.818	14286
920.928	14210
921.038	14419
921.148	14385
921.258	14065
921.368	13982
921.477	13925
921.587	13879
921.697	13811
921.806	13837
921.916	13651
922.025	13620
922.134	13506
922.244	13529
922.353	13563
922.462	13426
922.571	13251
922.68	13289
922.789	13187
922.898	13152
923.007	13202
923.116	13206
923.224	13179
923.333	13187
923.442	13008
923.55	12947
923.659	13015
923.767	13023
923.876	12867
923.984	13012
924.092	12875
924.201	12951
924.309	12935
924.417	12890
924.525	12829
924.633	12833
924.741	13788
924.849	12650
924.956	12696
925.064	12597
925.172	12551
925.279	12578
925.387	12673
925.494	12608
925.602	12700
925.709	12681
925.816	12532
925.924	12608
926.031	12715
926.138	12464
926.245	12585
926.352	12521
926.459	12585
926.566	12677
926.673	12536
926.779	12346
926.886	12372
926.993	12182
927.099	12201
927.206	12144
927.312	12148
927.419	12163
927.525	12182
927.631	12102
927.737	12155
927.843	12064
927.95	11965
928.056	11969
928.162	12003
928.267	12053
928.373	12578
928.479	12068
928.585	11935
928.69	11847
928.796	11954
928.901	11828
929.007	11695
929.112	11885
929.218	11840
929.323	11783
929.428	11752
929.533	11897
929.638	11642
929.743	11699
929.848	11737
929.953	11794
930.058	11619
930.163	11459
930.267	11440
930.372	11577
930.477	11406
930.581	11611
930.685	11478
930.79	11265
930.894	11376
930.998	11250
931.103	11395
931.207	11006
931.311	10980
931.415	10934
931.519	10706
931.623	10706
