Data from test_V78500241_2829.txt Node
Date: Fri Mar 25 15:29:33 CST 2022
User: usil
Spectrometer: V785-0024
Trigger mode: 0
Integration Time (sec): 4.000000E-1
Scans to average: 1
Nonlinearity correction enabled: false
Boxcar width: 0
Storing dark spectrum: false
XAxis mode: Wavelengths
Number of Pixels in Spectrum: 1024
>>>>>Begin Spectral Data<<<<<
801.071	27241
801.214	27150
801.356	26902
801.499	26883
801.641	26902
801.783	26754
801.926	26872
802.068	26686
802.211	26781
802.353	26632
802.496	26488
802.638	26434
802.78	26336
802.923	26271
803.065	26305
803.208	26301
803.35	26381
803.492	26503
803.635	26716
803.777	26499
803.919	26552
804.061	26925
804.204	26735
804.346	26457
804.488	26427
804.63	26495
804.773	26522
804.915	26689
805.057	26716
805.199	26530
805.341	26663
805.483	26659
805.626	26746
805.768	26564
805.91	26773
806.052	26735
806.194	26613
806.336	26762
806.478	26530
806.62	26621
806.762	26845
806.904	26921
807.046	27325
807.188	27135
807.33	27157
807.472	27226
807.614	27108
807.756	26952
807.898	26811
808.04	26872
808.182	26826
808.324	26986
808.465	26944
808.607	27195
808.749	27310
808.891	27370
809.033	27344
809.174	27454
809.316	27306
809.458	27424
809.6	27131
809.741	27458
809.883	27466
810.025	27530
810.166	27469
810.308	27637
810.45	27538
810.591	27424
810.733	27374
810.875	27230
811.016	27123
811.158	27150
811.299	27405
811.441	27378
811.582	27355
811.724	27275
811.865	27249
812.007	27329
812.148	27173
812.29	27283
812.431	27378
812.573	27580
812.714	27762
812.855	27789
812.997	27888
813.138	27945
813.279	27941
813.421	27789
813.562	27717
813.703	27553
813.845	27587
813.986	27093
814.127	27028
814.268	26975
814.41	26994
814.551	27009
814.692	27036
814.833	26769
814.974	26963
815.115	27024
815.256	26785
815.397	26823
815.539	26781
815.68	26640
815.821	26731
815.962	26727
816.103	26739
816.244	26522
816.385	26530
816.526	26366
816.666	26263
816.807	26233
816.948	26305
817.089	26229
817.23	26248
817.371	26103
817.512	26153
817.653	26240
817.793	26290
817.934	26168
818.075	26168
818.216	26122
818.356	26142
818.497	26054
818.638	25807
818.778	25887
818.919	25875
819.06	25837
819.2	25982
819.341	26256
819.481	26172
819.622	26206
819.762	26461
819.903	26400
820.043	26298
820.184	26298
820.324	26271
820.465	26347
820.605	26358
820.746	26138
820.886	26035
821.026	26263
821.167	26229
821.307	26400
821.447	26210
821.588	26005
821.728	26043
821.868	25731
822.008	25746
822.149	25575
822.289	25655
822.429	25419
822.569	25278
822.709	25327
822.849	25232
822.99	25190
823.13	25069
823.27	25122
823.41	25015
823.55	24875
823.69	24989
823.83	25034
823.97	24878
824.11	24715
824.25	24787
824.389	24753
824.529	24829
824.669	24844
824.809	24837
824.949	24779
825.089	24798
825.228	24890
825.368	24601
825.508	24684
825.648	24661
825.787	24642
825.927	24684
826.067	24551
826.206	24616
826.346	24810
826.485	24719
826.625	24703
826.765	24700
826.904	24673
827.044	24486
827.183	24426
827.323	24319
827.462	24323
827.601	24372
827.741	24136
827.88	24243
828.02	24251
828.159	24277
828.298	24384
828.437	24232
828.577	24171
828.716	24475
828.855	24224
828.994	24064
829.134	23992
829.273	24087
829.412	23980
829.551	23946
829.69	24041
829.829	24102
829.968	24110
830.107	24011
830.246	23973
830.385	24026
830.524	23965
830.663	23775
830.802	23859
830.941	23699
831.08	23680
831.219	23737
831.357	23745
831.496	23878
831.635	23794
831.774	23653
831.913	23391
832.051	23497
832.19	23505
832.329	23337
832.467	23364
832.606	23265
832.744	23170
832.883	23220
833.022	23345
833.16	23303
833.299	23448
833.437	23296
833.576	23433
833.714	23360
833.852	23356
833.991	23459
834.129	23535
834.267	23539
834.406	23459
834.544	23372
834.682	23425
834.821	23330
834.959	23421
835.097	23356
835.235	23474
835.373	23326
835.511	23269
835.65	23220
835.788	23372
835.926	23079
836.064	23102
836.202	23041
836.34	23235
836.478	23216
836.615	23193
836.753	23227
836.891	23307
837.029	23425
837.167	23155
837.305	23162
837.443	23128
837.58	23006
837.718	23181
837.856	23025
837.993	22995
838.131	23060
838.269	22972
838.406	23079
838.544	22862
838.681	22885
838.819	22675
838.956	22607
839.094	22550
839.231	22573
839.369	22847
839.506	22999
839.643	22839
839.781	22713
839.918	22500
840.055	22599
840.193	22516
840.33	22569
840.467	22607
840.604	22580
840.742	22809
840.879	22352
841.016	22474
841.153	22367
841.29	22569
841.427	22497
841.564	22538
841.701	22451
841.838	22451
841.975	22352
842.112	22436
842.249	22497
842.385	22436
842.522	22508
842.659	22341
842.796	22112
842.933	22211
843.069	22181
843.206	22139
843.343	22238
843.479	22226
843.616	22333
843.752	22017
843.889	22036
844.025	22154
844.162	22063
844.298	22055
844.435	22006
844.571	21930
844.708	22082
844.844	22230
844.98	22207
845.117	22169
845.253	21968
845.389	21918
845.525	21945
845.661	21956
845.798	21793
845.934	21831
846.07	21682
846.206	21762
846.342	21751
846.478	21732
846.614	21629
846.75	21431
846.886	21568
847.022	21553
847.158	21507
847.294	21526
847.429	21644
847.565	21534
847.701	21656
847.837	21233
847.972	21233
848.108	21325
848.244	21340
848.379	21055
848.515	21108
848.65	21039
848.786	21127
848.921	21112
849.057	21169
849.192	21180
849.328	21207
849.463	21093
849.598	20963
849.734	21047
849.869	20944
850.004	20826
850.14	20910
850.275	20876
850.41	20773
850.545	20800
850.68	20933
850.815	20929
850.95	20758
851.085	21085
851.22	21085
851.355	20819
851.49	20872
851.625	20800
851.76	20925
851.895	20800
852.03	20785
852.165	20937
852.299	20994
852.434	20914
852.569	20838
852.703	20929
852.838	20842
852.973	20994
853.107	21066
853.242	20800
853.376	20701
853.511	20533
853.645	20670
853.78	20777
853.914	20621
854.048	20651
854.183	20590
854.317	20750
854.451	20815
854.585	20682
854.72	20750
854.854	20815
854.988	20602
855.122	20754
855.256	20587
855.39	20651
855.524	20785
855.658	20765
855.792	20720
855.926	20735
856.06	20746
856.194	20754
856.327	20640
856.461	20583
856.595	20617
856.729	20705
856.862	20777
856.996	20663
857.13	20758
857.263	20792
857.397	20788
857.53	20678
857.664	20743
857.797	20792
857.931	20800
858.064	20750
858.197	20800
858.331	20655
858.464	20568
858.597	20541
858.731	20613
858.864	20731
858.997	20765
859.13	20571
859.263	20609
859.396	20739
859.529	20682
859.662	20617
859.795	20674
859.928	20720
860.061	20712
860.194	20838
860.327	20712
860.46	20575
860.592	20762
860.725	20792
860.858	20876
860.99	20625
861.123	20613
861.256	20640
861.388	20602
861.521	21313
861.653	20583
861.786	20457
861.918	20518
862.05	20625
862.183	20579
862.315	20636
862.447	20602
862.58	20663
862.712	20438
862.844	20328
862.976	20438
863.108	20533
863.24	20895
863.372	20286
863.504	20290
863.636	20438
863.768	20488
863.9	20423
864.032	20180
864.164	20286
864.296	20370
864.428	20431
864.559	20427
864.691	20450
864.823	20305
864.954	20358
865.086	20374
865.217	20244
865.349	20214
865.48	20366
865.612	20313
865.743	20412
865.875	20233
866.006	20298
866.137	20164
866.269	20244
866.4	20389
866.531	20362
866.662	20161
866.793	20282
866.924	20233
867.055	20206
867.186	20278
867.317	20218
867.448	20077
867.579	20058
867.71	20092
867.841	20172
867.972	20256
868.103	20145
868.233	20282
868.364	20252
868.495	20271
868.625	20530
868.756	20590
868.886	20370
869.017	20484
869.147	20473
869.278	20602
869.408	20473
869.539	20484
869.669	20499
869.799	20621
869.929	20663
870.06	20594
870.19	20845
870.32	20762
870.45	20864
870.58	20883
870.71	20933
870.84	20963
870.97	20986
871.1	20826
871.23	21024
871.36	21020
871.489	20883
871.619	20986
871.749	21013
871.879	21195
872.008	21226
872.138	21116
872.267	21070
872.397	20933
872.526	20963
872.656	20834
872.785	20933
872.915	21138
873.044	21100
873.173	21066
873.303	21207
873.432	21096
873.561	21154
873.69	21127
873.819	20971
873.948	21268
874.077	21055
874.206	20998
874.335	21116
874.464	21188
874.593	21275
874.722	21207
874.851	21397
874.979	21329
875.108	21374
875.237	21241
875.365	21283
875.494	21241
875.623	21473
875.751	21283
875.88	21473
876.008	21389
876.136	21477
876.265	21675
876.393	21838
876.521	21709
876.65	21732
876.778	21694
876.906	21774
877.034	21553
877.162	21804
877.29	21713
877.418	21755
877.546	21686
877.674	21606
877.802	21606
877.93	21667
878.058	21686
878.185	21610
878.313	21595
878.441	21705
878.568	21492
878.696	21663
878.824	21629
878.951	21732
879.079	21846
879.206	22131
879.333	21804
879.461	21720
879.588	21789
879.715	21743
879.842	22013
879.97	21755
880.097	21542
880.224	21557
880.351	21473
880.478	21462
880.605	21469
880.732	21416
880.859	21846
880.986	21561
881.112	21545
881.239	21401
881.366	21336
881.493	21302
881.619	21058
881.746	21230
881.872	21150
881.999	20902
882.125	20921
882.252	21188
882.378	21161
882.505	21222
882.631	20986
882.757	20777
882.883	20883
883.01	20819
883.136	20785
883.262	20746
883.388	20575
883.514	20887
883.64	20807
883.766	20731
883.892	20655
884.018	20583
884.143	20746
884.269	20880
884.395	20526
884.52	20415
884.646	20454
884.772	20480
884.897	20244
885.023	20442
885.148	20461
885.274	20640
885.399	20507
885.524	20545
885.65	20533
885.775	20480
885.9	20419
886.025	20579
886.15	20552
886.275	20480
886.4	20362
886.525	20313
886.65	20237
886.775	20469
886.9	20583
887.025	20602
887.149	20362
887.274	20176
887.399	20221
887.523	20221
887.648	20161
887.773	20240
887.897	20278
888.021	20320
888.146	20183
888.27	20320
888.395	20271
888.519	20256
888.643	20278
888.767	20256
888.891	20168
889.015	20005
889.139	20164
889.263	19978
889.387	20126
889.511	20130
889.635	20195
889.759	19982
889.883	19970
890.006	20024
890.13	20077
890.254	19993
890.377	19955
890.501	19887
890.624	19704
890.748	19803
890.871	19742
890.995	19544
891.118	19521
891.241	19601
891.364	19655
891.488	19723
891.611	19658
891.734	19556
891.857	19681
891.98	19620
892.103	19757
892.226	19647
892.349	19635
892.471	19373
892.594	19563
892.717	19521
892.839	19571
892.962	19620
893.085	19552
893.207	19533
893.33	19453
893.452	19362
893.575	19556
893.697	19483
893.819	19628
893.941	19624
894.064	19624
894.186	19552
894.308	19449
894.43	19601
894.552	19727
894.674	19632
894.796	19476
894.918	19578
895.04	19468
895.161	19582
895.283	19715
895.405	19510
895.526	19480
895.648	19495
895.769	19499
895.891	19582
896.012	19616
896.134	19514
896.255	19548
896.376	19468
896.498	19609
896.619	19556
896.74	19480
896.861	19582
896.982	19856
897.103	20069
897.224	19776
897.345	19696
897.466	19772
897.587	19788
897.708	19849
897.828	19791
897.949	19700
898.07	19575
898.19	19731
898.311	19772
898.431	19712
898.552	19898
898.672	19799
898.792	19822
898.913	19708
899.033	19704
899.153	19590
899.273	19419
899.393	19514
899.513	19540
899.633	19559
899.753	19639
899.873	19335
899.993	19559
900.113	19491
900.232	19502
900.352	19419
900.472	19316
900.591	19343
900.711	19358
900.83	19297
900.95	19392
901.069	19327
901.189	19148
901.308	19080
901.427	18882
901.546	18947
901.665	18913
901.784	18905
901.904	18711
902.023	18555
902.141	18574
902.26	18418
902.379	18521
902.498	18544
902.617	18296
902.735	18559
902.854	18471
902.973	18369
903.091	18110
903.21	18110
903.328	18076
903.446	17984
903.565	17954
903.683	17908
903.801	17836
903.919	17878
904.038	17817
904.156	17646
904.274	17786
904.392	17657
904.51	17661
904.627	17615
904.745	17592
904.863	17672
904.981	17520
905.098	17410
905.216	17372
905.334	17455
905.451	17501
905.569	17353
905.686	17303
905.803	17349
905.921	17124
906.038	17296
906.155	17117
906.272	17022
906.389	17033
906.506	16904
906.623	16961
906.74	16862
906.857	16812
906.974	16889
907.091	16835
907.208	17041
907.324	16968
907.441	16839
907.557	16717
907.674	16599
907.79	16531
907.907	16489
908.023	16615
908.139	16550
908.256	16531
908.372	16512
908.488	16432
908.604	16398
908.72	16306
908.836	16329
908.952	16211
909.068	16371
909.184	16443
909.3	16333
909.415	16352
909.531	16390
909.647	16200
909.762	16154
909.878	16021
909.993	16082
910.108	16010
910.224	16044
910.339	16048
910.454	15991
910.57	15865
910.685	15827
910.8	16253
910.915	15975
911.03	15854
911.145	15675
911.259	15701
911.374	15507
911.489	15584
911.604	15526
911.718	15367
911.833	15363
911.947	15420
912.062	15298
912.176	15416
912.291	15374
912.405	15424
912.519	15523
912.633	15603
912.748	15428
912.862	15428
912.976	15279
913.09	15142
913.204	15119
913.318	15256
913.431	15325
913.545	15272
913.659	15214
913.772	15256
913.886	15043
914	15032
914.113	15100
914.226	15218
914.34	15066
914.453	14872
914.566	14986
914.68	14956
914.793	14830
914.906	14716
915.019	14689
915.132	14552
915.245	14663
915.358	14610
915.47	14602
915.583	14606
915.696	14629
915.809	14708
915.921	14838
916.034	14568
916.146	14518
916.259	14575
916.371	14648
916.483	14568
916.595	14499
916.708	14552
916.82	14370
916.932	14427
917.044	14438
917.156	14564
917.268	14396
917.38	14301
917.491	14294
917.603	14393
917.715	14423
917.826	14415
917.938	14317
918.049	14244
918.161	14218
918.272	14400
918.384	14370
918.495	14267
918.606	14081
918.717	13967
918.828	14081
918.939	14123
919.05	14065
919.161	14069
919.272	13868
919.383	13917
919.494	14107
919.604	14317
919.715	14149
919.826	13944
919.936	14107
920.047	14206
920.157	14073
920.267	14149
920.378	14016
920.488	14005
920.598	14259
920.708	14313
920.818	14282
920.928	14164
921.038	14301
921.148	14256
921.258	14039
921.368	13997
921.477	13868
921.587	13734
921.697	13616
921.806	13940
921.916	13624
922.025	13430
922.134	13499
922.244	13438
922.353	13506
922.462	13377
922.571	13236
922.68	13164
922.789	13103
922.898	13114
923.007	13091
923.116	13160
923.224	13164
923.333	12996
923.442	13046
923.55	12951
923.659	13065
923.767	13057
923.876	12916
923.984	12970
924.092	12833
924.201	12886
924.309	12760
924.417	12897
924.525	12665
924.633	12795
924.741	13544
924.849	12494
924.956	12760
925.064	12593
925.172	12479
925.279	12551
925.387	12566
925.494	12559
925.602	12612
925.709	12544
925.816	12494
925.924	12456
926.031	12528
926.138	12456
926.245	12551
926.352	12346
926.459	12525
926.566	12566
926.673	12391
926.779	12308
926.886	12357
926.993	12148
927.099	12106
927.206	12148
927.312	11988
927.419	12209
927.525	12072
927.631	12129
927.737	11996
927.843	11950
927.95	11821
928.056	11958
928.162	11965
928.267	12030
928.373	12597
928.479	12144
928.585	11752
928.69	11916
928.796	12007
928.901	11824
929.007	11623
929.112	11699
929.218	11714
929.323	11790
929.428	11566
929.533	11870
929.638	11646
929.743	11604
929.848	11608
929.953	11630
930.058	11543
930.163	11364
930.267	11326
930.372	11516
930.477	11311
930.581	11600
930.685	11452
930.79	11292
930.894	11216
930.998	11239
931.103	11383
931.207	11018
931.311	10949
931.415	10896
931.519	10733
931.623	10694
