Data from test_V78500241_1411.txt Node
Date: Fri Mar 25 15:19:40 CST 2022
User: usil
Spectrometer: V785-0024
Trigger mode: 0
Integration Time (sec): 4.000000E-1
Scans to average: 1
Nonlinearity correction enabled: false
Boxcar width: 0
Storing dark spectrum: false
XAxis mode: Wavelengths
Number of Pixels in Spectrum: 1024
>>>>>Begin Spectral Data<<<<<
801.071	28238
801.214	28067
801.356	27892
801.499	27770
801.641	27625
801.783	27557
801.926	27774
802.068	27694
802.211	27633
802.353	27466
802.496	27485
802.638	27477
802.78	27370
802.923	27321
803.065	27260
803.208	27401
803.35	27275
803.492	27496
803.635	27557
803.777	27454
803.919	27637
804.061	27888
804.204	27637
804.346	27504
804.488	27519
804.63	27412
804.773	27435
804.915	27557
805.057	27690
805.199	27507
805.341	27728
805.483	27846
805.626	27766
805.768	27450
805.91	27663
806.052	27671
806.194	27732
806.336	27876
806.478	27922
806.62	27793
806.762	27774
806.904	28143
807.046	28276
807.188	28166
807.33	28101
807.472	28162
807.614	28185
807.756	28207
807.898	28074
808.04	28150
808.182	27975
808.324	27975
808.465	28040
808.607	28238
808.749	28500
808.891	28390
809.033	28698
809.174	28451
809.316	28318
809.458	28306
809.6	28573
809.741	28500
809.883	28497
810.025	28702
810.166	28733
810.308	28618
810.45	28645
810.591	28592
810.733	28337
810.875	28527
811.016	28382
811.158	28211
811.299	28531
811.441	28531
811.582	28538
811.724	28417
811.865	28356
812.007	28489
812.148	28390
812.29	28432
812.431	28656
812.573	28653
812.714	28774
812.855	28900
812.997	29075
813.138	29296
813.279	29140
813.421	28911
813.562	28710
813.703	28717
813.845	28660
813.986	28405
814.127	28268
814.268	28131
814.41	28192
814.551	28090
814.692	28188
814.833	28021
814.974	28173
815.115	28211
815.256	28010
815.397	27895
815.539	28063
815.68	27804
815.821	27865
815.962	27975
816.103	27907
816.244	27903
816.385	27705
816.526	27629
816.666	27488
816.807	27374
816.948	27439
817.089	27462
817.23	27523
817.371	27469
817.512	27264
817.653	27378
817.793	27359
817.934	27450
818.075	27367
818.216	27348
818.356	27367
818.497	27321
818.638	27214
818.778	27230
818.919	27306
819.06	27302
819.2	27367
819.341	27439
819.481	27355
819.622	27625
819.762	27717
819.903	27724
820.043	27591
820.184	27492
820.324	27507
820.465	27583
820.605	27637
820.746	27572
820.886	27500
821.026	27405
821.167	27435
821.307	27386
821.447	27462
821.588	27408
821.728	27188
821.868	26986
822.008	26891
822.149	27032
822.289	26781
822.429	26609
822.569	26499
822.709	26514
822.849	26381
822.99	26412
823.13	26294
823.27	26320
823.41	26301
823.55	26176
823.69	26122
823.83	26317
823.97	26191
824.11	26039
824.25	25974
824.389	25986
824.529	26058
824.669	26187
824.809	26100
824.949	26263
825.089	26130
825.228	26046
825.368	25932
825.508	25887
825.648	25940
825.787	25921
825.927	26088
826.067	25955
826.206	25761
826.346	25860
826.485	25868
826.625	25887
826.765	26111
826.904	25852
827.044	25784
827.183	25635
827.323	25677
827.462	25674
827.601	25597
827.741	25537
827.88	25727
828.02	25472
828.159	25651
828.298	25506
828.437	25620
828.577	25578
828.716	25689
828.855	25521
828.994	25362
829.134	25369
829.273	25297
829.412	25312
829.551	25369
829.69	25289
829.829	25350
829.968	25426
830.107	25415
830.246	25289
830.385	25247
830.524	25304
830.663	25076
830.802	25122
830.941	24981
831.08	25012
831.219	24989
831.357	25072
831.496	25107
831.635	24951
831.774	24901
831.913	24973
832.051	24757
832.19	24760
832.329	24817
832.467	24654
832.606	24585
832.744	24494
832.883	24486
833.022	24521
833.16	24673
833.299	24787
833.437	24696
833.576	24745
833.714	24707
833.852	24741
833.991	24597
834.129	24677
834.267	24840
834.406	24574
834.544	24696
834.682	24635
834.821	24650
834.959	24833
835.097	24620
835.235	24711
835.373	24589
835.511	24776
835.65	24471
835.788	24498
835.926	24422
836.064	24414
836.202	24342
836.34	24521
836.478	24555
836.615	24441
836.753	24429
836.891	24677
837.029	24639
837.167	24464
837.305	24426
837.443	24464
837.58	24372
837.718	24410
837.856	24414
837.993	24281
838.131	24296
838.269	24338
838.406	24296
838.544	24045
838.681	24060
838.819	23999
838.956	23897
839.094	23874
839.231	23874
839.369	23984
839.506	24258
839.643	24079
839.781	23866
839.918	23722
840.055	23676
840.193	23794
840.33	23653
840.467	23615
840.604	23684
840.742	23931
840.879	23531
841.016	23573
841.153	23668
841.29	23882
841.427	23695
841.564	23714
841.701	23699
841.838	23661
841.975	23703
842.112	23611
842.249	23440
842.385	23429
842.522	23604
842.659	23455
842.796	23520
842.933	23360
843.069	23315
843.206	23474
843.343	23516
843.479	23379
843.616	23353
843.752	23166
843.889	23197
844.025	23429
844.162	23280
844.298	23227
844.435	23200
844.571	23280
844.708	23311
844.844	23265
844.98	23398
845.117	23364
845.253	23128
845.389	23098
845.525	23136
845.661	23079
845.798	22957
845.934	22961
846.07	22949
846.206	23018
846.342	23044
846.478	22965
846.614	22729
846.75	22557
846.886	22706
847.022	22771
847.158	22767
847.294	22672
847.429	22767
847.565	22809
847.701	22984
847.837	22424
847.972	22360
848.108	22428
848.244	22432
848.379	22367
848.515	22363
848.65	22280
848.786	22432
848.921	22295
849.057	22455
849.192	22402
849.328	22341
849.463	22341
849.598	22150
849.734	22135
849.869	22097
850.004	22036
850.14	21991
850.275	21972
850.41	22044
850.545	22139
850.68	22029
850.815	22063
850.95	22139
851.085	22204
851.22	22177
851.355	22059
851.49	22044
851.625	22086
851.76	22082
851.895	21983
852.03	21876
852.165	21994
852.299	22055
852.434	22051
852.569	22051
852.703	22032
852.838	22048
852.973	22253
853.107	22226
853.242	22055
853.376	21873
853.511	21789
853.645	21869
853.78	22040
853.914	21861
854.048	21838
854.183	21854
854.317	21937
854.451	21987
854.585	21892
854.72	21785
854.854	22006
854.988	21762
855.122	21854
855.256	21785
855.39	21728
855.524	21968
855.658	21835
855.792	21861
855.926	21846
856.06	21865
856.194	21968
856.327	21857
856.461	21797
856.595	21793
856.729	21797
856.862	21994
856.996	21770
857.13	21895
857.263	21949
857.397	21899
857.53	21827
857.664	21941
857.797	21884
857.931	21972
858.064	21922
858.197	21884
858.331	21793
858.464	21778
858.597	21808
858.731	21789
858.864	21850
858.997	21808
859.13	21888
859.263	21850
859.396	21941
859.529	21819
859.662	21816
859.795	21945
859.928	21903
860.061	22124
860.194	22090
860.327	21800
860.46	21930
860.592	21937
860.725	22029
860.858	22002
860.99	21819
861.123	21717
861.256	21622
861.388	21838
861.521	22466
861.653	21633
861.786	21701
861.918	21648
862.05	21789
862.183	21759
862.315	21736
862.447	21873
862.58	21842
862.712	21648
862.844	21561
862.976	21724
863.108	21660
863.24	21892
863.372	21564
863.504	21583
863.636	21530
863.768	21515
863.9	21557
864.032	21511
864.164	21622
864.296	21553
864.428	21701
864.559	21568
864.691	21576
864.823	21690
864.954	21469
865.086	21595
865.217	21348
865.349	21370
865.48	21428
865.612	21431
865.743	21492
865.875	21401
866.006	21306
866.137	21504
866.269	21526
866.4	21420
866.531	21317
866.662	21268
866.793	21344
866.924	21272
867.055	21431
867.186	21329
867.317	21344
867.448	21252
867.579	21214
867.71	21310
867.841	21359
867.972	21408
868.103	21344
868.233	21378
868.364	21317
868.495	21485
868.625	21610
868.756	21671
868.886	21507
869.017	21572
869.147	21701
869.278	21774
869.408	21644
869.539	21568
869.669	21629
869.799	21660
869.929	21736
870.06	21736
870.19	21907
870.32	21907
870.45	21926
870.58	22021
870.71	22150
870.84	22124
870.97	21930
871.1	21907
871.23	22105
871.36	22226
871.489	22173
871.619	22192
871.749	22211
871.879	22242
872.008	22352
872.138	22219
872.267	22135
872.397	22093
872.526	22006
872.656	22063
872.785	22128
872.915	22192
873.044	22360
873.173	22192
873.303	22341
873.432	22299
873.561	22375
873.69	22207
873.819	22261
873.948	22360
874.077	22188
874.206	22284
874.335	22246
874.464	22390
874.593	22451
874.722	22394
874.851	22398
874.979	22398
875.108	22485
875.237	22390
875.365	22341
875.494	22424
875.623	22592
875.751	22436
875.88	22303
876.008	22664
876.136	22554
876.265	22831
876.393	22930
876.521	22892
876.65	22843
876.778	22854
876.906	22793
877.034	22668
877.162	22717
877.29	22596
877.418	22896
877.546	22911
877.674	22687
877.802	22850
877.93	22759
878.058	22656
878.185	22535
878.313	22869
878.441	22733
878.568	22664
878.696	22660
878.824	22828
878.951	22869
879.079	22946
879.206	23090
879.333	22858
879.461	22866
879.588	23018
879.715	22847
879.842	23052
879.97	22706
880.097	22569
880.224	22474
880.351	22634
880.478	22824
880.605	22550
880.732	22592
880.859	22759
880.986	22634
881.112	22649
881.239	22508
881.366	22291
881.493	22204
881.619	22158
881.746	22230
881.872	22223
881.999	22139
882.125	22021
882.252	22181
882.378	22200
882.505	22230
882.631	22025
882.757	21869
882.883	21926
883.01	21865
883.136	21907
883.262	21682
883.388	21781
883.514	21812
883.64	21915
883.766	21717
883.892	21739
884.018	21694
884.143	21808
884.269	21884
884.395	21656
884.52	21458
884.646	21424
884.772	21447
884.897	21408
885.023	21488
885.148	21492
885.274	21583
885.399	21538
885.524	21492
885.65	21485
885.775	21462
885.9	21450
886.025	21625
886.15	21557
886.275	21344
886.4	21389
886.525	21336
886.65	21458
886.775	21351
886.9	21610
887.025	21564
887.149	21526
887.274	21275
887.399	21169
887.523	21256
887.648	21188
887.773	21199
887.897	21408
888.021	21306
888.146	21188
888.27	21222
888.395	21340
888.519	21279
888.643	21329
888.767	21313
888.891	21138
889.015	21055
889.139	21074
889.263	20960
889.387	21150
889.511	21310
889.635	21192
889.759	20906
889.883	21070
890.006	21055
890.13	21135
890.254	20960
890.377	20891
890.501	20811
890.624	20697
890.748	20868
890.871	20762
890.995	20568
891.118	20503
891.241	20636
891.364	20705
891.488	20819
891.611	20682
891.734	20621
891.857	20705
891.98	20602
892.103	20686
892.226	20625
892.349	20583
892.471	20530
892.594	20446
892.717	20530
892.839	20438
892.962	20587
893.085	20682
893.207	20480
893.33	20381
893.452	20507
893.575	20438
893.697	20514
893.819	20594
893.941	20724
894.064	20686
894.186	20336
894.308	20412
894.43	20533
894.552	20720
894.674	20537
894.796	20286
894.918	20442
895.04	20389
895.161	20530
895.283	20476
895.405	20332
895.526	20450
895.648	20499
895.769	20518
895.891	20602
896.012	20594
896.134	20495
896.255	20530
896.376	20484
896.498	20446
896.619	20530
896.74	20606
896.861	20549
896.982	20819
897.103	20887
897.224	20724
897.345	20735
897.466	20587
897.587	20693
897.708	20807
897.828	20670
897.949	20640
898.07	20526
898.19	20667
898.311	20674
898.431	20640
898.552	20712
898.672	20651
898.792	20758
898.913	20670
899.033	20590
899.153	20522
899.273	20408
899.393	20400
899.513	20492
899.633	20374
899.753	20427
899.873	20457
899.993	20507
900.113	20389
900.232	20454
900.352	20377
900.472	20301
900.591	20176
900.711	20339
900.83	20164
900.95	20366
901.069	20294
901.189	20096
901.308	19784
901.427	19750
901.546	19833
901.665	19841
901.784	19753
901.904	19647
902.023	19537
902.141	19373
902.26	19453
902.379	19434
902.498	19384
902.617	19278
902.735	19354
902.854	19278
902.973	19274
903.091	19122
903.21	19042
903.328	19084
903.446	18825
903.565	18833
903.683	18749
903.801	18623
903.919	18703
904.038	18722
904.156	18589
904.274	18585
904.392	18627
904.51	18483
904.627	18536
904.745	18570
904.863	18509
904.981	18338
905.098	18292
905.216	18220
905.334	18155
905.451	18163
905.569	18182
905.686	18308
905.803	18159
905.921	17950
906.038	18060
906.155	18019
906.272	17885
906.389	17935
906.506	17802
906.623	17710
906.74	17703
906.857	17634
906.974	17687
907.091	17729
907.208	17912
907.324	17790
907.441	17562
907.557	17417
907.674	17497
907.79	17391
907.907	17433
908.023	17383
908.139	17482
908.256	17471
908.372	17349
908.488	17258
908.604	17239
908.72	17117
908.836	17261
908.952	17117
909.068	17265
909.184	17258
909.3	17083
909.415	17109
909.531	17147
909.647	16942
909.762	16889
909.878	16927
909.993	16828
910.108	16946
910.224	16793
910.339	16911
910.454	16675
910.57	16622
910.685	16580
910.8	16809
910.915	16835
911.03	16622
911.145	16443
911.259	16489
911.374	16390
911.489	16348
911.604	16379
911.718	16185
911.833	16219
911.947	16044
912.062	16059
912.176	16166
912.291	16234
912.405	16105
912.519	16249
912.633	16341
912.748	16158
912.862	16223
912.976	16055
913.09	15922
913.204	15846
913.318	15972
913.431	16059
913.545	16101
913.659	15968
913.772	15953
913.886	15819
914	15884
914.113	15812
914.226	15918
914.34	15911
914.453	15766
914.566	15774
914.68	15671
914.793	15663
914.906	15416
915.019	15336
915.132	15310
915.245	15355
915.358	15389
915.47	15488
915.583	15424
915.696	15397
915.809	15557
915.921	15454
916.034	15428
916.146	15310
916.259	15363
916.371	15386
916.483	15313
916.595	15214
916.708	15329
916.82	15211
916.932	15138
917.044	15218
917.156	15127
917.268	14982
917.38	15047
917.491	14982
917.603	15009
917.715	15157
917.826	15085
917.938	15024
918.049	14872
918.161	15036
918.272	15180
918.384	15097
918.495	14872
918.606	14777
918.717	14701
918.828	14857
918.939	14929
919.05	14697
919.161	14804
919.272	14674
919.383	14659
919.494	14777
919.604	14921
919.715	14663
919.826	14746
919.936	14735
920.047	14845
920.157	14788
920.267	14845
920.378	14708
920.488	14693
920.598	14853
920.708	15013
920.818	14838
920.928	14891
921.038	14895
921.148	15020
921.258	14712
921.368	14712
921.477	14545
921.587	14484
921.697	14423
921.806	14465
921.916	14404
922.025	14157
922.134	14202
922.244	14077
922.353	14149
922.462	13982
922.571	13913
922.68	13803
922.789	13841
922.898	13803
923.007	13719
923.116	13765
923.224	13715
923.333	13750
923.442	13719
923.55	13582
923.659	13556
923.767	13689
923.876	13438
923.984	13594
924.092	13411
924.201	13586
924.309	13491
924.417	13445
924.525	13510
924.633	13483
924.741	14119
924.849	13217
924.956	13362
925.064	13202
925.172	13080
925.279	13103
925.387	13156
925.494	13160
925.602	13240
925.709	13171
925.816	13080
925.924	13149
926.031	13160
926.138	13091
926.245	13122
926.352	13050
926.459	13118
926.566	13137
926.673	12962
926.779	12939
926.886	12875
926.993	12745
927.099	12711
927.206	12601
927.312	12642
927.419	12719
927.525	12677
927.631	12802
927.737	12612
927.843	12559
927.95	12433
928.056	12536
928.162	12483
928.267	12540
928.373	13225
928.479	12551
928.585	12395
928.69	12555
928.796	12555
928.901	12395
929.007	12235
929.112	12429
929.218	12315
929.323	12232
929.428	12182
929.533	12369
929.638	12133
929.743	12178
929.848	12247
929.953	12182
930.058	12102
930.163	11984
930.267	12019
930.372	12057
930.477	11927
930.581	12205
930.685	11958
930.79	11832
930.894	11843
930.998	11775
931.103	11950
931.207	11581
931.311	11528
931.415	11315
931.519	11239
931.623	11193
