Data from test_V78500241_3324.txt Node
Date: Fri Mar 25 15:33:00 CST 2022
User: usil
Spectrometer: V785-0024
Trigger mode: 0
Integration Time (sec): 4.000000E-1
Scans to average: 1
Nonlinearity correction enabled: false
Boxcar width: 0
Storing dark spectrum: false
XAxis mode: Wavelengths
Number of Pixels in Spectrum: 1024
>>>>>Begin Spectral Data<<<<<
801.071	27291
801.214	27165
801.356	27028
801.499	26937
801.641	26880
801.783	26921
801.926	26838
802.068	26891
802.211	26762
802.353	26842
802.496	26667
802.638	26511
802.78	26438
802.923	26313
803.065	26244
803.208	26438
803.35	26514
803.492	26594
803.635	26731
803.777	26514
803.919	26682
804.061	26880
804.204	26648
804.346	26606
804.488	26651
804.63	26602
804.773	26518
804.915	26625
805.057	26743
805.199	26594
805.341	26716
805.483	26670
805.626	26602
805.768	26655
805.91	26826
806.052	26796
806.194	26495
806.336	26857
806.478	26644
806.62	26716
806.762	26819
806.904	26921
807.046	27188
807.188	27184
807.33	27142
807.472	27081
807.614	26967
807.756	27077
807.898	26944
808.04	26849
808.182	26979
808.324	26982
808.465	27036
808.607	27146
808.749	27340
808.891	27500
809.033	27580
809.174	27233
809.316	27302
809.458	27332
809.6	27264
809.741	27431
809.883	27386
810.025	27450
810.166	27511
810.308	27443
810.45	27462
810.591	27454
810.733	27485
810.875	27378
811.016	27173
811.158	27161
811.299	27313
811.441	27515
811.582	27572
811.724	27294
811.865	27291
812.007	27245
812.148	27302
812.29	27283
812.431	27523
812.573	27644
812.714	27720
812.855	27930
812.997	27770
813.138	27991
813.279	27953
813.421	27876
813.562	27865
813.703	27713
813.845	27507
813.986	27214
814.127	27195
814.268	26948
814.41	27009
814.551	26990
814.692	27116
814.833	27020
814.974	26899
815.115	26940
815.256	26807
815.397	26906
815.539	26887
815.68	26739
815.821	26678
815.962	26811
816.103	26739
816.244	26545
816.385	26518
816.526	26488
816.666	26408
816.807	26183
816.948	26374
817.089	26453
817.23	26210
817.371	26278
817.512	26256
817.653	26157
817.793	26256
817.934	26195
818.075	26358
818.216	26237
818.356	26134
818.497	26172
818.638	25974
818.778	26008
818.919	25940
819.06	26039
819.2	26126
819.341	26225
819.481	26145
819.622	26389
819.762	26526
819.903	26507
820.043	26358
820.184	26301
820.324	26393
820.465	26503
820.605	26457
820.746	26214
820.886	26309
821.026	26263
821.167	26202
821.307	26313
821.447	26252
821.588	26218
821.728	26031
821.868	25883
822.008	25696
822.149	25708
822.289	25643
822.429	25384
822.569	25308
822.709	25373
822.849	25426
822.99	25228
823.13	25190
823.27	25072
823.41	25046
823.55	24970
823.69	25072
823.83	25000
823.97	24977
824.11	24802
824.25	24829
824.389	24840
824.529	24928
824.669	24913
824.809	24863
824.949	24943
825.089	24951
825.228	24943
825.368	24654
825.508	24757
825.648	24703
825.787	24745
825.927	24909
826.067	24635
826.206	24730
826.346	24768
826.485	24665
826.625	24783
826.765	24760
826.904	24665
827.044	24494
827.183	24467
827.323	24369
827.462	24483
827.601	24395
827.741	24456
827.88	24319
828.02	24391
828.159	24346
828.298	24426
828.437	24388
828.577	24369
828.716	24369
828.855	24403
828.994	24220
829.134	24239
829.273	24190
829.412	24182
829.551	24182
829.69	24209
829.829	24194
829.968	24243
830.107	24163
830.246	24148
830.385	24102
830.524	24098
830.663	23927
830.802	23874
830.941	23756
831.08	23722
831.219	23851
831.357	23889
831.496	23904
831.635	23809
831.774	23676
831.913	23665
832.051	23452
832.19	23642
832.329	23573
832.467	23493
832.606	23436
832.744	23303
832.883	23425
833.022	23417
833.16	23345
833.299	23490
833.437	23406
833.576	23463
833.714	23455
833.852	23634
833.991	23592
834.129	23642
834.267	23661
834.406	23589
834.544	23520
834.682	23444
834.821	23516
834.959	23608
835.097	23372
835.235	23474
835.373	23486
835.511	23455
835.65	23379
835.788	23433
835.926	23178
836.064	23132
836.202	23208
836.34	23391
836.478	23474
836.615	23356
836.753	23326
836.891	23341
837.029	23414
837.167	23242
837.305	23258
837.443	23261
837.58	23261
837.718	23303
837.856	23280
837.993	23147
838.131	23094
838.269	23132
838.406	23239
838.544	23060
838.681	22809
838.819	22869
838.956	22740
839.094	22607
839.231	22847
839.369	22835
839.506	23147
839.643	22968
839.781	22596
839.918	22744
840.055	22687
840.193	22603
840.33	22664
840.467	22584
840.604	22641
840.742	22881
840.879	22493
841.016	22603
841.153	22531
841.29	22736
841.427	22607
841.564	22596
841.701	22656
841.838	22462
841.975	22542
842.112	22462
842.249	22516
842.385	22337
842.522	22645
842.659	22481
842.796	22348
842.933	22329
843.069	22428
843.206	22356
843.343	22470
843.479	22440
843.616	22363
843.752	22234
843.889	22185
844.025	22352
844.162	22135
844.298	22379
844.435	22200
844.571	22101
844.708	22261
844.844	22356
844.98	22261
845.117	22242
845.253	22093
845.389	22010
845.525	22082
845.661	22059
845.798	21964
845.934	22036
846.07	21759
846.206	21926
846.342	21956
846.478	21774
846.614	21660
846.75	21561
846.886	21625
847.022	21663
847.158	21743
847.294	21660
847.429	21656
847.565	21542
847.701	21895
847.837	21431
847.972	21245
848.108	21500
848.244	21420
848.379	21294
848.515	21363
848.65	21260
848.786	21214
848.921	21173
849.057	21416
849.192	21428
849.328	21260
849.463	21127
849.598	21226
849.734	21020
849.869	21142
850.004	21036
850.14	20979
850.275	21005
850.41	21017
850.545	20941
850.68	21116
850.815	20963
850.95	20998
851.085	21131
851.22	21096
851.355	20971
851.49	20842
851.625	20963
851.76	20967
851.895	20910
852.03	20963
852.165	20910
852.299	21032
852.434	21096
852.569	20975
852.703	20921
852.838	21047
852.973	21161
853.107	21104
853.242	20895
853.376	20937
853.511	20750
853.645	20788
853.78	20918
853.914	20830
854.048	20716
854.183	20762
854.317	20956
854.451	21013
854.585	20910
854.72	20845
854.854	20807
854.988	20735
855.122	20861
855.256	20560
855.39	20967
855.524	20948
855.658	20781
855.792	20902
855.926	20929
856.06	20868
856.194	20800
856.327	20826
856.461	20708
856.595	20712
856.729	20765
856.862	20929
856.996	20781
857.13	20883
857.263	20967
857.397	20819
857.53	20708
857.664	20864
857.797	20891
857.931	20933
858.064	20876
858.197	21039
858.331	20834
858.464	20777
858.597	20739
858.731	20754
858.864	20876
858.997	20792
859.13	20739
859.263	20876
859.396	20933
859.529	20864
859.662	20739
859.795	20750
859.928	20727
860.061	20929
860.194	20872
860.327	20902
860.46	20773
860.592	20883
860.725	20963
860.858	20990
860.99	20857
861.123	20590
861.256	20781
861.388	20708
861.521	21435
861.653	20796
861.786	20514
861.918	20613
862.05	20720
862.183	20826
862.315	20838
862.447	20815
862.58	20731
862.712	20571
862.844	20530
862.976	20609
863.108	20606
863.24	21074
863.372	20461
863.504	20412
863.636	20476
863.768	20590
863.9	20556
864.032	20412
864.164	20461
864.296	20670
864.428	20667
864.559	20594
864.691	20518
864.823	20606
864.954	20465
865.086	20606
865.217	20362
865.349	20370
865.48	20347
865.612	20446
865.743	20644
865.875	20511
866.006	20408
866.137	20465
866.269	20446
866.4	20522
866.531	20381
866.662	20343
866.793	20374
866.924	20438
867.055	20507
867.186	20427
867.317	20381
867.448	20290
867.579	20240
867.71	20195
867.841	20358
867.972	20381
868.103	20366
868.233	20404
868.364	20358
868.495	20423
868.625	20659
868.756	20667
868.886	20568
869.017	20549
869.147	20609
869.278	20743
869.408	20552
869.539	20492
869.669	20716
869.799	20636
869.929	20750
870.06	20785
870.19	20944
870.32	20986
870.45	20918
870.58	21024
870.71	21165
870.84	21203
870.97	21058
871.1	21089
871.23	21074
871.36	21188
871.489	21207
871.619	21173
871.749	21195
871.879	21317
872.008	21294
872.138	21245
872.267	21108
872.397	21123
872.526	21070
872.656	21058
872.785	20963
872.915	21199
873.044	21382
873.173	21218
873.303	21199
873.432	21363
873.561	21382
873.69	21169
873.819	21302
873.948	21268
874.077	21317
874.206	21230
874.335	21192
874.464	21443
874.593	21507
874.722	21485
874.851	21431
874.979	21431
875.108	21515
875.237	21431
875.365	21416
875.494	21485
875.623	21629
875.751	21431
875.88	21469
876.008	21599
876.136	21774
876.265	21922
876.393	22017
876.521	21972
876.65	21850
876.778	21892
876.906	21819
877.034	21827
877.162	21934
877.29	21846
877.418	21838
877.546	21835
877.674	21854
877.802	21701
877.93	21789
878.058	21770
878.185	21732
878.313	21774
878.441	21770
878.568	21637
878.696	21785
878.824	21884
878.951	21907
879.079	21979
879.206	22112
879.333	21983
879.461	21827
879.588	21949
879.715	22040
879.842	22048
879.97	21922
880.097	21606
880.224	21625
880.351	21720
880.478	21785
880.605	21644
880.732	21686
880.859	21934
880.986	21663
881.112	21698
881.239	21515
881.366	21447
881.493	21466
881.619	21310
881.746	21306
881.872	21363
881.999	21237
882.125	21214
882.252	21256
882.378	21237
882.505	21355
882.631	21085
882.757	21001
882.883	21074
883.01	21043
883.136	20849
883.262	20838
883.388	20731
883.514	21013
883.64	21036
883.766	20933
883.892	20739
884.018	20659
884.143	20861
884.269	21017
884.395	20750
884.52	20659
884.646	20640
884.772	20522
884.897	20514
885.023	20617
885.148	20689
885.274	20629
885.399	20724
885.524	20579
885.65	20670
885.775	20514
885.9	20549
886.025	20636
886.15	20682
886.275	20602
886.4	20518
886.525	20583
886.65	20568
886.775	20533
886.9	20686
887.025	20887
887.149	20579
887.274	20408
887.399	20377
887.523	20286
887.648	20210
887.773	20286
887.897	20507
888.021	20492
888.146	20366
888.27	20434
888.395	20377
888.519	20454
888.643	20370
888.767	20492
888.891	20229
889.015	20164
889.139	20328
889.263	20161
889.387	20313
889.511	20438
889.635	20313
889.759	20149
889.883	20122
890.006	20210
890.13	20385
890.254	20065
890.377	20176
890.501	19940
890.624	19925
890.748	20027
890.871	19860
890.995	19833
891.118	19750
891.241	19734
891.364	19719
891.488	19944
891.611	19856
891.734	19814
891.857	19788
891.98	19841
892.103	19921
892.226	19734
892.349	19666
892.471	19647
892.594	19757
892.717	19647
892.839	19658
892.962	19734
893.085	19818
893.207	19685
893.33	19441
893.452	19563
893.575	19807
893.697	19620
893.819	19795
893.941	19925
894.064	19818
894.186	19681
894.308	19639
894.43	19681
894.552	19803
894.674	19849
894.796	19616
894.918	19685
895.04	19613
895.161	19845
895.283	19712
895.405	19506
895.526	19704
895.648	19632
895.769	19750
895.891	19727
896.012	19776
896.134	19765
896.255	19700
896.376	19552
896.498	19784
896.619	19662
896.74	19753
896.861	19795
896.982	20031
897.103	20115
897.224	19856
897.345	19795
897.466	19841
897.587	19959
897.708	20084
897.828	19989
897.949	19731
898.07	19803
898.19	19814
898.311	19875
898.431	19909
898.552	19894
898.672	19944
898.792	19928
898.913	19845
899.033	19719
899.153	19765
899.273	19601
899.393	19609
899.513	19662
899.633	19613
899.753	19655
899.873	19616
899.993	19559
900.113	19582
900.232	19689
900.352	19506
900.472	19464
900.591	19415
900.711	19487
900.83	19434
900.95	19563
901.069	19548
901.189	19327
901.308	19004
901.427	19000
901.546	18966
901.665	19118
901.784	19091
901.904	18897
902.023	18772
902.141	18597
902.26	18532
902.379	18642
902.498	18544
902.617	18509
902.735	18525
902.854	18410
902.973	18422
903.091	18235
903.21	18148
903.328	18190
903.446	18144
903.565	17969
903.683	18053
903.801	17958
903.919	18003
904.038	17977
904.156	17821
904.274	17885
904.392	17843
904.51	17805
904.627	17764
904.745	17752
904.863	17794
904.981	17573
905.098	17551
905.216	17459
905.334	17474
905.451	17471
905.569	17459
905.686	17505
905.803	17478
905.921	17292
906.038	17353
906.155	17280
906.272	17159
906.389	17246
906.506	17056
906.623	17067
906.74	16995
906.857	16847
906.974	16820
907.091	17071
907.208	17128
907.324	17048
907.441	16900
907.557	16717
907.674	16740
907.79	16721
907.907	16706
908.023	16713
908.139	16782
908.256	16668
908.372	16611
908.488	16599
908.604	16554
908.72	16428
908.836	16512
908.952	16318
909.068	16405
909.184	16470
909.3	16375
909.415	16432
909.531	16402
909.647	16306
909.762	16253
909.878	16097
909.993	16226
910.108	16192
910.224	16101
910.339	16040
910.454	15975
910.57	16036
910.685	16002
910.8	16226
910.915	16147
911.03	15895
911.145	15770
911.259	15880
911.374	15793
911.489	15595
911.604	15564
911.718	15454
911.833	15523
911.947	15614
912.062	15321
912.176	15462
912.291	15500
912.405	15443
912.519	15770
912.633	15770
912.748	15507
912.862	15504
912.976	15351
913.09	15272
913.204	15325
913.318	15310
913.431	15481
913.545	15447
913.659	15485
913.772	15264
913.886	15169
914	15077
914.113	15348
914.226	15241
914.34	15317
914.453	14952
914.566	15195
914.68	14998
914.793	15055
914.906	14800
915.019	14727
915.132	14712
915.245	14697
915.358	14640
915.47	14769
915.583	14678
915.696	14788
915.809	14792
915.921	14914
916.034	14754
916.146	14705
916.259	14689
916.371	14754
916.483	14739
916.595	14621
916.708	14583
916.82	14552
916.932	14640
917.044	14583
917.156	14568
917.268	14552
917.38	14476
917.491	14434
917.603	14408
917.715	14518
917.826	14442
917.938	14427
918.049	14298
918.161	14461
918.272	14598
918.384	14522
918.495	14457
918.606	14244
918.717	14164
918.828	14115
918.939	14309
919.05	14134
919.161	14233
919.272	13951
919.383	14005
919.494	14286
919.604	14366
919.715	14202
919.826	14096
919.936	14149
920.047	14248
920.157	14164
920.267	14412
920.378	14111
920.488	14218
920.598	14389
920.708	14446
920.818	14336
920.928	14282
921.038	14408
921.148	14427
921.258	14142
921.368	14027
921.477	13883
921.587	13883
921.697	13807
921.806	13947
921.916	13674
922.025	13647
922.134	13453
922.244	13563
922.353	13552
922.462	13377
922.571	13411
922.68	13270
922.789	13175
922.898	13080
923.007	13126
923.116	13160
923.224	13198
923.333	13194
923.442	13129
923.55	13031
923.659	13110
923.767	13076
923.876	13019
923.984	13031
924.092	12996
924.201	12954
924.309	12913
924.417	12939
924.525	12897
924.633	12909
924.741	13811
924.849	12665
924.956	12787
925.064	12646
925.172	12597
925.279	12623
925.387	12650
925.494	12646
925.602	12760
925.709	12627
925.816	12536
925.924	12597
926.031	12559
926.138	12574
926.245	12559
926.352	12547
926.459	12563
926.566	12616
926.673	12528
926.779	12350
926.886	12369
926.993	12254
927.099	12171
927.206	12152
927.312	12216
927.419	12213
927.525	12235
927.631	12148
927.737	12049
927.843	12057
927.95	11912
928.056	12049
928.162	12064
928.267	12072
928.373	12646
928.479	12129
928.585	11901
928.69	12003
928.796	11977
928.901	11859
929.007	11729
929.112	11840
929.218	11882
929.323	11847
929.428	11821
929.533	11889
929.638	11733
929.743	11790
929.848	11790
929.953	11805
930.058	11596
930.163	11391
930.267	11455
930.372	11570
930.477	11421
930.581	11619
930.685	11421
930.79	11330
930.894	11406
930.998	11303
931.103	11452
931.207	11109
931.311	10984
931.415	10942
931.519	10740
931.623	10729
