Data from test_V78500241_3219.txt Node
Date: Fri Mar 25 15:32:16 CST 2022
User: usil
Spectrometer: V785-0024
Trigger mode: 0
Integration Time (sec): 4.000000E-1
Scans to average: 1
Nonlinearity correction enabled: false
Boxcar width: 0
Storing dark spectrum: false
XAxis mode: Wavelengths
Number of Pixels in Spectrum: 1024
>>>>>Begin Spectral Data<<<<<
801.071	27062
801.214	27039
801.356	26944
801.499	26861
801.641	26712
801.783	26811
801.926	26872
802.068	26746
802.211	26686
802.353	26689
802.496	26431
802.638	26465
802.78	26408
802.923	26240
803.065	26317
803.208	26362
803.35	26404
803.492	26469
803.635	26560
803.777	26503
803.919	26503
804.061	26781
804.204	26602
804.346	26476
804.488	26533
804.63	26495
804.773	26358
804.915	26507
805.057	26549
805.199	26457
805.341	26651
805.483	26705
805.626	26568
805.768	26644
805.91	26404
806.052	26621
806.194	26629
806.336	26830
806.478	26587
806.62	26716
806.762	26743
806.904	26940
807.046	27138
807.188	27062
807.33	27085
807.472	27081
807.614	27066
807.756	26994
807.898	26826
808.04	26750
808.182	26796
808.324	26830
808.465	27005
808.607	27001
808.749	27039
808.891	27272
809.033	27363
809.174	27279
809.316	27165
809.458	27207
809.6	27264
809.741	27355
809.883	27291
810.025	27469
810.166	27618
810.308	27625
810.45	27443
810.591	27511
810.733	27298
810.875	27127
811.016	26975
811.158	27199
811.299	27348
811.441	27332
811.582	27355
811.724	27252
811.865	27173
812.007	27283
812.148	27123
812.29	27214
812.431	27405
812.573	27526
812.714	27701
812.855	27622
812.997	27720
813.138	28006
813.279	27778
813.421	27743
813.562	27538
813.703	27462
813.845	27416
813.986	27036
814.127	27077
814.268	26826
814.41	26853
814.551	26705
814.692	26895
814.833	26845
814.974	26895
815.115	26788
815.256	26651
815.397	26758
815.539	26743
815.68	26609
815.821	26526
815.962	26693
816.103	26541
816.244	26404
816.385	26374
816.526	26282
816.666	26199
816.807	26054
816.948	26358
817.089	26164
817.23	26058
817.371	26191
817.512	25936
817.653	26176
817.793	26149
817.934	26084
818.075	26248
818.216	26149
818.356	26084
818.497	25978
818.638	25932
818.778	25791
818.919	25871
819.06	26100
819.2	26031
819.341	26206
819.481	26168
819.622	26214
819.762	26499
819.903	26396
820.043	26339
820.184	26298
820.324	26176
820.465	26343
820.605	26263
820.746	26286
820.886	25982
821.026	26183
821.167	26168
821.307	26324
821.447	26119
821.588	26043
821.728	25875
821.868	25814
822.008	25635
822.149	25590
822.289	25533
822.429	25308
822.569	25274
822.709	25472
822.849	25084
822.99	25000
823.13	24973
823.27	24966
823.41	24935
823.55	24684
823.69	24928
823.83	24905
823.97	24905
824.11	24760
824.25	24798
824.389	24741
824.529	24779
824.669	24654
824.809	24783
824.949	24768
825.089	24715
825.228	24726
825.368	24551
825.508	24642
825.648	24544
825.787	24658
825.927	24749
826.067	24544
826.206	24604
826.346	24719
826.485	24738
826.625	24544
826.765	24817
826.904	24711
827.044	24315
827.183	24441
827.323	24243
827.462	24357
827.601	24300
827.741	24254
827.88	24304
828.02	24289
828.159	24235
828.298	24304
828.437	24300
828.577	24117
828.716	24289
828.855	24270
828.994	23961
829.134	24079
829.273	24129
829.412	23931
829.551	23961
829.69	23992
829.829	24068
829.968	24038
830.107	24121
830.246	24038
830.385	23999
830.524	23904
830.663	23783
830.802	23805
830.941	23611
831.08	23562
831.219	23699
831.357	23752
831.496	23779
831.635	23608
831.774	23391
831.913	23440
832.051	23490
832.19	23497
832.329	23501
832.467	23318
832.606	23345
832.744	23356
832.883	23315
833.022	23261
833.16	23280
833.299	23387
833.437	23258
833.576	23497
833.714	23452
833.852	23440
833.991	23334
834.129	23554
834.267	23459
834.406	23383
834.544	23528
834.682	23402
834.821	23250
834.959	23421
835.097	23330
835.235	23402
835.373	23398
835.511	23337
835.65	23284
835.788	23277
835.926	23113
836.064	23159
836.202	23102
836.34	23227
836.478	23360
836.615	23189
836.753	23265
836.891	23307
837.029	23296
837.167	23136
837.305	23109
837.443	23197
837.58	23064
837.718	23159
837.856	23025
837.993	23052
838.131	23109
838.269	22934
838.406	23018
838.544	22949
838.681	22713
838.819	22656
838.956	22535
839.094	22535
839.231	22588
839.369	22866
839.506	22911
839.643	22915
839.781	22687
839.918	22561
840.055	22603
840.193	22577
840.33	22527
840.467	22466
840.604	22538
840.742	22733
840.879	22417
841.016	22413
841.153	22443
841.29	22580
841.427	22523
841.564	22500
841.701	22554
841.838	22512
841.975	22398
842.112	22497
842.249	22291
842.385	22348
842.522	22489
842.659	22394
842.796	22154
842.933	22135
843.069	22310
843.206	22143
843.343	22272
843.479	22177
843.616	22196
843.752	22021
843.889	22112
844.025	22257
844.162	22055
844.298	22101
844.435	22067
844.571	21895
844.708	22109
844.844	22284
844.98	22097
845.117	22139
845.253	21930
845.389	21915
845.525	21998
845.661	22013
845.798	21755
845.934	21873
846.07	21675
846.206	21991
846.342	21892
846.478	21819
846.614	21629
846.75	21564
846.886	21538
847.022	21599
847.158	21519
847.294	21496
847.429	21507
847.565	21447
847.701	21728
847.837	21302
847.972	21230
848.108	21226
848.244	21382
848.379	21116
848.515	21070
848.65	21062
848.786	21176
848.921	21047
849.057	21180
849.192	21157
849.328	21051
849.463	21051
849.598	21123
849.734	20986
849.869	21017
850.004	20925
850.14	20963
850.275	20883
850.41	20811
850.545	20857
850.68	20838
850.815	20899
850.95	20876
851.085	20982
851.22	21081
851.355	20861
851.49	20864
851.625	20944
851.76	20785
851.895	20667
852.03	20815
852.165	20895
852.299	20967
852.434	20956
852.569	20910
852.703	20746
852.838	20769
852.973	20948
853.107	21154
853.242	20769
853.376	20743
853.511	20648
853.645	20659
853.78	20792
853.914	20689
854.048	20693
854.183	20720
854.317	20674
854.451	20960
854.585	20670
854.72	20724
854.854	20861
854.988	20621
855.122	20663
855.256	20674
855.39	20678
855.524	20823
855.658	20739
855.792	20686
855.926	20758
856.06	20689
856.194	20655
856.327	20739
856.461	20781
856.595	20708
856.729	20762
856.862	20769
856.996	20731
857.13	20804
857.263	20891
857.397	20781
857.53	20667
857.664	20651
857.797	20648
857.931	20701
858.064	20701
858.197	20743
858.331	20667
858.464	20648
858.597	20503
858.731	20731
858.864	20701
858.997	20750
859.13	20655
859.263	20785
859.396	20823
859.529	20632
859.662	20686
859.795	20682
859.928	20689
860.061	20807
860.194	20868
860.327	20823
860.46	20826
860.592	20834
860.725	20849
860.858	20811
860.99	20731
861.123	20541
861.256	20686
861.388	20689
861.521	21272
861.653	20598
861.786	20545
861.918	20617
862.05	20625
862.183	20625
862.315	20640
862.447	20735
862.58	20716
862.712	20431
862.844	20317
862.976	20518
863.108	20438
863.24	20796
863.372	20423
863.504	20423
863.636	20358
863.768	20389
863.9	20446
864.032	20370
864.164	20461
864.296	20377
864.428	20503
864.559	20537
864.691	20499
864.823	20507
864.954	20484
865.086	20324
865.217	20389
865.349	20206
865.48	20305
865.612	20214
865.743	20400
865.875	20434
866.006	20294
866.137	20324
866.269	20286
866.4	20385
866.531	20187
866.662	20320
866.793	20263
866.924	20252
867.055	20275
867.186	20400
867.317	20301
867.448	20275
867.579	20252
867.71	20214
867.841	20153
867.972	20351
868.103	20176
868.233	20290
868.364	20252
868.495	20370
868.625	20514
868.756	20689
868.886	20396
869.017	20412
869.147	20526
869.278	20583
869.408	20492
869.539	20473
869.669	20549
869.799	20568
869.929	20667
870.06	20617
870.19	20800
870.32	20830
870.45	20842
870.58	20933
870.71	21013
870.84	21039
870.97	20929
871.1	20872
871.23	21024
871.36	21116
871.489	21165
871.619	21036
871.749	21081
871.879	21157
872.008	21127
872.138	21169
872.267	21108
872.397	21036
872.526	20944
872.656	21032
872.785	21024
872.915	21203
873.044	21192
873.173	21195
873.303	21173
873.432	21089
873.561	21214
873.69	21252
873.819	21066
873.948	21325
874.077	21138
874.206	21100
874.335	21192
874.464	21226
874.593	21469
874.722	21325
874.851	21507
874.979	21492
875.108	21473
875.237	21351
875.365	21287
875.494	21397
875.623	21367
875.751	21355
875.88	21321
876.008	21625
876.136	21583
876.265	21774
876.393	21850
876.521	21747
876.65	21827
876.778	21705
876.906	21785
877.034	21690
877.162	21724
877.29	21648
877.418	21774
877.546	21709
877.674	21831
877.802	21766
877.93	21755
878.058	21663
878.185	21576
878.313	21759
878.441	21793
878.568	21587
878.696	21656
878.824	21785
878.951	21873
879.079	21850
879.206	22029
879.333	21926
879.461	21789
879.588	21873
879.715	21823
879.842	21983
879.97	21789
880.097	21576
880.224	21549
880.351	21572
880.478	21606
880.605	21473
880.732	21488
880.859	21679
880.986	21507
881.112	21603
881.239	21370
881.366	21241
881.493	21222
881.619	21142
881.746	21089
881.872	21135
881.999	21218
882.125	21150
882.252	21203
882.378	21089
882.505	21321
882.631	21066
882.757	20864
882.883	20937
883.01	20807
883.136	20773
883.262	20735
883.388	20750
883.514	20792
883.64	20849
883.766	20769
883.892	20743
884.018	20537
884.143	20834
884.269	20781
884.395	20621
884.52	20419
884.646	20469
884.772	20473
884.897	20423
885.023	20594
885.148	20511
885.274	20663
885.399	20598
885.524	20511
885.65	20454
885.775	20461
885.9	20564
886.025	20594
886.15	20568
886.275	20442
886.4	20374
886.525	20305
886.65	20377
886.775	20415
886.9	20651
887.025	20613
887.149	20438
887.274	20469
887.399	20317
887.523	20256
887.648	20290
887.773	20180
887.897	20320
888.021	20248
888.146	20187
888.27	20229
888.395	20339
888.519	20240
888.643	20290
888.767	20202
888.891	20214
889.015	20092
889.139	20294
889.263	20119
889.387	20119
889.511	20263
889.635	20199
889.759	19967
889.883	20046
890.006	20058
890.13	20145
890.254	20008
890.377	19947
890.501	19906
890.624	19887
890.748	19845
890.871	19734
890.995	19639
891.118	19590
891.241	19647
891.364	19674
891.488	19864
891.611	19677
891.734	19628
891.857	19727
891.98	19727
892.103	19674
892.226	19601
892.349	19582
892.471	19460
892.594	19556
892.717	19609
892.839	19518
892.962	19582
893.085	19590
893.207	19597
893.33	19464
893.452	19373
893.575	19563
893.697	19464
893.819	19738
893.941	19753
894.064	19677
894.186	19510
894.308	19491
894.43	19685
894.552	19594
894.674	19616
894.796	19392
894.918	19578
895.04	19597
895.161	19616
895.283	19552
895.405	19552
895.526	19567
895.648	19491
895.769	19624
895.891	19510
896.012	19681
896.134	19590
896.255	19575
896.376	19449
896.498	19578
896.619	19559
896.74	19502
896.861	19556
896.982	19974
897.103	20043
897.224	19830
897.345	19731
897.466	19753
897.587	19890
897.708	19932
897.828	19784
897.949	19753
898.07	19567
898.19	19700
898.311	19845
898.431	19765
898.552	19841
898.672	19978
898.792	19944
898.913	19761
899.033	19738
899.153	19590
899.273	19449
899.393	19533
899.513	19571
899.633	19510
899.753	19571
899.873	19567
899.993	19415
900.113	19495
900.232	19556
900.352	19491
900.472	19392
900.591	19247
900.711	19343
900.83	19327
900.95	19441
901.069	19403
901.189	19301
901.308	19015
901.427	18939
901.546	19027
901.665	18947
901.784	19038
901.904	18875
902.023	18738
902.141	18479
902.26	18536
902.379	18555
902.498	18486
902.617	18395
902.735	18429
902.854	18334
902.973	18338
903.091	18129
903.21	18159
903.328	18163
903.446	18026
903.565	18003
903.683	17999
903.801	17726
903.919	17767
904.038	17897
904.156	17745
904.274	17874
904.392	17634
904.51	17653
904.627	17684
904.745	17703
904.863	17638
904.981	17554
905.098	17353
905.216	17296
905.334	17387
905.451	17448
905.569	17448
905.686	17391
905.803	17349
905.921	17200
906.038	17254
906.155	17227
906.272	17128
906.389	17067
906.506	16961
906.623	16927
906.74	16923
906.857	16828
906.974	16919
907.091	17006
907.208	17086
907.324	16831
907.441	16828
907.557	16596
907.674	16675
907.79	16542
907.907	16592
908.023	16569
908.139	16653
908.256	16542
908.372	16550
908.488	16622
908.604	16470
908.72	16398
908.836	16348
908.952	16341
909.068	16413
909.184	16367
909.3	16322
909.415	16360
909.531	16337
909.647	16101
909.762	16048
909.878	16109
909.993	16093
910.108	16021
910.224	16090
910.339	16067
910.454	15861
910.57	15892
910.685	15857
910.8	16074
910.915	15945
911.03	15880
911.145	15743
911.259	15785
911.374	15724
911.489	15603
911.604	15504
911.718	15439
911.833	15443
911.947	15355
912.062	15325
912.176	15561
912.291	15454
912.405	15420
912.519	15614
912.633	15675
912.748	15500
912.862	15435
912.976	15344
913.09	15131
913.204	15131
913.318	15154
913.431	15291
913.545	15412
913.659	15340
913.772	15241
913.886	15085
914	14971
914.113	15157
914.226	15256
914.34	15062
914.453	14952
914.566	15028
914.68	14902
914.793	14982
914.906	14697
915.019	14724
915.132	14632
915.245	14743
915.358	14625
915.47	14701
915.583	14731
915.696	14655
915.809	14708
915.921	14804
916.034	14674
916.146	14583
916.259	14705
916.371	14625
916.483	14602
916.595	14598
916.708	14606
916.82	14514
916.932	14438
917.044	14530
917.156	14393
917.268	14294
917.38	14332
917.491	14351
917.603	14381
917.715	14400
917.826	14442
917.938	14347
918.049	14286
918.161	14298
918.272	14351
918.384	14317
918.495	14256
918.606	14077
918.717	14096
918.828	14142
918.939	14111
919.05	14031
919.161	14084
919.272	13875
919.383	14043
919.494	14107
919.604	14377
919.715	14123
919.826	14062
919.936	14084
920.047	14180
920.157	14054
920.267	14301
920.378	14069
920.488	14008
920.598	14210
920.708	14484
920.818	14210
920.928	14271
921.038	14412
921.148	14442
921.258	14024
921.368	13875
921.477	13871
921.587	13818
921.697	13753
921.806	13761
921.916	13761
922.025	13548
922.134	13464
922.244	13487
922.353	13552
922.462	13388
922.571	13308
922.68	13187
922.789	13027
922.898	13065
923.007	13145
923.116	13126
923.224	13137
923.333	13069
923.442	12924
923.55	12935
923.659	13050
923.767	13019
923.876	12970
923.984	12943
924.092	12783
924.201	12920
924.309	12829
924.417	12825
924.525	12863
924.633	12833
924.741	13780
924.849	12654
924.956	12764
925.064	12650
925.172	12509
925.279	12513
925.387	12551
925.494	12570
925.602	12681
925.709	12700
925.816	12506
925.924	12635
926.031	12589
926.138	12582
926.245	12589
926.352	12410
926.459	12574
926.566	12582
926.673	12410
926.779	12395
926.886	12273
926.993	12155
927.099	12159
927.206	12171
927.312	12133
927.419	12163
927.525	12110
927.631	12144
927.737	12110
927.843	12034
927.95	11912
928.056	11946
928.162	12045
928.267	11980
928.373	12578
928.479	12049
928.585	11828
928.69	11889
928.796	11863
928.901	11775
929.007	11729
929.112	11779
929.218	11756
929.323	11661
929.428	11699
929.533	11885
929.638	11691
929.743	11653
929.848	11714
929.953	11710
930.058	11516
930.163	11368
930.267	11292
930.372	11573
930.477	11425
930.581	11668
930.685	11425
930.79	11330
930.894	11311
930.998	11254
931.103	11440
931.207	11128
931.311	11025
931.415	10900
931.519	10710
931.623	10694
