Data from test_V78500241_2136.txt Node
Date: Fri Mar 25 15:24:43 CST 2022
User: usil
Spectrometer: V785-0024
Trigger mode: 0
Integration Time (sec): 4.000000E-1
Scans to average: 1
Nonlinearity correction enabled: false
Boxcar width: 0
Storing dark spectrum: false
XAxis mode: Wavelengths
Number of Pixels in Spectrum: 1024
>>>>>Begin Spectral Data<<<<<
801.071	27633
801.214	27618
801.356	27332
801.499	27344
801.641	27233
801.783	27249
801.926	27256
802.068	27264
802.211	27127
802.353	26994
802.496	26937
802.638	26960
802.78	26940
802.923	26743
803.065	26712
803.208	26906
803.35	26868
803.492	27001
803.635	27001
803.777	27028
803.919	27074
804.061	27378
804.204	27089
804.346	26952
804.488	26864
804.63	26979
804.773	27100
804.915	27005
805.057	27230
805.199	26815
805.341	27131
805.483	27176
805.626	27100
805.768	27096
805.91	27074
806.052	27131
806.194	27119
806.336	27408
806.478	27154
806.62	27260
806.762	27195
806.904	27382
807.046	27663
807.188	27515
807.33	27698
807.472	27728
807.614	27542
807.756	27485
807.898	27477
808.04	27526
808.182	27325
808.324	27458
808.465	27572
808.607	27747
808.749	27835
808.891	27850
809.033	27861
809.174	27751
809.316	27751
809.458	27804
809.6	27778
809.741	27800
809.883	27937
810.025	28105
810.166	28101
810.308	27991
810.45	27960
810.591	27835
810.733	27854
810.875	27797
811.016	27747
811.158	27705
811.299	27808
811.441	27865
811.582	27964
811.724	27743
811.865	27827
812.007	27679
812.148	27717
812.29	27983
812.431	27861
812.573	28150
812.714	28246
812.855	28196
812.997	28409
813.138	28508
813.279	28360
813.421	28421
813.562	28257
813.703	28116
813.845	28067
813.986	27747
814.127	27591
814.268	27435
814.41	27519
814.551	27401
814.692	27622
814.833	27462
814.974	27526
815.115	27439
815.256	27348
815.397	27389
815.539	27332
815.68	27283
815.821	27176
815.962	27131
816.103	27142
816.244	27032
816.385	27100
816.526	26956
816.666	26693
816.807	26731
816.948	26667
817.089	26887
817.23	26918
817.371	26598
817.512	26807
817.653	26811
817.793	26552
817.934	26743
818.075	26708
818.216	26819
818.356	26659
818.497	26735
818.638	26556
818.778	26404
818.919	26473
819.06	26469
819.2	26629
819.341	26606
819.481	26731
819.622	26811
819.762	27077
819.903	27005
820.043	26880
820.184	26845
820.324	26838
820.465	26876
820.605	26773
820.746	26693
820.886	26644
821.026	26773
821.167	26670
821.307	26895
821.447	26686
821.588	26670
821.728	26583
821.868	26317
822.008	26218
822.149	26161
822.289	26145
822.429	26016
822.569	25871
822.709	25982
822.849	25666
822.99	25795
823.13	25750
823.27	25708
823.41	25533
823.55	25548
823.69	25476
823.83	25578
823.97	25422
824.11	25335
824.25	25327
824.389	25266
824.529	25365
824.669	25369
824.809	25403
824.949	25411
825.089	25518
825.228	25392
825.368	25228
825.508	25213
825.648	25282
825.787	25285
825.927	25236
826.067	25133
826.206	25133
826.346	25266
826.485	25278
826.625	25221
826.765	25388
826.904	25244
827.044	25019
827.183	24943
827.323	24749
827.462	25103
827.601	24882
827.741	24913
827.88	25019
828.02	24894
828.159	24947
828.298	24916
828.437	24916
828.577	24852
828.716	25129
828.855	24996
828.994	24802
829.134	24612
829.273	24764
829.412	24582
829.551	24646
829.69	24544
829.829	24509
829.968	24825
830.107	24764
830.246	24623
830.385	24604
830.524	24692
830.663	24521
830.802	24414
830.941	24365
831.08	24197
831.219	24376
831.357	24357
831.496	24308
831.635	24251
831.774	24213
831.913	24041
832.051	23996
832.19	24072
832.329	23942
832.467	23935
832.606	23939
832.744	23855
832.883	23954
833.022	23961
833.16	23847
833.299	24087
833.437	24011
833.576	23988
833.714	23977
833.852	24079
833.991	23973
834.129	24163
834.267	24053
834.406	23958
834.544	23996
834.682	23874
834.821	24060
834.959	24045
835.097	23916
835.235	24068
835.373	23870
835.511	23916
835.65	23824
835.788	23882
835.926	23745
836.064	23596
836.202	23729
836.34	23668
836.478	23939
836.615	23760
836.753	23710
836.891	23893
837.029	23885
837.167	23726
837.305	23676
837.443	23722
837.58	23493
837.718	23691
837.856	23718
837.993	23486
838.131	23531
838.269	23497
838.406	23398
838.544	23474
838.681	23387
838.819	23296
838.956	22968
839.094	23109
839.231	23193
839.369	23353
839.506	23372
839.643	23417
839.781	23231
839.918	23121
840.055	23151
840.193	23132
840.33	22991
840.467	23105
840.604	23048
840.742	23326
840.879	22801
841.016	22976
841.153	22942
841.29	23140
841.427	22900
841.564	22984
841.701	23010
841.838	22976
841.975	22919
842.112	22995
842.249	22710
842.385	22805
842.522	23033
842.659	22820
842.796	22820
842.933	22729
843.069	22683
843.206	22767
843.343	22809
843.479	22835
843.616	22774
843.752	22588
843.889	22519
844.025	22664
844.162	22656
844.298	22649
844.435	22592
844.571	22577
844.708	22546
844.844	22664
844.98	22641
845.117	22645
845.253	22497
845.389	22413
845.525	22500
845.661	22386
845.798	22322
845.934	22303
846.07	22310
846.206	22246
846.342	22303
846.478	22272
846.614	22025
846.75	21895
846.886	22036
847.022	22097
847.158	22048
847.294	22158
847.429	22036
847.565	21991
847.701	22272
847.837	21778
847.972	21793
848.108	21819
848.244	21736
848.379	21629
848.515	21625
848.65	21595
848.786	21610
848.921	21641
849.057	21770
849.192	21648
849.328	21732
849.463	21690
849.598	21504
849.734	21545
849.869	21412
850.004	21317
850.14	21481
850.275	21370
850.41	21329
850.545	21374
850.68	21393
850.815	21397
850.95	21374
851.085	21625
851.22	21519
851.355	21340
851.49	21431
851.625	21313
851.76	21367
851.895	21268
852.03	21226
852.165	21367
852.299	21435
852.434	21450
852.569	21355
852.703	21393
852.838	21462
852.973	21485
853.107	21591
853.242	21264
853.376	21154
853.511	21112
853.645	21146
853.78	21275
853.914	21203
854.048	21150
854.183	21310
854.317	21325
854.451	21355
854.585	21173
854.72	21165
854.854	21180
854.988	21104
855.122	21218
855.256	21135
855.39	21176
855.524	21275
855.658	21192
855.792	21291
855.926	21176
856.06	21310
856.194	21325
856.327	21180
856.461	21138
856.595	21211
856.729	21275
856.862	21332
856.996	21268
857.13	21287
857.263	21260
857.397	21332
857.53	21252
857.664	21237
857.797	21214
857.931	21359
858.064	21256
858.197	21203
858.331	21306
858.464	21195
858.597	21131
858.731	21138
858.864	21207
858.997	21104
859.13	21218
859.263	21249
859.396	21344
859.529	21275
859.662	21142
859.795	21214
859.928	21329
860.061	21306
860.194	21386
860.327	21230
860.46	21233
860.592	21344
860.725	21370
860.858	21272
860.99	21195
861.123	20956
861.256	21135
861.388	21176
861.521	21895
861.653	21142
861.786	20883
861.918	21108
862.05	21180
862.183	21157
862.315	21123
862.447	21237
862.58	21165
862.712	20967
862.844	20830
862.976	20982
863.108	21047
863.24	21272
863.372	20914
863.504	20895
863.636	20933
863.768	20880
863.9	20929
864.032	20887
864.164	20823
864.296	20929
864.428	20963
864.559	21043
864.691	20929
864.823	20899
864.954	20948
865.086	20834
865.217	20800
865.349	20640
865.48	20937
865.612	20727
865.743	20948
865.875	20777
866.006	20682
866.137	20804
866.269	20804
866.4	20823
866.531	20644
866.662	20792
866.793	20724
866.924	20697
867.055	20663
867.186	20720
867.317	20682
867.448	20560
867.579	20689
867.71	20689
867.841	20746
867.972	20785
868.103	20830
868.233	20720
868.364	20659
868.495	20899
868.625	20857
868.756	21161
868.886	20948
869.017	20963
869.147	21184
869.278	21123
869.408	21043
869.539	21039
869.669	21066
869.799	21028
869.929	21173
870.06	21077
870.19	21382
870.32	21116
870.45	21291
870.58	21382
870.71	21435
870.84	21466
870.97	21420
871.1	21412
871.23	21450
871.36	21477
871.489	21545
871.619	21500
871.749	21496
871.879	21656
872.008	21644
872.138	21561
872.267	21500
872.397	21458
872.526	21359
872.656	21397
872.785	21428
872.915	21443
873.044	21595
873.173	21583
873.303	21618
873.432	21686
873.561	21720
873.69	21587
873.819	21561
873.948	21751
874.077	21557
874.206	21523
874.335	21561
874.464	21728
874.593	21747
874.722	21778
874.851	21819
874.979	21876
875.108	21781
875.237	21770
875.365	21835
875.494	21701
875.623	21876
875.751	21876
875.88	21603
876.008	21956
876.136	21953
876.265	22284
876.393	22413
876.521	22261
876.65	22303
876.778	22265
876.906	22154
877.034	22109
877.162	22078
877.29	22063
877.418	22109
877.546	22158
877.674	22139
877.802	22204
877.93	22272
878.058	22204
878.185	22029
878.313	22124
878.441	22154
878.568	21960
878.696	22124
878.824	22135
878.951	22306
879.079	22398
879.206	22519
879.333	22276
879.461	22200
879.588	22375
879.715	22325
879.842	22447
879.97	22234
880.097	21911
880.224	22063
880.351	22017
880.478	21979
880.605	21968
880.732	22048
880.859	22242
880.986	21895
881.112	21972
881.239	21823
881.366	21671
881.493	21599
881.619	21629
881.746	21610
881.872	21507
881.999	21523
882.125	21469
882.252	21587
882.378	21408
882.505	21614
882.631	21428
882.757	21272
882.883	21321
883.01	21218
883.136	21157
883.262	21207
883.388	21096
883.514	21230
883.64	21329
883.766	21237
883.892	21032
884.018	21161
884.143	21260
884.269	21272
884.395	20941
884.52	20853
884.646	20937
884.772	20826
884.897	20845
885.023	20883
885.148	21020
885.274	20982
885.399	21024
885.524	20902
885.65	20960
885.775	20986
885.9	20887
886.025	21009
886.15	20986
886.275	20796
886.4	20807
886.525	20944
886.65	20781
886.775	20739
886.9	21055
887.025	21108
887.149	20830
887.274	20857
887.399	20724
887.523	20613
887.648	20579
887.773	20590
887.897	20655
888.021	20689
888.146	20594
888.27	20644
888.395	20777
888.519	20731
888.643	20693
888.767	20682
888.891	20575
889.015	20404
889.139	20552
889.263	20358
889.387	20682
889.511	20697
889.635	20655
889.759	20518
889.883	20389
890.006	20393
890.13	20552
890.254	20427
890.377	20450
890.501	20195
890.624	20149
890.748	20263
890.871	20119
890.995	20043
891.118	20027
891.241	20077
891.364	20134
891.488	20252
891.611	20065
891.734	20111
891.857	20103
891.98	19982
892.103	20027
892.226	20016
892.349	19951
892.471	19830
892.594	20012
892.717	19936
892.839	19955
892.962	19917
893.085	19970
893.207	19940
893.33	19902
893.452	19837
893.575	19887
893.697	19883
893.819	19967
893.941	20202
894.064	20111
894.186	19944
894.308	19841
894.43	20024
894.552	20111
894.674	20054
894.796	19913
894.918	19875
895.04	19818
895.161	20020
895.283	20016
895.405	19833
895.526	19986
895.648	19951
895.769	19970
895.891	20043
896.012	20039
896.134	19951
896.255	19997
896.376	19799
896.498	19944
896.619	19982
896.74	19909
896.861	20031
896.982	20229
897.103	20412
897.224	20271
897.345	20092
897.466	20001
897.587	20122
897.708	20358
897.828	20172
897.949	20016
898.07	20100
898.19	20161
898.311	20233
898.431	20039
898.552	20298
898.672	20248
898.792	20229
898.913	20126
899.033	20073
899.153	20062
899.273	19890
899.393	19883
899.513	19974
899.633	19982
899.753	19887
899.873	19894
899.993	19982
900.113	19875
900.232	19890
900.352	19788
900.472	19727
900.591	19635
900.711	19674
900.83	19662
900.95	19776
901.069	19906
901.189	19521
901.308	19362
901.427	19324
901.546	19236
901.665	19331
901.784	19259
901.904	19145
902.023	19038
902.141	18791
902.26	18810
902.379	18863
902.498	18875
902.617	18776
902.735	18867
902.854	18795
902.973	18795
903.091	18502
903.21	18464
903.328	18464
903.446	18315
903.565	18285
903.683	18380
903.801	18239
903.919	18201
904.038	18186
904.156	18121
904.274	18034
904.392	18022
904.51	17988
904.627	18167
904.745	18102
904.863	18072
904.981	17851
905.098	17836
905.216	17737
905.334	17832
905.451	17718
905.569	17710
905.686	17760
905.803	17714
905.921	17478
906.038	17570
906.155	17592
906.272	17341
906.389	17535
906.506	17356
906.623	17292
906.74	17254
906.857	17189
906.974	17109
907.091	17258
907.208	17326
907.324	17349
907.441	17105
907.557	17010
907.674	17018
907.79	16995
907.907	16957
908.023	16927
908.139	17010
908.256	16927
908.372	16961
908.488	16946
908.604	16717
908.72	16771
908.836	16744
908.952	16733
909.068	16869
909.184	16919
909.3	16607
909.415	16672
909.531	16660
909.647	16531
909.762	16405
909.878	16405
909.993	16398
910.108	16398
910.224	16394
910.339	16344
910.454	16348
910.57	16219
910.685	16154
910.8	16432
910.915	16257
911.03	16188
911.145	16086
911.259	15991
911.374	15994
911.489	15884
911.604	15812
911.718	15747
911.833	15804
911.947	15667
912.062	15618
912.176	15816
912.291	15717
912.405	15686
912.519	15956
912.633	15949
912.748	15724
912.862	15766
912.976	15553
913.09	15447
913.204	15576
913.318	15485
913.431	15701
913.545	15534
913.659	15686
913.772	15466
913.886	15363
914	15378
914.113	15424
914.226	15530
914.34	15370
914.453	15245
914.566	15363
914.68	15154
914.793	15195
914.906	15047
915.019	15009
915.132	14956
915.245	15028
915.358	15005
915.47	15043
915.583	15009
915.696	15058
915.809	15017
915.921	15108
916.034	14906
916.146	14826
916.259	14868
916.371	14975
916.483	15005
916.595	14876
916.708	14830
916.82	14933
916.932	14720
917.044	14765
917.156	14777
917.268	14552
917.38	14701
917.491	14632
917.603	14590
917.715	14720
917.826	14731
917.938	14640
918.049	14423
918.161	14537
918.272	14773
918.384	14697
918.495	14571
918.606	14351
918.717	14370
918.828	14408
918.939	14423
919.05	14233
919.161	14381
919.272	14134
919.383	14237
919.494	14362
919.604	14530
919.715	14381
919.826	14271
919.936	14332
920.047	14423
920.157	14381
920.267	14549
920.378	14385
920.488	14377
920.598	14530
920.708	14625
920.818	14503
920.928	14552
921.038	14674
921.148	14579
921.258	14256
921.368	14324
921.477	14180
921.587	14130
921.697	13940
921.806	13993
921.916	13959
922.025	13757
922.134	13791
922.244	13742
922.353	13868
922.462	13597
922.571	13563
922.68	13476
922.789	13415
922.898	13430
923.007	13369
923.116	13381
923.224	13403
923.333	13320
923.442	13202
923.55	13247
923.659	13282
923.767	13232
923.876	13168
923.984	13278
924.092	13126
924.201	13255
924.309	13145
924.417	13088
924.525	13019
924.633	13042
924.741	13906
924.849	12783
924.956	12943
925.064	13061
925.172	12772
925.279	12844
925.387	12844
925.494	12837
925.602	12943
925.709	12867
925.816	12703
925.924	12795
926.031	12833
926.138	12776
926.245	12848
926.352	12688
926.459	12791
926.566	12886
926.673	12642
926.779	12547
926.886	12528
926.993	12418
927.099	12369
927.206	12365
927.312	12281
927.419	12410
927.525	12372
927.631	12399
927.737	12292
927.843	12281
927.95	12076
928.056	12311
928.162	12224
928.267	12205
928.373	12867
928.479	12277
928.585	12011
928.69	12140
928.796	12270
928.901	12079
929.007	11984
929.112	12053
929.218	12060
929.323	12026
929.428	11885
929.533	12087
929.638	11958
929.743	11824
929.848	11923
929.953	11863
930.058	11817
930.163	11608
930.267	11695
930.372	11783
930.477	11649
930.581	11893
930.685	11634
930.79	11558
930.894	11562
930.998	11539
931.103	11551
931.207	11292
931.311	11212
931.415	11189
931.519	10919
931.623	10930
