Data from test_V78500241_1868.txt Node
Date: Fri Mar 25 15:22:51 CST 2022
User: usil
Spectrometer: V785-0024
Trigger mode: 0
Integration Time (sec): 4.000000E-1
Scans to average: 1
Nonlinearity correction enabled: false
Boxcar width: 0
Storing dark spectrum: false
XAxis mode: Wavelengths
Number of Pixels in Spectrum: 1024
>>>>>Begin Spectral Data<<<<<
801.071	27827
801.214	27835
801.356	27568
801.499	27401
801.641	27447
801.783	27252
801.926	27454
802.068	27469
802.211	27378
802.353	27226
802.496	27203
802.638	27070
802.78	27005
802.923	27013
803.065	27032
803.208	26925
803.35	27055
803.492	27268
803.635	27214
803.777	27047
803.919	27416
804.061	27469
804.204	27237
804.346	27154
804.488	27173
804.63	27268
804.773	27108
804.915	27142
805.057	27249
805.199	27135
805.341	27233
805.483	27462
805.626	27485
805.768	27237
805.91	27382
806.052	27310
806.194	27256
806.336	27572
806.478	27348
806.62	27355
806.762	27515
806.904	27530
807.046	27861
807.188	27819
807.33	27899
807.472	27873
807.614	27603
807.756	27629
807.898	27751
808.04	27447
808.182	27618
808.324	27671
808.465	27663
808.607	27793
808.749	28013
808.891	27922
809.033	28082
809.174	27945
809.316	27884
809.458	27914
809.6	27987
809.741	28040
809.883	28105
810.025	28166
810.166	28291
810.308	28105
810.45	28219
810.591	28147
810.733	27987
810.875	27949
811.016	27941
811.158	27785
811.299	27994
811.441	28128
811.582	28177
811.724	27899
811.865	27895
812.007	27949
812.148	28006
812.29	27930
812.431	28192
812.573	28242
812.714	28322
812.855	28417
812.997	28668
813.138	28698
813.279	28694
813.421	28565
813.562	28344
813.703	28306
813.845	28200
813.986	28059
814.127	27793
814.268	27656
814.41	27701
814.551	27542
814.692	27663
814.833	27564
814.974	27614
815.115	27667
815.256	27427
815.397	27591
815.539	27450
815.68	27462
815.821	27435
815.962	27462
816.103	27454
816.244	27325
816.385	27169
816.526	27104
816.666	27089
816.807	26902
816.948	26971
817.089	27055
817.23	26861
817.371	26994
817.512	26956
817.653	26834
817.793	26880
817.934	26849
818.075	26963
818.216	26967
818.356	26940
818.497	26842
818.638	26762
818.778	26731
818.919	26682
819.06	26773
819.2	26765
819.341	26971
819.481	27039
819.622	26990
819.762	27287
819.903	27264
820.043	27142
820.184	27013
820.324	26986
820.465	27066
820.605	27199
820.746	26944
820.886	27062
821.026	26982
821.167	27009
821.307	27058
821.447	26823
821.588	26750
821.728	26823
821.868	26564
822.008	26465
822.149	26495
822.289	26457
822.429	26221
822.569	26153
822.709	26111
822.849	25955
822.99	25906
823.13	25974
823.27	25947
823.41	25818
823.55	25632
823.69	25883
823.83	25887
823.97	25814
824.11	25578
824.25	25582
824.389	25586
824.529	25620
824.669	25616
824.809	25689
824.949	25658
825.089	25666
825.228	25632
825.368	25487
825.508	25430
825.648	25525
825.787	25411
825.927	25628
826.067	25518
826.206	25514
826.346	25521
826.485	25578
826.625	25362
826.765	25594
826.904	25597
827.044	25285
827.183	25274
827.323	25232
827.462	25297
827.601	25293
827.741	25289
827.88	25168
828.02	25221
828.159	25103
828.298	25190
828.437	25179
828.577	25099
828.716	25228
828.855	25099
828.994	24829
829.134	24939
829.273	24962
829.412	24848
829.551	24825
829.69	24867
829.829	24829
829.968	25095
830.107	24913
830.246	24913
830.385	24829
830.524	24966
830.663	24829
830.802	24528
830.941	24547
831.08	24471
831.219	24536
831.357	24532
831.496	24719
831.635	24513
831.774	24490
831.913	24441
832.051	24338
832.19	24380
832.329	24334
832.467	24163
832.606	24129
832.744	24197
832.883	24159
833.022	24239
833.16	24098
833.299	24133
833.437	24178
833.576	24311
833.714	24285
833.852	24251
833.991	24327
834.129	24258
834.267	24418
834.406	24121
834.544	24361
834.682	24311
834.821	24228
834.959	24391
835.097	24140
835.235	24330
835.373	24228
835.511	24277
835.65	24190
835.788	24235
835.926	23939
836.064	23813
836.202	23889
836.34	24152
836.478	24232
836.615	24049
836.753	24068
836.891	24201
837.029	24171
837.167	23920
837.305	24015
837.443	24053
837.58	23961
837.718	23973
837.856	23942
837.993	23882
838.131	23939
838.269	23821
838.406	23893
838.544	23843
838.681	23707
838.819	23642
838.956	23486
839.094	23425
839.231	23539
839.369	23573
839.506	23687
839.643	23554
839.781	23387
839.918	23402
840.055	23299
840.193	23429
840.33	23337
840.467	23356
840.604	23417
840.742	23615
840.879	23178
841.016	23345
841.153	23166
841.29	23414
841.427	23353
841.564	23364
841.701	23368
841.838	23349
841.975	23193
842.112	23197
842.249	23124
842.385	23075
842.522	23254
842.659	23098
842.796	23010
842.933	23067
843.069	23010
843.206	23052
843.343	23159
843.479	22984
843.616	23098
843.752	22858
843.889	22911
844.025	22976
844.162	22961
844.298	22915
844.435	22843
844.571	22869
844.708	22812
844.844	23044
844.98	22930
845.117	22915
845.253	22976
845.389	22782
845.525	22828
845.661	22755
845.798	22596
845.934	22634
846.07	22535
846.206	22675
846.342	22615
846.478	22611
846.614	22344
846.75	22367
846.886	22268
847.022	22470
847.158	22481
847.294	22226
847.429	22352
847.565	22447
847.701	22542
847.837	22097
847.972	22112
848.108	22128
848.244	22074
848.379	22093
848.515	22010
848.65	21873
848.786	21956
848.921	22044
849.057	21945
849.192	21884
849.328	21812
849.463	22021
849.598	21873
849.734	21778
849.869	21816
850.004	21648
850.14	21694
850.275	21660
850.41	21633
850.545	21667
850.68	21610
850.815	21622
850.95	21587
851.085	21941
851.22	21842
851.355	21682
851.49	21686
851.625	21663
851.76	21709
851.895	21625
852.03	21580
852.165	21663
852.299	21663
852.434	21823
852.569	21633
852.703	21686
852.838	21816
852.973	21831
853.107	21892
853.242	21622
853.376	21603
853.511	21405
853.645	21511
853.78	21622
853.914	21534
854.048	21583
854.183	21534
854.317	21545
854.451	21823
854.585	21507
854.72	21511
854.854	21580
854.988	21488
855.122	21473
855.256	21386
855.39	21523
855.524	21561
855.658	21625
855.792	21572
855.926	21614
856.06	21580
856.194	21561
856.327	21454
856.461	21485
856.595	21431
856.729	21447
856.862	21477
856.996	21488
857.13	21538
857.263	21568
857.397	21625
857.53	21534
857.664	21519
857.797	21542
857.931	21614
858.064	21557
858.197	21580
858.331	21466
858.464	21538
858.597	21466
858.731	21488
858.864	21500
858.997	21443
859.13	21553
859.263	21435
859.396	21519
859.529	21595
859.662	21412
859.795	21572
859.928	21488
860.061	21618
860.194	21690
860.327	21534
860.46	21530
860.592	21614
860.725	21599
860.858	21686
860.99	21534
861.123	21332
861.256	21378
861.388	21481
861.521	22204
861.653	21397
861.786	21260
861.918	21367
862.05	21481
862.183	21359
862.315	21530
862.447	21431
862.58	21374
862.712	21241
862.844	21157
862.976	21306
863.108	21313
863.24	21557
863.372	21218
863.504	21104
863.636	21218
863.768	21310
863.9	21207
864.032	21161
864.164	21180
864.296	21233
864.428	21344
864.559	21245
864.691	21363
864.823	21226
864.954	21218
865.086	21245
865.217	21264
865.349	20986
865.48	21070
865.612	21066
865.743	21226
865.875	21112
866.006	21024
866.137	21074
866.269	21135
866.4	21001
866.531	21058
866.662	21135
866.793	20960
866.924	20952
867.055	21104
867.186	21116
867.317	21017
867.448	20986
867.579	20918
867.71	21032
867.841	20937
867.972	21108
868.103	21036
868.233	21047
868.364	21043
868.495	21142
868.625	21146
868.756	21428
868.886	21169
869.017	21310
869.147	21367
869.278	21431
869.408	21291
869.539	21291
869.669	21233
869.799	21363
869.929	21367
870.06	21306
870.19	21500
870.32	21485
870.45	21534
870.58	21679
870.71	21789
870.84	21770
870.97	21694
871.1	21648
871.23	21835
871.36	21937
871.489	21747
871.619	21778
871.749	21819
871.879	21895
872.008	21968
872.138	21964
872.267	21884
872.397	21766
872.526	21778
872.656	21747
872.785	21690
872.915	21934
873.044	21850
873.173	21907
873.303	21979
873.432	22040
873.561	21892
873.69	21972
873.819	21983
873.948	22074
874.077	21903
874.206	21854
874.335	21918
874.464	22017
874.593	22040
874.722	22021
874.851	22204
874.979	22150
875.108	22204
875.237	22090
875.365	22078
875.494	22143
875.623	22207
875.751	22070
875.88	22143
876.008	22295
876.136	22226
876.265	22284
876.393	22634
876.521	22618
876.65	22554
876.778	22455
876.906	22592
877.034	22375
877.162	22443
877.29	22421
877.418	22519
877.546	22428
877.674	22577
877.802	22329
877.93	22493
878.058	22382
878.185	22341
878.313	22493
878.441	22413
878.568	22173
878.696	22303
878.824	22478
878.951	22542
879.079	22679
879.206	22672
879.333	22573
879.461	22565
879.588	22504
879.715	22500
879.842	22645
879.97	22592
880.097	22318
880.224	22356
880.351	22287
880.478	22318
880.605	22204
880.732	22325
880.859	22535
880.986	22284
881.112	22272
881.239	22341
881.366	22082
881.493	21907
881.619	21755
881.746	21979
881.872	21831
881.999	21838
882.125	21785
882.252	21892
882.378	21823
882.505	21922
882.631	21568
882.757	21637
882.883	21648
883.01	21439
883.136	21481
883.262	21348
883.388	21291
883.514	21652
883.64	21568
883.766	21488
883.892	21302
884.018	21428
884.143	21450
884.269	21526
884.395	21336
884.52	21203
884.646	21264
884.772	21165
884.897	21093
885.023	21154
885.148	21298
885.274	21412
885.399	21336
885.524	21279
885.65	21218
885.775	21104
885.9	21207
886.025	21279
886.15	21294
886.275	21214
886.4	21112
886.525	21093
886.65	21108
886.775	21157
886.9	21180
887.025	21317
887.149	21176
887.274	20986
887.399	20883
887.523	20899
887.648	20918
887.773	20777
887.897	21047
888.021	21081
888.146	21017
888.27	21100
888.395	20979
888.519	20979
888.643	21005
888.767	20956
888.891	20937
889.015	20739
889.139	20853
889.263	20678
889.387	20781
889.511	20952
889.635	20876
889.759	20701
889.883	20697
890.006	20678
890.13	20773
890.254	20594
890.377	20708
890.501	20575
890.624	20446
890.748	20549
890.871	20423
890.995	20317
891.118	20221
891.241	20389
891.364	20355
891.488	20393
891.611	20415
891.734	20374
891.857	20450
891.98	20377
892.103	20358
892.226	20305
892.349	20332
892.471	20248
892.594	20233
892.717	20172
892.839	20202
892.962	20138
893.085	20290
893.207	20180
893.33	20081
893.452	20142
893.575	20267
893.697	20237
893.819	20351
893.941	20336
894.064	20309
894.186	20138
894.308	20122
894.43	20313
894.552	20347
894.674	20381
894.796	20092
894.918	20176
895.04	20187
895.161	20290
895.283	20225
895.405	20088
895.526	20218
895.648	20195
895.769	20343
895.891	20202
896.012	20218
896.134	20199
896.255	20187
896.376	20157
896.498	20206
896.619	20301
896.74	20115
896.861	20351
896.982	20476
897.103	20648
897.224	20339
897.345	20465
897.466	20457
897.587	20438
897.708	20495
897.828	20434
897.949	20442
898.07	20195
898.19	20336
898.311	20594
898.431	20339
898.552	20351
898.672	20511
898.792	20514
898.913	20347
899.033	20377
899.153	20290
899.273	20122
899.393	20183
899.513	20153
899.633	20145
899.753	20195
899.873	20088
899.993	20176
900.113	20126
900.232	20168
900.352	20020
900.472	19955
900.591	19795
900.711	19875
900.83	19989
900.95	19997
901.069	20031
901.189	19852
901.308	19639
901.427	19597
901.546	19544
901.665	19594
901.784	19384
901.904	19468
902.023	19301
902.141	19122
902.26	19019
902.379	19031
902.498	19088
902.617	19019
902.735	19069
902.854	18977
902.973	18993
903.091	18795
903.21	18696
903.328	18760
903.446	18726
903.565	18471
903.683	18471
903.801	18407
903.919	18471
904.038	18395
904.156	18338
904.274	18338
904.392	18171
904.51	18289
904.627	18273
904.745	18243
904.863	18319
904.981	18152
905.098	18003
905.216	17946
905.334	17992
905.451	17980
905.569	17802
905.686	17946
905.803	17916
905.921	17866
906.038	17798
906.155	17718
906.272	17649
906.389	17687
906.506	17547
906.623	17455
906.74	17471
906.857	17284
906.974	17398
907.091	17653
907.208	17661
907.324	17493
907.441	17459
907.557	17315
907.674	17159
907.79	17299
907.907	17064
908.023	17250
908.139	17189
908.256	17166
908.372	17052
908.488	17098
908.604	16881
908.72	16854
908.836	16961
908.952	16816
909.068	17003
909.184	16976
909.3	16885
909.415	16904
909.531	16839
909.647	16615
909.762	16694
909.878	16698
909.993	16656
910.108	16656
910.224	16694
910.339	16618
910.454	16580
910.57	16470
910.685	16382
910.8	16675
910.915	16538
911.03	16440
911.145	16249
911.259	16215
911.374	16329
911.489	16249
911.604	16162
911.718	15945
911.833	15956
911.947	15816
912.062	15747
912.176	15975
912.291	15968
912.405	16040
912.519	16055
912.633	16234
912.748	15991
912.862	15884
912.976	15865
913.09	15660
913.204	15743
913.318	15755
913.431	15781
913.545	15819
913.659	15949
913.772	15759
913.886	15663
914	15637
914.113	15625
914.226	15675
914.34	15656
914.453	15549
914.566	15671
914.68	15587
914.793	15405
914.906	15287
915.019	15169
915.132	15100
915.245	15226
915.358	15169
915.47	15237
915.583	15119
915.696	15268
915.809	15241
915.921	15222
916.034	15108
916.146	15081
916.259	15127
916.371	15108
916.483	15131
916.595	15062
916.708	14941
916.82	15051
916.932	14910
917.044	14948
917.156	15001
917.268	14861
917.38	14963
917.491	14746
917.603	14929
917.715	14857
917.826	14914
917.938	14811
918.049	14720
918.161	14861
918.272	14830
918.384	14902
918.495	14785
918.606	14613
918.717	14674
918.828	14568
918.939	14549
919.05	14530
919.161	14446
919.272	14370
919.383	14530
919.494	14708
919.604	14705
919.715	14583
919.826	14385
919.936	14514
920.047	14621
920.157	14606
920.267	14781
920.378	14575
920.488	14488
920.598	14739
920.708	14804
920.818	14682
920.928	14606
921.038	14918
921.148	14758
921.258	14438
921.368	14438
921.477	14408
921.587	14290
921.697	14195
921.806	14309
921.916	14138
922.025	14084
922.134	13837
922.244	13875
922.353	13955
922.462	13864
922.571	13643
922.68	13594
922.789	13571
922.898	13563
923.007	13510
923.116	13578
923.224	13613
923.333	13518
923.442	13388
923.55	13346
923.659	13438
923.767	13407
923.876	13373
923.984	13438
924.092	13301
924.201	13331
924.309	13247
924.417	13293
924.525	13228
924.633	13209
924.741	14202
924.849	12947
924.956	13126
925.064	13053
925.172	12947
925.279	12837
925.387	13065
925.494	13008
925.602	13076
925.709	13042
925.816	12932
925.924	12943
926.031	12935
926.138	12920
926.245	12913
926.352	12867
926.459	12833
926.566	12973
926.673	12852
926.779	12738
926.886	12662
926.993	12677
927.099	12551
927.206	12551
927.312	12471
927.419	12597
927.525	12517
927.631	12612
927.737	12479
927.843	12460
927.95	12273
928.056	12372
928.162	12388
928.267	12395
928.373	12848
928.479	12380
928.585	12129
928.69	12342
928.796	12342
928.901	12251
929.007	12072
929.112	12254
929.218	12178
929.323	12114
929.428	12095
929.533	12266
929.638	12057
929.743	12022
929.848	12159
929.953	11935
930.058	11958
930.163	11790
930.267	11775
930.372	11912
930.477	11703
930.581	12034
930.685	11821
930.79	11657
930.894	11653
930.998	11589
931.103	11752
931.207	11368
931.311	11360
931.415	11227
931.519	11056
931.623	11079
