Data from test_V78500241_23.txt Node
Date: Fri Mar 25 15:10:01 CST 2022
User: usil
Spectrometer: V785-0024
Trigger mode: 0
Integration Time (sec): 4.000000E-1
Scans to average: 1
Nonlinearity correction enabled: false
Boxcar width: 0
Storing dark spectrum: false
XAxis mode: Wavelengths
Number of Pixels in Spectrum: 1024
>>>>>Begin Spectral Data<<<<<
801.071	28303
801.214	28295
801.356	27964
801.499	27968
801.641	27892
801.783	27652
801.926	27968
802.068	27800
802.211	27724
802.353	27637
802.496	27526
802.638	27500
802.78	27397
802.923	27367
803.065	27374
803.208	27462
803.35	27310
803.492	27427
803.635	27637
803.777	27416
803.919	27420
804.061	27838
804.204	27656
804.346	27397
804.488	27405
804.63	27450
804.773	27401
804.915	27401
805.057	27580
805.199	27454
805.341	27507
805.483	27675
805.626	27618
805.768	27378
805.91	27534
806.052	27542
806.194	27572
806.336	27618
806.478	27530
806.62	27504
806.762	27591
806.904	27682
807.046	28021
807.188	27854
807.33	27812
807.472	27888
807.614	27682
807.756	27797
807.898	27720
808.04	27641
808.182	27504
808.324	27561
808.465	27580
808.607	27781
808.749	27873
808.891	28048
809.033	28124
809.174	28063
809.316	27781
809.458	27854
809.6	27930
809.741	28097
809.883	28040
810.025	28177
810.166	28219
810.308	28219
810.45	28169
810.591	27972
810.733	27857
810.875	27857
811.016	27724
811.158	27739
811.299	27922
811.441	27991
811.582	28048
811.724	27869
811.865	27732
812.007	27884
812.148	27854
812.29	27846
812.431	28070
812.573	28029
812.714	28318
812.855	28379
812.997	28295
813.138	28649
813.279	28493
813.421	28356
813.562	28249
813.703	28196
813.845	27930
813.986	27599
814.127	27652
814.268	27542
814.41	27435
814.551	27336
814.692	27458
814.833	27348
814.974	27332
815.115	27412
815.256	27241
815.397	27367
815.539	27298
815.68	27005
815.821	27074
815.962	27138
816.103	27024
816.244	26979
816.385	26830
816.526	26979
816.666	26689
816.807	26640
816.948	26667
817.089	26708
817.23	26678
817.371	26511
817.512	26518
817.653	26549
817.793	26423
817.934	26446
818.075	26480
818.216	26507
818.356	26457
818.497	26450
818.638	26183
818.778	26115
818.919	26286
819.06	26301
819.2	26218
819.341	26362
819.481	26355
819.622	26613
819.762	26754
819.903	26659
820.043	26457
820.184	26678
820.324	26419
820.465	26545
820.605	26693
820.746	26453
820.886	26271
821.026	26473
821.167	26461
821.307	26583
821.447	26461
821.588	26286
821.728	26199
821.868	25966
822.008	25947
822.149	25928
822.289	25807
822.429	25479
822.569	25457
822.709	25537
822.849	25278
822.99	25354
823.13	25400
823.27	25304
823.41	25228
823.55	25137
823.69	25114
823.83	25042
823.97	24890
824.11	24939
824.25	24916
824.389	24886
824.529	24954
824.669	24802
824.809	25034
824.949	24989
825.089	24970
825.228	24863
825.368	24642
825.508	24627
825.648	24540
825.787	24661
825.927	24787
826.067	24616
826.206	24650
826.346	24783
826.485	24711
826.625	24593
826.765	24749
826.904	24681
827.044	24414
827.183	24376
827.323	24327
827.462	24311
827.601	24391
827.741	24365
827.88	24262
828.02	24270
828.159	24201
828.298	24330
828.437	24315
828.577	24182
828.716	24353
828.855	24247
828.994	23904
829.134	23969
829.273	23950
829.412	23996
829.551	23885
829.69	24041
829.829	23958
829.968	24030
830.107	23965
830.246	23942
830.385	23977
830.524	23912
830.663	23752
830.802	23661
830.941	23619
831.08	23497
831.219	23623
831.357	23539
831.496	23596
831.635	23585
831.774	23539
831.913	23524
832.051	23364
832.19	23330
832.329	23284
832.467	23159
832.606	23181
832.744	23159
832.883	23079
833.022	23060
833.16	23140
833.299	23227
833.437	23193
833.576	23132
833.714	23140
833.852	23261
833.991	23174
834.129	23288
834.267	23151
834.406	23231
834.544	23254
834.682	23121
834.821	23181
834.959	23292
835.097	23079
835.235	23242
835.373	23227
835.511	23113
835.65	23079
835.788	23132
835.926	22881
836.064	22755
836.202	22816
836.34	22911
836.478	23025
836.615	23064
836.753	22927
836.891	23006
837.029	22987
837.167	22999
837.305	22881
837.443	22991
837.58	22687
837.718	22919
837.856	22854
837.993	22850
838.131	22927
838.269	22645
838.406	22828
838.544	22630
838.681	22405
838.819	22481
838.956	22329
839.094	22280
839.231	22360
839.369	22428
839.506	22710
839.643	22672
839.781	22295
839.918	22097
840.055	22169
840.193	22150
840.33	22135
840.467	22246
840.604	22124
840.742	22348
840.879	22074
841.016	22029
841.153	22048
841.29	22112
841.427	22093
841.564	22154
841.701	22078
841.838	22131
841.975	21941
842.112	22017
842.249	21945
842.385	21899
842.522	21972
842.659	21915
842.796	21823
842.933	21903
843.069	21793
843.206	21698
843.343	21975
843.479	21968
843.616	21785
843.752	21603
843.889	21591
844.025	21679
844.162	21599
844.298	21663
844.435	21599
844.571	21469
844.708	21660
844.844	21660
844.98	21736
845.117	21690
845.253	21587
845.389	21450
845.525	21473
845.661	21466
845.798	21313
845.934	21435
846.07	21252
846.206	21252
846.342	21386
846.478	21370
846.614	21066
846.75	20967
846.886	21013
847.022	21100
847.158	21020
847.294	20929
847.429	21070
847.565	21058
847.701	21123
847.837	20815
847.972	20609
848.108	20823
848.244	20731
848.379	20541
848.515	20537
848.65	20552
848.786	20648
848.921	20587
849.057	20686
849.192	20571
849.328	20556
849.463	20594
849.598	20442
849.734	20446
849.869	20457
850.004	20393
850.14	20259
850.275	20332
850.41	20092
850.545	20229
850.68	20336
850.815	20385
850.95	20313
851.085	20446
851.22	20358
851.355	20286
851.49	20153
851.625	20214
851.76	20111
851.895	20271
852.03	20138
852.165	20309
852.299	20221
852.434	20210
852.569	20259
852.703	20218
852.838	20229
852.973	20408
853.107	20427
853.242	20183
853.376	19989
853.511	19932
853.645	20027
853.78	20248
853.914	19955
854.048	19974
854.183	20126
854.317	20062
854.451	20088
854.585	20073
854.72	20107
854.854	20164
854.988	20054
855.122	20027
855.256	19997
855.39	20107
855.524	20145
855.658	20122
855.792	20153
855.926	20096
856.06	20043
856.194	20153
856.327	20039
856.461	20008
856.595	19955
856.729	20039
856.862	20180
856.996	20077
857.13	20081
857.263	20305
857.397	20157
857.53	19955
857.664	20229
857.797	20153
857.931	20130
858.064	20115
858.197	20001
858.331	20069
858.464	19989
858.597	19887
858.731	19906
858.864	19932
858.997	19940
859.13	20005
859.263	19947
859.396	20100
859.529	20065
859.662	19932
859.795	19951
859.928	19947
860.061	20214
860.194	20168
860.327	19951
860.46	19894
860.592	20039
860.725	20012
860.858	20176
860.99	20020
861.123	19734
861.256	19925
861.388	19959
861.521	20476
861.653	19761
861.786	19765
861.918	19833
862.05	19936
862.183	19993
862.315	20115
862.447	20103
862.58	19989
862.712	19799
862.844	19719
862.976	19898
863.108	19776
863.24	20248
863.372	19647
863.504	19643
863.636	19639
863.768	19780
863.9	19655
864.032	19533
864.164	19647
864.296	19670
864.428	19712
864.559	19868
864.691	19712
864.823	19601
864.954	19601
865.086	19597
865.217	19480
865.349	19487
865.48	19567
865.612	19540
865.743	19655
865.875	19616
866.006	19605
866.137	19658
866.269	19624
866.4	19502
866.531	19575
866.662	19419
866.793	19548
866.924	19556
867.055	19613
867.186	19521
867.317	19441
867.448	19362
867.579	19487
867.71	19400
867.841	19396
867.972	19441
868.103	19506
868.233	19445
868.364	19476
868.495	19616
868.625	19822
868.756	19894
868.886	19662
869.017	19761
869.147	19833
869.278	19856
869.408	19734
869.539	19616
869.669	19750
869.799	19814
869.929	19704
870.06	19917
870.19	20069
870.32	19955
870.45	20100
870.58	20218
870.71	20202
870.84	20282
870.97	20237
871.1	20187
871.23	20328
871.36	20237
871.489	20317
871.619	20263
871.749	20252
871.879	20286
872.008	20568
872.138	20408
872.267	20328
872.397	20206
872.526	20130
872.656	20065
872.785	20290
872.915	20324
873.044	20499
873.173	20408
873.303	20495
873.432	20385
873.561	20370
873.69	20374
873.819	20339
873.948	20412
874.077	20366
874.206	20313
874.335	20229
874.464	20484
874.593	20625
874.722	20587
874.851	20674
874.979	20712
875.108	20670
875.237	20594
875.365	20518
875.494	20568
875.623	20629
875.751	20530
875.88	20549
876.008	20727
876.136	20899
876.265	21104
876.393	21226
876.521	21062
876.65	21024
876.778	21047
876.906	21081
877.034	20834
877.162	20990
877.29	21005
877.418	21047
877.546	20914
877.674	20982
877.802	20956
877.93	20906
878.058	20887
878.185	20857
878.313	20872
878.441	20944
878.568	20796
878.696	20891
878.824	20925
878.951	20982
879.079	21047
879.206	21230
879.333	21135
879.461	21066
879.588	21100
879.715	21131
879.842	21180
879.97	21055
880.097	20792
880.224	20792
880.351	20735
880.478	20743
880.605	20754
880.732	20735
880.859	21017
880.986	20872
881.112	20746
881.239	20629
881.366	20526
881.493	20476
881.619	20267
881.746	20381
881.872	20400
881.999	20347
882.125	20275
882.252	20419
882.378	20366
882.505	20549
882.631	20423
882.757	20263
882.883	20248
883.01	20210
883.136	20092
883.262	20096
883.388	19940
883.514	20180
883.64	20195
883.766	20024
883.892	20100
884.018	19974
884.143	20054
884.269	20225
884.395	19860
884.52	19738
884.646	19852
884.772	19803
884.897	19651
885.023	19696
885.148	19822
885.274	19917
885.399	19856
885.524	19822
885.65	19826
885.775	19765
885.9	19757
886.025	19818
886.15	19917
886.275	19738
886.4	19685
886.525	19628
886.65	19742
886.775	19708
886.9	19788
887.025	20027
887.149	19788
887.274	19506
887.399	19510
887.523	19529
887.648	19434
887.773	19358
887.897	19518
888.021	19506
888.146	19559
888.27	19594
888.395	19655
888.519	19518
888.643	19597
888.767	19559
888.891	19449
889.015	19343
889.139	19487
889.263	19206
889.387	19438
889.511	19521
889.635	19567
889.759	19282
889.883	19285
890.006	19266
890.13	19377
890.254	19152
890.377	19282
890.501	19152
890.624	19031
890.748	19114
890.871	19038
890.995	18890
891.118	18795
891.241	18901
891.364	18909
891.488	18977
891.611	18916
891.734	18935
891.857	19008
891.98	18871
892.103	18947
892.226	19015
892.349	18916
892.471	18787
892.594	18806
892.717	18856
892.839	18814
892.962	18810
893.085	18943
893.207	18856
893.33	18707
893.452	18738
893.575	18848
893.697	18776
893.819	18996
893.941	18977
894.064	18989
894.186	18738
894.308	18700
894.43	19015
894.552	18962
894.674	18897
894.796	18795
894.918	18776
895.04	18897
895.161	18897
895.283	18852
895.405	18741
895.526	18821
895.648	18772
895.769	18817
895.891	18909
896.012	18901
896.134	19034
896.255	18920
896.376	18962
896.498	18897
896.619	19012
896.74	18939
896.861	18954
896.982	19301
897.103	19430
897.224	19137
897.345	19118
897.466	19141
897.587	19118
897.708	19278
897.828	19126
897.949	19126
898.07	19019
898.19	18981
898.311	19095
898.431	19095
898.552	19084
898.672	19202
898.792	19133
898.913	19137
899.033	19008
899.153	18901
899.273	18783
899.393	18730
899.513	18730
899.633	18821
899.753	18688
899.873	18943
899.993	18871
900.113	18840
900.232	18825
900.352	18616
900.472	18627
900.591	18639
900.711	18719
900.83	18490
900.95	18856
901.069	18878
901.189	18582
901.308	18334
901.427	18167
901.546	18239
901.665	18346
901.784	18258
901.904	18030
902.023	18011
902.141	17832
902.26	17889
902.379	17916
902.498	17745
902.617	17638
902.735	17794
902.854	17748
902.973	17676
903.091	17414
903.21	17501
903.328	17501
903.446	17288
903.565	17189
903.683	17269
903.801	17170
903.919	17269
904.038	17178
904.156	17029
904.274	17113
904.392	17048
904.51	17025
904.627	16991
904.745	17117
904.863	17067
904.981	16786
905.098	16641
905.216	16710
905.334	16630
905.451	16778
905.569	16615
905.686	16649
905.803	16782
905.921	16519
906.038	16626
906.155	16447
906.272	16424
906.389	16432
906.506	16169
906.623	16272
906.74	16234
906.857	16059
906.974	16169
907.091	16223
907.208	16310
907.324	16268
907.441	16124
907.557	16036
907.674	15827
907.79	15888
907.907	15895
908.023	15911
908.139	15960
908.256	15869
908.372	15819
908.488	15720
908.604	15648
908.72	15644
908.836	15629
908.952	15599
909.068	15545
909.184	15682
909.3	15587
909.415	15523
909.531	15610
909.647	15370
909.762	15416
909.878	15310
909.993	15363
910.108	15317
910.224	15344
910.339	15287
910.454	15195
910.57	15077
910.685	15058
910.8	15367
910.915	15420
911.03	15188
911.145	15028
911.259	14864
911.374	14823
911.489	14845
911.604	14792
911.718	14678
911.833	14705
911.947	14659
912.062	14511
912.176	14560
912.291	14663
912.405	14640
912.519	14792
912.633	14830
912.748	14659
912.862	14625
912.976	14476
913.09	14267
913.204	14427
913.318	14495
913.431	14499
913.545	14545
913.659	14575
913.772	14412
913.886	14278
914	14286
914.113	14457
914.226	14492
914.34	14408
914.453	14263
914.566	14317
914.68	14240
914.793	14214
914.906	14062
915.019	14001
915.132	13879
915.245	13909
915.358	13978
915.47	13944
915.583	13970
915.696	14050
915.809	14050
915.921	14123
916.034	13959
916.146	13795
916.259	13856
916.371	13989
916.483	13940
916.595	13776
916.708	13761
916.82	13811
916.932	13757
917.044	13746
917.156	13772
917.268	13708
917.38	13658
917.491	13643
917.603	13666
917.715	13727
917.826	13746
917.938	13567
918.049	13441
918.161	13567
918.272	13742
918.384	13772
918.495	13658
918.606	13468
918.717	13327
918.828	13453
918.939	13487
919.05	13320
919.161	13316
919.272	13168
919.383	13263
919.494	13419
919.604	13578
919.715	13289
919.826	13354
919.936	13331
920.047	13373
920.157	13384
920.267	13441
920.378	13327
920.488	13308
920.598	13514
920.708	13681
920.818	13483
920.928	13441
921.038	13624
921.148	13510
921.258	13301
921.368	13259
921.477	13164
921.587	13118
921.697	12962
921.806	13141
921.916	12962
922.025	12787
922.134	12806
922.244	12787
922.353	12783
922.462	12646
922.571	12620
922.68	12502
922.789	12407
922.898	12460
923.007	12369
923.116	12410
923.224	12342
923.333	12350
923.442	12239
923.55	12304
923.659	12296
923.767	12361
923.876	12232
923.984	12194
924.092	12129
924.201	12175
924.309	12194
924.417	12171
924.525	12171
924.633	12102
924.741	12886
924.849	11931
924.956	12083
925.064	11866
925.172	11817
925.279	11927
925.387	11828
925.494	11996
925.602	12045
925.709	11980
925.816	11859
925.924	11901
926.031	11996
926.138	11828
926.245	11878
926.352	11767
926.459	11923
926.566	11961
926.673	11775
926.779	11714
926.886	11710
926.993	11539
927.099	11505
927.206	11433
927.312	11425
927.419	11505
927.525	11471
927.631	11554
927.737	11395
927.843	11341
927.95	11242
928.056	11288
928.162	11364
928.267	11410
928.373	12060
928.479	11436
928.585	11174
928.69	11341
928.796	11330
928.901	11227
929.007	11090
929.112	11280
929.218	11178
929.323	11136
929.428	10999
929.533	11189
929.638	11025
929.743	11003
929.848	11117
929.953	11083
930.058	10923
930.163	10805
930.267	10793
930.372	10904
930.477	10698
930.581	10976
930.685	10763
930.79	10702
930.894	10706
930.998	10672
931.103	10763
931.207	10386
931.311	10337
931.415	10246
931.519	10086
931.623	9968
