Data from test_V78500241_1337.txt Node
Date: Fri Mar 25 15:19:09 CST 2022
User: usil
Spectrometer: V785-0024
Trigger mode: 0
Integration Time (sec): 4.000000E-1
Scans to average: 1
Nonlinearity correction enabled: false
Boxcar width: 0
Storing dark spectrum: false
XAxis mode: Wavelengths
Number of Pixels in Spectrum: 1024
>>>>>Begin Spectral Data<<<<<
801.071	27994
801.214	27903
801.356	27656
801.499	27553
801.641	27587
801.783	27454
801.926	27477
802.068	27427
802.211	27458
802.353	27321
802.496	27287
802.638	27222
802.78	27089
802.923	27077
803.065	27036
803.208	27047
803.35	27176
803.492	27237
803.635	27378
803.777	27241
803.919	27378
804.061	27682
804.204	27504
804.346	27359
804.488	27211
804.63	27389
804.773	27264
804.915	27481
805.057	27591
805.199	27454
805.341	27488
805.483	27553
805.626	27397
805.768	27466
805.91	27397
806.052	27485
806.194	27317
806.336	27603
806.478	27393
806.62	27519
806.762	27622
806.904	27819
807.046	28029
807.188	27922
807.33	27987
807.472	28040
807.614	27778
807.756	27888
807.898	27968
808.04	27641
808.182	27846
808.324	27736
808.465	27808
808.607	27979
808.749	28234
808.891	28268
809.033	28287
809.174	28154
809.316	28128
809.458	28287
809.6	28017
809.741	28443
809.883	28409
810.025	28451
810.166	28489
810.308	28363
810.45	28478
810.591	28246
810.733	28291
810.875	28181
811.016	27972
811.158	28013
811.299	28360
811.441	28322
811.582	28287
811.724	28131
811.865	28036
812.007	28215
812.148	28112
812.29	28253
812.431	28318
812.573	28417
812.714	28596
812.855	28736
812.997	28755
813.138	28927
813.279	28854
813.421	28843
813.562	28691
813.703	28565
813.845	28360
813.986	28310
814.127	28029
814.268	27838
814.41	27895
814.551	27922
814.692	28105
814.833	27778
814.974	27835
815.115	27880
815.256	27739
815.397	27728
815.539	27812
815.68	27587
815.821	27614
815.962	27652
816.103	27549
816.244	27641
816.385	27447
816.526	27401
816.666	27313
816.807	27245
816.948	27256
817.089	27237
817.23	27138
817.371	27119
817.512	27077
817.653	27176
817.793	27066
817.934	27260
818.075	27222
818.216	27173
818.356	27222
818.497	27127
818.638	26823
818.778	26994
818.919	26902
819.06	26902
819.2	27051
819.341	27176
819.481	27222
819.622	27199
819.762	27633
819.903	27462
820.043	27203
820.184	27245
820.324	27150
820.465	27252
820.605	27306
820.746	27294
820.886	27157
821.026	27291
821.167	27249
821.307	27218
821.447	27260
821.588	27108
821.728	27009
821.868	26842
822.008	26587
822.149	26636
822.289	26739
822.429	26313
822.569	26400
822.709	26366
822.849	26168
822.99	26031
823.13	26271
823.27	26267
823.41	25894
823.55	25784
823.69	26027
823.83	25963
823.97	25776
824.11	25746
824.25	25769
824.389	25837
824.529	25906
824.669	25833
824.809	25951
824.949	25883
825.089	25814
825.228	25913
825.368	25689
825.508	25502
825.648	25495
825.787	25655
825.927	25746
826.067	25533
826.206	25571
826.346	25639
826.485	25616
826.625	25624
826.765	25780
826.904	25852
827.044	25453
827.183	25460
827.323	25327
827.462	25453
827.601	25312
827.741	25384
827.88	25251
828.02	25206
828.159	25373
828.298	25445
828.437	25438
828.577	25369
828.716	25445
828.855	25263
828.994	25129
829.134	25065
829.273	25156
829.412	24966
829.551	25004
829.69	24989
829.829	25038
829.968	25118
830.107	25266
830.246	25091
830.385	25122
830.524	24920
830.663	24970
830.802	24787
830.941	24741
831.08	24688
831.219	24726
831.357	24745
831.496	24863
831.635	24646
831.774	24623
831.913	24639
832.051	24388
832.19	24505
832.329	24517
832.467	24395
832.606	24330
832.744	24334
832.883	24330
833.022	24292
833.16	24380
833.299	24266
833.437	24342
833.576	24471
833.714	24483
833.852	24414
833.991	24338
834.129	24437
834.267	24536
834.406	24448
834.544	24399
834.682	24365
834.821	24292
834.959	24669
835.097	24395
835.235	24570
835.373	24327
835.511	24327
835.65	24281
835.788	24289
835.926	24201
836.064	23912
836.202	24068
836.34	24296
836.478	24277
836.615	24243
836.753	24277
836.891	24258
837.029	24308
837.167	24258
837.305	24186
837.443	24098
837.58	24076
837.718	24083
837.856	24068
837.993	24045
838.131	24064
838.269	23939
838.406	23897
838.544	23965
838.681	23729
838.819	23668
838.956	23554
839.094	23554
839.231	23714
839.369	23764
839.506	23874
839.643	23733
839.781	23615
839.918	23539
840.055	23577
840.193	23486
840.33	23467
840.467	23619
840.604	23581
840.742	23676
840.879	23277
841.016	23398
841.153	23345
841.29	23520
841.427	23406
841.564	23440
841.701	23391
841.838	23467
841.975	23360
842.112	23349
842.249	23284
842.385	23140
842.522	23497
842.659	23246
842.796	23292
842.933	23315
843.069	23208
843.206	23231
843.343	23223
843.479	23178
843.616	23330
843.752	23128
843.889	23003
844.025	23189
844.162	22961
844.298	22957
844.435	23033
844.571	22923
844.708	22961
844.844	23090
844.98	23140
845.117	23033
845.253	22938
845.389	22801
845.525	22805
845.661	22847
845.798	22694
845.934	22820
846.07	22774
846.206	22710
846.342	22740
846.478	22729
846.614	22512
846.75	22363
846.886	22455
847.022	22527
847.158	22565
847.294	22402
847.429	22360
847.565	22504
847.701	22668
847.837	22158
847.972	22135
848.108	22291
848.244	22337
848.379	22192
848.515	22074
848.65	22048
848.786	22048
848.921	22067
849.057	22116
849.192	22086
849.328	22112
849.463	22143
849.598	21888
849.734	21953
849.869	21797
850.004	21892
850.14	21728
850.275	21717
850.41	21690
850.545	21823
850.68	21842
850.815	21698
850.95	21774
851.085	21930
851.22	21964
851.355	21994
851.49	21705
851.625	21850
851.76	21838
851.895	21800
852.03	21648
852.165	21789
852.299	21797
852.434	21926
852.569	21861
852.703	21732
852.838	21937
852.973	21873
853.107	21918
853.242	21781
853.376	21724
853.511	21488
853.645	21557
853.78	21804
853.914	21618
854.048	21591
854.183	21599
854.317	21732
854.451	21785
854.585	21542
854.72	21591
854.854	21800
854.988	21553
855.122	21747
855.256	21466
855.39	21583
855.524	21675
855.658	21728
855.792	21682
855.926	21728
856.06	21625
856.194	21671
856.327	21485
856.461	21511
856.595	21485
856.729	21747
856.862	21633
856.996	21656
857.13	21682
857.263	21633
857.397	21709
857.53	21694
857.664	21781
857.797	21694
857.931	21690
858.064	21808
858.197	21774
858.331	21694
858.464	21458
858.597	21485
858.731	21587
858.864	21561
858.997	21595
859.13	21743
859.263	21618
859.396	21751
859.529	21519
859.662	21667
859.795	21564
859.928	21583
860.061	21736
860.194	21880
860.327	21667
860.46	21523
860.592	21694
860.725	21915
860.858	21793
860.99	21690
861.123	21568
861.256	21534
861.388	21564
861.521	22329
861.653	21587
861.786	21454
861.918	21439
862.05	21526
862.183	21504
862.315	21656
862.447	21618
862.58	21568
862.712	21325
862.844	21336
862.976	21466
863.108	21488
863.24	21698
863.372	21264
863.504	21310
863.636	21439
863.768	21401
863.9	21272
864.032	21302
864.164	21317
864.296	21294
864.428	21443
864.559	21302
864.691	21431
864.823	21287
864.954	21188
865.086	21252
865.217	21157
865.349	21188
865.48	21260
865.612	21123
865.743	21325
865.875	21283
866.006	21226
866.137	21176
866.269	21222
866.4	21142
866.531	21218
866.662	21211
866.793	21154
866.924	21184
867.055	21195
867.186	21032
867.317	21096
867.448	21043
867.579	21249
867.71	21192
867.841	21108
867.972	21222
868.103	21058
868.233	21157
868.364	21169
868.495	21211
868.625	21412
868.756	21477
868.886	21294
869.017	21428
869.147	21469
869.278	21500
869.408	21511
869.539	21382
869.669	21492
869.799	21523
869.929	21599
870.06	21454
870.19	21599
870.32	21800
870.45	21679
870.58	21755
870.71	21865
870.84	21842
870.97	21709
871.1	21850
871.23	21937
871.36	21880
871.489	21819
871.619	21964
871.749	22013
871.879	22032
872.008	22010
872.138	21899
872.267	21979
872.397	21903
872.526	21789
872.656	21762
872.785	21747
872.915	21975
873.044	22166
873.173	22044
873.303	22051
873.432	22074
873.561	22215
873.69	22093
873.819	21979
873.948	22124
874.077	21884
874.206	21911
874.335	21975
874.464	22181
874.593	22196
874.722	22223
874.851	22204
874.979	22162
875.108	22276
875.237	22090
875.365	22063
875.494	22287
875.623	22272
875.751	22200
875.88	22265
876.008	22409
876.136	22344
876.265	22584
876.393	22710
876.521	22660
876.65	22675
876.778	22645
876.906	22470
877.034	22580
877.162	22618
877.29	22554
877.418	22622
877.546	22618
877.674	22538
877.802	22527
877.93	22565
878.058	22535
878.185	22367
878.313	22481
878.441	22557
878.568	22470
878.696	22428
878.824	22451
878.951	22668
879.079	22599
879.206	22820
879.333	22721
879.461	22599
879.588	22675
879.715	22698
879.842	22835
879.97	22717
880.097	22409
880.224	22421
880.351	22314
880.478	22276
880.605	22322
880.732	22329
880.859	22554
880.986	22428
881.112	22443
881.239	22238
881.366	22116
881.493	22029
881.619	21949
881.746	21953
881.872	21998
881.999	21861
882.125	21907
882.252	21998
882.378	21960
882.505	22013
882.631	21762
882.757	21694
882.883	21675
883.01	21781
883.136	21500
883.262	21576
883.388	21488
883.514	21606
883.64	21728
883.766	21572
883.892	21507
884.018	21458
884.143	21583
884.269	21583
884.395	21405
884.52	21340
884.646	21313
884.772	21199
884.897	21264
885.023	21313
885.148	21386
885.274	21325
885.399	21310
885.524	21165
885.65	21466
885.775	21302
885.9	21195
886.025	21374
886.15	21485
886.275	21275
886.4	21226
886.525	21283
886.65	21226
886.775	21154
886.9	21329
887.025	21428
887.149	21340
887.274	21199
887.399	21119
887.523	21161
887.648	21074
887.773	20906
887.897	21104
888.021	21085
888.146	20929
888.27	21211
888.395	21184
888.519	21055
888.643	21173
888.767	21150
888.891	20944
889.015	20815
889.139	20925
889.263	20838
889.387	20960
889.511	20941
889.635	21032
889.759	20864
889.883	20880
890.006	20769
890.13	20891
890.254	20739
890.377	20750
890.501	20670
890.624	20537
890.748	20724
890.871	20549
890.995	20412
891.118	20427
891.241	20423
891.364	20415
891.488	20533
891.611	20492
891.734	20423
891.857	20454
891.98	20355
892.103	20492
892.226	20423
892.349	20385
892.471	20107
892.594	20267
892.717	20446
892.839	20305
892.962	20393
893.085	20419
893.207	20332
893.33	20172
893.452	20244
893.575	20446
893.697	20221
893.819	20450
893.941	20484
894.064	20465
894.186	20275
894.308	20233
894.43	20324
894.552	20609
894.674	20454
894.796	20195
894.918	20278
895.04	20313
895.161	20343
895.283	20248
895.405	20358
895.526	20374
895.648	20225
895.769	20233
895.891	20286
896.012	20358
896.134	20301
896.255	20221
896.376	20313
896.498	20298
896.619	20271
896.74	20252
896.861	20343
896.982	20446
897.103	20739
897.224	20518
897.345	20476
897.466	20473
897.587	20537
897.708	20644
897.828	20606
897.949	20594
898.07	20343
898.19	20526
898.311	20587
898.431	20419
898.552	20507
898.672	20560
898.792	20568
898.913	20495
899.033	20355
899.153	20271
899.273	20221
899.393	20237
899.513	20377
899.633	20298
899.753	20244
899.873	20259
899.993	20336
900.113	20138
900.232	20396
900.352	20172
900.472	20035
900.591	20012
900.711	20233
900.83	20008
900.95	20054
901.069	20199
901.189	19974
901.308	19788
901.427	19700
901.546	19590
901.665	19662
901.784	19753
901.904	19468
902.023	19301
902.141	19225
902.26	19251
902.379	19247
902.498	19156
902.617	19110
902.735	19107
902.854	19065
902.973	19099
903.091	18954
903.21	18806
903.328	18768
903.446	18700
903.565	18563
903.683	18661
903.801	18521
903.919	18582
904.038	18597
904.156	18388
904.274	18460
904.392	18338
904.51	18304
904.627	18277
904.745	18464
904.863	18384
904.981	18152
905.098	18019
905.216	18015
905.334	18072
905.451	18125
905.569	18030
905.686	18068
905.803	17992
905.921	17920
906.038	17946
906.155	17859
906.272	17737
906.389	17634
906.506	17665
906.623	17566
906.74	17558
906.857	17493
906.974	17482
907.091	17642
907.208	17687
907.324	17630
907.441	17387
907.557	17379
907.674	17292
907.79	17261
907.907	17216
908.023	17200
908.139	17269
908.256	17216
908.372	17227
908.488	17124
908.604	16999
908.72	16999
908.836	17029
908.952	17083
909.068	16953
909.184	17090
909.3	16991
909.415	17079
909.531	17006
909.647	16801
909.762	16691
909.878	16698
909.993	16698
910.108	16748
910.224	16641
910.339	16634
910.454	16512
910.57	16527
910.685	16371
910.8	16752
910.915	16664
911.03	16519
911.145	16348
911.259	16299
911.374	16314
911.489	16211
911.604	16147
911.718	16074
911.833	16063
911.947	15903
912.062	15884
912.176	16067
912.291	16097
912.405	16029
912.519	16097
912.633	16188
912.748	16166
912.862	16071
912.976	15865
913.09	15789
913.204	15778
913.318	15846
913.431	15911
913.545	15915
913.659	15949
913.772	15778
913.886	15656
914	15709
914.113	15838
914.226	15778
914.34	15675
914.453	15572
914.566	15667
914.68	15625
914.793	15504
914.906	15313
915.019	15260
915.132	15226
915.245	15211
915.358	15302
915.47	15237
915.583	15317
915.696	15291
915.809	15389
915.921	15317
916.034	15222
916.146	15157
916.259	15188
916.371	15241
916.483	15192
916.595	15074
916.708	15047
916.82	15135
916.932	15169
917.044	15100
917.156	14975
917.268	14918
917.38	14960
917.491	14925
917.603	14967
917.715	15013
917.826	14963
917.938	14925
918.049	14701
918.161	14849
918.272	15089
918.384	14956
918.495	14804
918.606	14693
918.717	14651
918.828	14720
918.939	14667
919.05	14617
919.161	14655
919.272	14499
919.383	14541
919.494	14682
919.604	14864
919.715	14682
919.826	14541
919.936	14621
920.047	14644
920.157	14632
920.267	14735
920.378	14564
920.488	14625
920.598	14720
920.708	14876
920.818	14785
920.928	14716
921.038	14868
921.148	14880
921.258	14579
921.368	14415
921.477	14404
921.587	14282
921.697	14240
921.806	14252
921.916	14214
922.025	14062
922.134	14043
922.244	13902
922.353	14001
922.462	13947
922.571	13807
922.68	13666
922.789	13586
922.898	13655
923.007	13571
923.116	13757
923.224	13620
923.333	13685
923.442	13491
923.55	13468
923.659	13502
923.767	13563
923.876	13476
923.984	13434
924.092	13392
924.201	13491
924.309	13369
924.417	13312
924.525	13255
924.633	13350
924.741	14206
924.849	13107
924.956	13209
925.064	12989
925.172	13027
925.279	13050
925.387	13145
925.494	13053
925.602	13251
925.709	13103
925.816	12970
925.924	13019
926.031	13156
926.138	13031
926.245	13034
926.352	12913
926.459	12951
926.566	13107
926.673	12951
926.779	12795
926.886	12821
926.993	12662
927.099	12627
927.206	12547
927.312	12513
927.419	12620
927.525	12585
927.631	12612
927.737	12506
927.843	12517
927.95	12380
928.056	12353
928.162	12452
928.267	12471
928.373	13027
928.479	12544
928.585	12167
928.69	12399
928.796	12422
928.901	12281
929.007	12167
929.112	12281
929.218	12205
929.323	12186
929.428	12159
929.533	12285
929.638	12159
929.743	12155
929.848	12190
929.953	12106
930.058	11984
930.163	11775
930.267	11821
930.372	12011
930.477	11798
930.581	11954
930.685	11855
930.79	11771
930.894	11680
930.998	11748
931.103	11760
931.207	11414
931.311	11425
931.415	11326
931.519	11181
931.623	11018
