Data from test_V78500241_2255.txt Node
Date: Fri Mar 25 15:25:33 CST 2022
User: usil
Spectrometer: V785-0024
Trigger mode: 0
Integration Time (sec): 4.000000E-1
Scans to average: 1
Nonlinearity correction enabled: false
Boxcar width: 0
Storing dark spectrum: false
XAxis mode: Wavelengths
Number of Pixels in Spectrum: 1024
>>>>>Begin Spectral Data<<<<<
801.071	27800
801.214	27751
801.356	27401
801.499	27306
801.641	27184
801.783	27226
801.926	27363
802.068	27249
802.211	27226
802.353	27039
802.496	26929
802.638	26948
802.78	26667
802.923	26899
803.065	26663
803.208	26746
803.35	26807
803.492	27100
803.635	27017
803.777	27001
803.919	27081
804.061	27321
804.204	27077
804.346	26963
804.488	27047
804.63	27089
804.773	26937
804.915	27093
805.057	27313
805.199	27028
805.341	27142
805.483	27222
805.626	27165
805.768	27047
805.91	27093
806.052	27252
806.194	27180
806.336	27348
806.478	27249
806.62	27241
806.762	27214
806.904	27485
807.046	27545
807.188	27660
807.33	27564
807.472	27618
807.614	27534
807.756	27534
807.898	27519
808.04	27340
808.182	27427
808.324	27519
808.465	27622
808.607	27720
808.749	27937
808.891	27934
809.033	27975
809.174	27770
809.316	27812
809.458	27842
809.6	27614
809.741	27956
809.883	27979
810.025	28013
810.166	28131
810.308	28044
810.45	27960
810.591	28051
810.733	27854
810.875	27831
811.016	27842
811.158	27686
811.299	27812
811.441	27793
811.582	27930
811.724	27755
811.865	27686
812.007	27717
812.148	27850
812.29	27941
812.431	27895
812.573	28070
812.714	28219
812.855	28219
812.997	28428
813.138	28466
813.279	28341
813.421	28325
813.562	28379
813.703	28032
813.845	28082
813.986	27854
814.127	27564
814.268	27424
814.41	27587
814.551	27424
814.692	27488
814.833	27389
814.974	27466
815.115	27561
815.256	27336
815.397	27401
815.539	27332
815.68	27287
815.821	27283
815.962	27272
816.103	27207
816.244	27241
816.385	27009
816.526	27074
816.666	26925
816.807	26773
816.948	26758
817.089	26815
817.23	26762
817.371	26857
817.512	26830
817.653	26826
817.793	26632
817.934	26731
818.075	26830
818.216	26868
818.356	26670
818.497	26746
818.638	26476
818.778	26461
818.919	26427
819.06	26427
819.2	26701
819.341	26754
819.481	26807
819.622	26880
819.762	27135
819.903	27112
820.043	26902
820.184	26902
820.324	26769
820.465	26815
820.605	26849
820.746	26830
820.886	26617
821.026	26842
821.167	26861
821.307	26754
821.447	26792
821.588	26590
821.728	26476
821.868	26351
822.008	26263
822.149	26336
822.289	26275
822.429	25974
822.569	25887
822.709	26008
822.849	25799
822.99	25757
823.13	25685
823.27	25693
823.41	25559
823.55	25358
823.69	25434
823.83	25556
823.97	25506
824.11	25422
824.25	25278
824.389	25320
824.529	25479
824.669	25304
824.809	25525
824.949	25441
825.089	25289
825.228	25415
825.368	25327
825.508	25221
825.648	25244
825.787	25270
825.927	25198
826.067	25209
826.206	25129
826.346	25129
826.485	25236
826.625	25206
826.765	25285
826.904	25141
827.044	25061
827.183	25091
827.323	24840
827.462	24840
827.601	24916
827.741	24825
827.88	25053
828.02	24829
828.159	24795
828.298	24901
828.437	24901
828.577	24852
828.716	24992
828.855	24772
828.994	24692
829.134	24703
829.273	24570
829.412	24494
829.551	24589
829.69	24692
829.829	24566
829.968	24593
830.107	24722
830.246	24650
830.385	24703
830.524	24471
830.663	24505
830.802	24323
830.941	24163
831.08	24273
831.219	24350
831.357	24353
831.496	24384
831.635	24289
831.774	24125
831.913	24171
832.051	23942
832.19	23942
832.329	24026
832.467	23901
832.606	23847
832.744	23790
832.883	23817
833.022	23737
833.16	23843
833.299	23961
833.437	23790
833.576	24053
833.714	23980
833.852	23946
833.991	23988
834.129	23965
834.267	24018
834.406	23870
834.544	23996
834.682	23882
834.821	23980
834.959	24064
835.097	23920
835.235	24049
835.373	23996
835.511	23874
835.65	23817
835.788	23863
835.926	23684
836.064	23665
836.202	23642
836.34	23866
836.478	23718
836.615	23737
836.753	23866
836.891	23802
837.029	23741
837.167	23668
837.305	23691
837.443	23672
837.58	23691
837.718	23634
837.856	23634
837.993	23604
838.131	23714
838.269	23395
838.406	23600
838.544	23444
838.681	23311
838.819	23178
838.956	23056
839.094	23102
839.231	23170
839.369	23223
839.506	23501
839.643	23395
839.781	23071
839.918	22991
840.055	23056
840.193	23083
840.33	22991
840.467	22961
840.604	23197
840.742	23303
840.879	22805
841.016	22877
841.153	23044
841.29	23056
841.427	23067
841.564	23136
841.701	23041
841.838	22968
841.975	23052
842.112	22839
842.249	22763
842.385	22740
842.522	22957
842.659	22824
842.796	22866
842.933	22820
843.069	22782
843.206	22748
843.343	22866
843.479	22702
843.616	22858
843.752	22641
843.889	22489
844.025	22710
844.162	22538
844.298	22649
844.435	22584
844.571	22577
844.708	22634
844.844	22508
844.98	22729
845.117	22497
845.253	22519
845.389	22470
845.525	22428
845.661	22573
845.798	22261
845.934	22253
846.07	22169
846.206	22207
846.342	22329
846.478	22261
846.614	22097
846.75	21945
846.886	22116
847.022	22188
847.158	22147
847.294	22067
847.429	22063
847.565	21949
847.701	22314
847.837	21785
847.972	21637
848.108	21728
848.244	21781
848.379	21610
848.515	21496
848.65	21557
848.786	21507
848.921	21599
849.057	21808
849.192	21797
849.328	21759
849.463	21606
849.598	21595
849.734	21511
849.869	21416
850.004	21355
850.14	21408
850.275	21374
850.41	21279
850.545	21325
850.68	21199
850.815	21408
850.95	21313
851.085	21614
851.22	21450
851.355	21488
851.49	21435
851.625	21268
851.76	21317
851.895	21249
852.03	21211
852.165	21401
852.299	21298
852.434	21374
852.569	21405
852.703	21439
852.838	21466
852.973	21462
853.107	21408
853.242	21249
853.376	21272
853.511	21142
853.645	21062
853.78	21211
853.914	21127
854.048	21142
854.183	21108
854.317	21260
854.451	21336
854.585	21150
854.72	21161
854.854	21096
854.988	21055
855.122	21184
855.256	21066
855.39	21150
855.524	21256
855.658	21283
855.792	21108
855.926	21188
856.06	21260
856.194	21351
856.327	21226
856.461	21089
856.595	21043
856.729	21135
856.862	21203
856.996	21112
857.13	21184
857.263	21279
857.397	21325
857.53	21192
857.664	21287
857.797	21245
857.931	21321
858.064	21146
858.197	21233
858.331	21260
858.464	21112
858.597	21017
858.731	21116
858.864	21180
858.997	21165
859.13	21135
859.263	21207
859.396	21211
859.529	21195
859.662	21173
859.795	21211
859.928	21211
860.061	21416
860.194	21283
860.327	21188
860.46	21188
860.592	21287
860.725	21321
860.858	21275
860.99	21184
861.123	21047
861.256	21024
861.388	21207
861.521	21979
861.653	20994
861.786	21055
861.918	20887
862.05	21074
862.183	21199
862.315	21131
862.447	21275
862.58	21146
862.712	20956
862.844	20849
862.976	20998
863.108	20979
863.24	21340
863.372	20921
863.504	20925
863.636	20830
863.768	20952
863.9	20857
864.032	20914
864.164	20819
864.296	20982
864.428	21009
864.559	20956
864.691	20826
864.823	20891
864.954	20986
865.086	20861
865.217	20868
865.349	20678
865.48	20807
865.612	20678
865.743	20906
865.875	20678
866.006	20868
866.137	20788
866.269	20792
866.4	20765
866.531	20705
866.662	20693
866.793	20655
866.924	20739
867.055	20735
867.186	20796
867.317	20724
867.448	20663
867.579	20750
867.71	20689
867.841	20678
867.972	20773
868.103	20720
868.233	20636
868.364	20853
868.495	20800
868.625	20906
868.756	21032
868.886	20921
869.017	20963
869.147	21070
869.278	21093
869.408	21089
869.539	20895
869.669	21089
869.799	21089
869.929	21062
870.06	21024
870.19	21211
870.32	21146
870.45	21154
870.58	21332
870.71	21488
870.84	21469
870.97	21420
871.1	21325
871.23	21534
871.36	21625
871.489	21553
871.619	21447
871.749	21568
871.879	21481
872.008	21622
872.138	21519
872.267	21545
872.397	21481
872.526	21268
872.656	21447
872.785	21416
872.915	21660
873.044	21739
873.173	21542
873.303	21530
873.432	21603
873.561	21804
873.69	21580
873.819	21587
873.948	21625
874.077	21606
874.206	21618
874.335	21530
874.464	21698
874.593	21835
874.722	21816
874.851	21968
874.979	21835
875.108	21892
875.237	21869
875.365	21728
875.494	21804
875.623	21831
875.751	21755
875.88	21747
876.008	21854
876.136	22032
876.265	22093
876.393	22367
876.521	22230
876.65	22341
876.778	22246
876.906	22215
877.034	22200
877.162	22139
877.29	22128
877.418	22192
877.546	22226
877.674	22059
877.802	22166
877.93	22131
878.058	22173
878.185	22032
878.313	22128
878.441	22086
878.568	22044
878.696	22116
878.824	22078
878.951	22299
879.079	22398
879.206	22421
879.333	22352
879.461	22261
879.588	22310
879.715	22398
879.842	22390
879.97	22154
880.097	22029
880.224	21964
880.351	22097
880.478	21991
880.605	21994
880.732	21991
880.859	22150
880.986	21949
881.112	21994
881.239	21979
881.366	21675
881.493	21641
881.619	21572
881.746	21694
881.872	21755
881.999	21557
882.125	21443
882.252	21557
882.378	21622
882.505	21637
882.631	21469
882.757	21272
882.883	21241
883.01	21241
883.136	21256
883.262	21260
883.388	21081
883.514	21173
883.64	21367
883.766	21260
883.892	20956
884.018	21047
884.143	21207
884.269	21222
884.395	20933
884.52	20876
884.646	20948
884.772	21024
884.897	20785
885.023	20906
885.148	20941
885.274	21024
885.399	20986
885.524	20971
885.65	20971
885.775	20880
885.9	20842
886.025	21005
886.15	20975
886.275	20876
886.4	20842
886.525	20880
886.65	20880
886.775	20861
886.9	20998
887.025	21089
887.149	20819
887.274	20750
887.399	20625
887.523	20720
887.648	20621
887.773	20609
887.897	20716
888.021	20735
888.146	20575
888.27	20868
888.395	20849
888.519	20708
888.643	20689
888.767	20625
888.891	20522
889.015	20423
889.139	20568
889.263	20476
889.387	20568
889.511	20609
889.635	20609
889.759	20438
889.883	20514
890.006	20564
890.13	20518
890.254	20530
890.377	20358
890.501	20134
890.624	20252
890.748	20256
890.871	20092
890.995	20039
891.118	20016
891.241	20126
891.364	20012
891.488	20180
891.611	20065
891.734	20008
891.857	20107
891.98	20016
892.103	20107
892.226	20058
892.349	20081
892.471	19917
892.594	19879
892.717	19951
892.839	19963
892.962	19856
893.085	19970
893.207	19974
893.33	19871
893.452	19860
893.575	20031
893.697	19868
893.819	20111
893.941	20176
894.064	20096
894.186	19906
894.308	19860
894.43	20054
894.552	20157
894.674	20073
894.796	19845
894.918	19917
895.04	19860
895.161	20054
895.283	19944
895.405	19917
895.526	19970
895.648	19982
895.769	20008
895.891	20001
896.012	19974
896.134	20016
896.255	19875
896.376	19852
896.498	19978
896.619	19982
896.74	19822
896.861	20035
896.982	20278
897.103	20362
897.224	20240
897.345	20267
897.466	20043
897.587	20168
897.708	20206
897.828	20088
897.949	19982
898.07	19993
898.19	20134
898.311	20263
898.431	20122
898.552	20161
898.672	20168
898.792	20225
898.913	20183
899.033	20050
899.153	19974
899.273	19860
899.393	19955
899.513	19902
899.633	19944
899.753	19833
899.873	19936
899.993	20016
900.113	19856
900.232	19788
900.352	20024
900.472	19799
900.591	19655
900.711	19696
900.83	19628
900.95	19700
901.069	19776
901.189	19647
901.308	19441
901.427	19247
901.546	19327
901.665	19270
901.784	19331
901.904	19133
902.023	19038
902.141	19012
902.26	18882
902.379	18840
902.498	18833
902.617	18753
902.735	18837
902.854	18844
902.973	18802
903.091	18536
903.21	18486
903.328	18559
903.446	18266
903.565	18342
903.683	18380
903.801	18136
903.919	18289
904.038	18213
904.156	18026
904.274	18155
904.392	18098
904.51	18136
904.627	18060
904.745	18053
904.863	18163
904.981	17893
905.098	17779
905.216	17695
905.334	17779
905.451	17684
905.569	17611
905.686	17775
905.803	17748
905.921	17516
906.038	17710
906.155	17535
906.272	17368
906.389	17452
906.506	17231
906.623	17181
906.74	17246
906.857	17166
906.974	17147
907.091	17269
907.208	17315
907.324	17239
907.441	17136
907.557	17041
907.674	16995
907.79	16835
907.907	16995
908.023	16968
908.139	16972
908.256	16968
908.372	16934
908.488	16866
908.604	16675
908.72	16801
908.836	16733
908.952	16615
909.068	16736
909.184	16759
909.3	16672
909.415	16683
909.531	16801
909.647	16538
909.762	16367
909.878	16455
909.993	16402
910.108	16363
910.224	16303
910.339	16287
910.454	16295
910.57	16097
910.685	16120
910.8	16382
910.915	16314
911.03	16128
911.145	16013
911.259	15945
911.374	16051
911.489	15994
911.604	15930
911.718	15701
911.833	15781
911.947	15701
912.062	15530
912.176	15667
912.291	15709
912.405	15686
912.519	15888
912.633	16002
912.748	15690
912.862	15720
912.976	15492
913.09	15488
913.204	15572
913.318	15568
913.431	15584
913.545	15553
913.659	15701
913.772	15408
913.886	15374
914	15321
914.113	15473
914.226	15507
914.34	15477
914.453	15291
914.566	15515
914.68	15291
914.793	15214
914.906	15039
915.019	14990
915.132	14906
915.245	14937
915.358	14982
915.47	14944
915.583	15077
915.696	14956
915.809	15028
915.921	15081
916.034	14979
916.146	14785
916.259	14883
916.371	14944
916.483	14902
916.595	14857
916.708	14948
916.82	14724
916.932	14777
917.044	14727
917.156	14834
917.268	14587
917.38	14655
917.491	14541
917.603	14583
917.715	14807
917.826	14678
917.938	14541
918.049	14541
918.161	14564
918.272	14689
918.384	14701
918.495	14621
918.606	14309
918.717	14381
918.828	14408
918.939	14465
919.05	14339
919.161	14347
919.272	14233
919.383	14298
919.494	14412
919.604	14606
919.715	14404
919.826	14294
919.936	14343
920.047	14374
920.157	14370
920.267	14518
920.378	14358
920.488	14305
920.598	14564
920.708	14705
920.818	14495
920.928	14419
921.038	14606
921.148	14590
921.258	14278
921.368	14275
921.477	14161
921.587	14081
921.697	13974
921.806	14115
921.916	13951
922.025	13856
922.134	13750
922.244	13670
922.353	13803
922.462	13624
922.571	13453
922.68	13453
922.789	13335
922.898	13426
923.007	13331
923.116	13400
923.224	13453
923.333	13308
923.442	13350
923.55	13175
923.659	13354
923.767	13266
923.876	13213
923.984	13331
924.092	13168
924.201	13156
924.309	13023
924.417	13179
924.525	13050
924.633	13088
924.741	13814
924.849	12981
924.956	13000
925.064	12787
925.172	12764
925.279	12787
925.387	12856
925.494	12776
925.602	12970
925.709	12764
925.816	12779
925.924	12810
926.031	12867
926.138	12764
926.245	12696
926.352	12715
926.459	12779
926.566	12734
926.673	12711
926.779	12547
926.886	12540
926.993	12448
927.099	12418
927.206	12353
927.312	12285
927.419	12361
927.525	12467
927.631	12342
927.737	12323
927.843	12197
927.95	12235
928.056	12159
928.162	12213
928.267	12224
928.373	12798
928.479	12327
928.585	12060
928.69	12129
928.796	12163
928.901	12106
929.007	11984
929.112	12110
929.218	12091
929.323	11939
929.428	11866
929.533	12114
929.638	11859
929.743	11935
929.848	11973
929.953	11851
930.058	11786
930.163	11630
930.267	11661
930.372	11805
930.477	11524
930.581	11764
930.685	11707
930.79	11562
930.894	11524
930.998	11482
931.103	11558
931.207	11246
931.311	11212
931.415	11056
931.519	10927
931.623	10889
