Data from test_V78500241_2354.txt Node
Date: Fri Mar 25 15:26:14 CST 2022
User: usil
Spectrometer: V785-0024
Trigger mode: 0
Integration Time (sec): 4.000000E-1
Scans to average: 1
Nonlinearity correction enabled: false
Boxcar width: 0
Storing dark spectrum: false
XAxis mode: Wavelengths
Number of Pixels in Spectrum: 1024
>>>>>Begin Spectral Data<<<<<
801.071	27272
801.214	27325
801.356	27173
801.499	27032
801.641	26914
801.783	26937
801.926	27001
802.068	26834
802.211	26899
802.353	26811
802.496	26682
802.638	26602
802.78	26568
802.923	26568
803.065	26469
803.208	26530
803.35	26640
803.492	26743
803.635	26815
803.777	26724
803.919	26842
804.061	26933
804.204	26861
804.346	26686
804.488	26579
804.63	26788
804.773	26632
804.915	26625
805.057	26792
805.199	26785
805.341	26883
805.483	26914
805.626	26872
805.768	26594
805.91	26914
806.052	26788
806.194	26830
806.336	27047
806.478	26994
806.62	26804
806.762	26990
806.904	27077
807.046	27237
807.188	27272
807.33	27378
807.472	27382
807.614	27184
807.756	27256
807.898	27211
808.04	27150
808.182	27142
808.324	27176
808.465	27351
808.607	27283
808.749	27530
808.891	27618
809.033	27614
809.174	27545
809.316	27325
809.458	27542
809.6	27420
809.741	27686
809.883	27755
810.025	27732
810.166	27789
810.308	27724
810.45	27701
810.591	27701
810.733	27530
810.875	27408
811.016	27302
811.158	27412
811.299	27557
811.441	27534
811.582	27523
811.724	27606
811.865	27462
812.007	27481
812.148	27450
812.29	27416
812.431	27557
812.573	27842
812.714	27816
812.855	27911
812.997	28048
813.138	28242
813.279	28246
813.421	28013
813.562	27770
813.703	27778
813.845	27766
813.986	27477
814.127	27294
814.268	27058
814.41	27256
814.551	27058
814.692	27237
814.833	27013
814.974	27116
815.115	27077
815.256	26918
815.397	27001
815.539	27047
815.68	26948
815.821	26769
815.962	26914
816.103	26967
816.244	26670
816.385	26743
816.526	26606
816.666	26564
816.807	26309
816.948	26613
817.089	26499
817.23	26530
817.371	26393
817.512	26419
817.653	26423
817.793	26412
817.934	26317
818.075	26575
818.216	26351
818.356	26400
818.497	26294
818.638	26035
818.778	26043
818.919	26092
819.06	26199
819.2	26313
819.341	26396
819.481	26522
819.622	26518
819.762	26701
819.903	26514
820.043	26545
820.184	26606
820.324	26438
820.465	26655
820.605	26602
820.746	26541
820.886	26362
821.026	26522
821.167	26492
821.307	26446
821.447	26404
821.588	26324
821.728	26069
821.868	25978
822.008	25875
822.149	25868
822.289	25715
822.429	25639
822.569	25609
822.709	25647
822.849	25419
822.99	25453
823.13	25377
823.27	25282
823.41	25206
823.55	25225
823.69	25236
823.83	25194
823.97	25129
824.11	24958
824.25	24882
824.389	24802
824.529	25084
824.669	24996
824.809	25179
824.949	25069
825.089	25050
825.228	25046
825.368	24897
825.508	24886
825.648	24905
825.787	24909
825.927	24867
826.067	24905
826.206	24798
826.346	24886
826.485	24935
826.625	24795
826.765	24924
826.904	24863
827.044	24650
827.183	24734
827.323	24486
827.462	24620
827.601	24536
827.741	24490
827.88	24688
828.02	24460
828.159	24582
828.298	24555
828.437	24696
828.577	24525
828.716	24681
828.855	24479
828.994	24330
829.134	24304
829.273	24285
829.412	24323
829.551	24144
829.69	24220
829.829	24289
829.968	24422
830.107	24281
830.246	24251
830.385	24140
830.524	24186
830.663	24079
830.802	24015
830.941	23901
831.08	23866
831.219	23939
831.357	23908
831.496	24152
831.635	23889
831.774	23897
831.913	23710
832.051	23802
832.19	23699
832.329	23722
832.467	23463
832.606	23596
832.744	23585
832.883	23630
833.022	23585
833.16	23509
833.299	23570
833.437	23623
833.576	23539
833.714	23642
833.852	23630
833.991	23714
834.129	23718
834.267	23699
834.406	23668
834.544	23764
834.682	23608
834.821	23718
834.959	23767
835.097	23608
835.235	23722
835.373	23752
835.511	23596
835.65	23402
835.788	23448
835.926	23478
836.064	23368
836.202	23326
836.34	23364
836.478	23642
836.615	23459
836.753	23543
836.891	23535
837.029	23425
837.167	23402
837.305	23337
837.443	23356
837.58	23322
837.718	23448
837.856	23349
837.993	23337
838.131	23383
838.269	23159
838.406	23322
838.544	23098
838.681	22835
838.819	22995
838.956	22782
839.094	22675
839.231	22828
839.369	23083
839.506	23185
839.643	22942
839.781	22919
839.918	22634
840.055	22729
840.193	22850
840.33	22778
840.467	22717
840.604	22725
840.742	22991
840.879	22497
841.016	22538
841.153	22615
841.29	22744
841.427	22618
841.564	22812
841.701	22656
841.838	22653
841.975	22580
842.112	22694
842.249	22485
842.385	22421
842.522	22596
842.659	22538
842.796	22557
842.933	22561
843.069	22348
843.206	22352
843.343	22535
843.479	22535
843.616	22474
843.752	22143
843.889	22310
844.025	22299
844.162	22280
844.298	22169
844.435	22265
844.571	22230
844.708	22230
844.844	22402
844.98	22333
845.117	22371
845.253	22158
845.389	22021
845.525	22070
845.661	22067
845.798	21934
845.934	22025
846.07	21949
846.206	22036
846.342	22025
846.478	22006
846.614	21778
846.75	21709
846.886	21705
847.022	21644
847.158	21789
847.294	21720
847.429	21667
847.565	21591
847.701	21964
847.837	21393
847.972	21435
848.108	21519
848.244	21568
848.379	21424
848.515	21363
848.65	21355
848.786	21165
848.921	21287
849.057	21355
849.192	21439
849.328	21378
849.463	21325
849.598	21344
849.734	21275
849.869	21176
850.004	21058
850.14	21165
850.275	21127
850.41	21043
850.545	21005
850.68	21077
850.815	21131
850.95	21150
851.085	21241
851.22	21207
851.355	21161
851.49	21085
851.625	20986
851.76	20994
851.895	21055
852.03	20975
852.165	21108
852.299	21036
852.434	21138
852.569	21150
852.703	21036
852.838	21241
852.973	21199
853.107	21173
853.242	21009
853.376	20937
853.511	20849
853.645	20838
853.78	21100
853.914	20982
854.048	20785
854.183	20971
854.317	20880
854.451	21131
854.585	20872
854.72	20872
854.854	20925
854.988	20887
855.122	20777
855.256	20701
855.39	20902
855.524	21039
855.658	20906
855.792	20724
855.926	20944
856.06	20952
856.194	20906
856.327	20815
856.461	20842
856.595	20800
856.729	20769
856.862	20971
856.996	20864
857.13	20960
857.263	21024
857.397	20979
857.53	20823
857.664	20864
857.797	20963
857.931	21028
858.064	21058
858.197	20986
858.331	20952
858.464	20921
858.597	20792
858.731	20887
858.864	20826
858.997	20929
859.13	20975
859.263	20925
859.396	21001
859.529	20910
859.662	20830
859.795	20792
859.928	20857
860.061	21108
860.194	21024
860.327	20811
860.46	20880
860.592	20967
860.725	21062
860.858	20952
860.99	20910
861.123	20807
861.256	20880
861.388	20857
861.521	21431
861.653	20777
861.786	20625
861.918	20674
862.05	20788
862.183	20811
862.315	20887
862.447	20895
862.58	20800
862.712	20484
862.844	20613
862.976	20731
863.108	20667
863.24	21100
863.372	20568
863.504	20663
863.636	20625
863.768	20663
863.9	20629
864.032	20575
864.164	20560
864.296	20617
864.428	20773
864.559	20716
864.691	20659
864.823	20613
864.954	20457
865.086	20594
865.217	20663
865.349	20431
865.48	20454
865.612	20442
865.743	20712
865.875	20560
866.006	20423
866.137	20590
866.269	20552
866.4	20560
866.531	20355
866.662	20351
866.793	20514
866.924	20454
867.055	20404
867.186	20431
867.317	20412
867.448	20233
867.579	20381
867.71	20256
867.841	20328
867.972	20484
868.103	20412
868.233	20434
868.364	20450
868.495	20602
868.625	20575
868.756	20834
868.886	20469
869.017	20632
869.147	20800
869.278	20701
869.408	20708
869.539	20773
869.669	20735
869.799	20788
869.929	20765
870.06	20693
870.19	20883
870.32	21001
870.45	21112
870.58	21119
870.71	21169
870.84	21119
870.97	21180
871.1	21020
871.23	21245
871.36	21348
871.489	21176
871.619	21294
871.749	21252
871.879	21218
872.008	21336
872.138	21306
872.267	21272
872.397	21074
872.526	21108
872.656	21096
872.785	21226
872.915	21287
873.044	21359
873.173	21325
873.303	21378
873.432	21313
873.561	21447
873.69	21393
873.819	21329
873.948	21310
874.077	21329
874.206	21268
874.335	21351
874.464	21302
874.593	21481
874.722	21393
874.851	21610
874.979	21496
875.108	21595
875.237	21458
875.365	21420
875.494	21618
875.623	21564
875.751	21633
875.88	21477
876.008	21709
876.136	21705
876.265	21964
876.393	22051
876.521	21857
876.65	22040
876.778	21930
876.906	21926
877.034	21774
877.162	21884
877.29	21732
877.418	21953
877.546	21934
877.674	21759
877.802	21972
877.93	21945
878.058	21964
878.185	21717
878.313	21747
878.441	21972
878.568	21728
878.696	21781
878.824	21785
878.951	22059
879.079	21987
879.206	22162
879.333	22135
879.461	21918
879.588	21937
879.715	22105
879.842	22226
879.97	22112
880.097	21739
880.224	21682
880.351	21762
880.478	21739
880.605	21648
880.732	21884
880.859	21998
880.986	21732
881.112	21762
881.239	21599
881.366	21530
881.493	21374
881.619	21355
881.746	21363
881.872	21431
881.999	21382
882.125	21310
882.252	21329
882.378	21325
882.505	21420
882.631	21252
882.757	21009
882.883	21043
883.01	21108
883.136	21024
883.262	20921
883.388	20872
883.514	21039
883.64	21017
883.766	20937
883.892	20765
884.018	20891
884.143	20971
884.269	21077
884.395	20815
884.52	20667
884.646	20743
884.772	20609
884.897	20716
885.023	20697
885.148	20765
885.274	20887
885.399	20712
885.524	20613
885.65	20800
885.775	20712
885.9	20686
886.025	20838
886.15	20724
886.275	20705
886.4	20568
886.525	20686
886.65	20727
886.775	20568
886.9	20781
887.025	20857
887.149	20617
887.274	20575
887.399	20454
887.523	20408
887.648	20393
887.773	20480
887.897	20617
888.021	20526
888.146	20301
888.27	20568
888.395	20651
888.519	20442
888.643	20511
888.767	20457
888.891	20381
889.015	20237
889.139	20252
889.263	20271
889.387	20488
889.511	20495
889.635	20309
889.759	20225
889.883	20320
890.006	20214
890.13	20301
890.254	20267
890.377	20161
890.501	19978
890.624	19970
890.748	20161
890.871	19955
890.995	19795
891.118	19753
891.241	19803
891.364	19814
891.488	19898
891.611	19784
891.734	19894
891.857	19864
891.98	19955
892.103	19837
892.226	19841
892.349	19871
892.471	19734
892.594	19731
892.717	19742
892.839	19826
892.962	19818
893.085	19795
893.207	19715
893.33	19578
893.452	19597
893.575	19723
893.697	19658
893.819	19875
893.941	19909
894.064	19868
894.186	19677
894.308	19727
894.43	19864
894.552	19833
894.674	19738
894.796	19700
894.918	19708
895.04	19666
895.161	19753
895.283	19742
895.405	19685
895.526	19776
895.648	19689
895.769	19757
895.891	19757
896.012	19795
896.134	19723
896.255	19856
896.376	19715
896.498	19727
896.619	19712
896.74	19746
896.861	19814
896.982	20103
897.103	20263
897.224	19928
897.345	19887
897.466	19917
897.587	20020
897.708	20084
897.828	20073
897.949	19959
898.07	19738
898.19	19917
898.311	20069
898.431	19875
898.552	19940
898.672	20024
898.792	20062
898.913	19871
899.033	19864
899.153	19894
899.273	19567
899.393	19677
899.513	19795
899.633	19837
899.753	19719
899.873	19685
899.993	19784
900.113	19753
900.232	19655
900.352	19632
900.472	19609
900.591	19506
900.711	19540
900.83	19419
900.95	19540
901.069	19632
901.189	19460
901.308	19202
901.427	19122
901.546	19190
901.665	19145
901.784	19042
901.904	18970
902.023	18924
902.141	18703
902.26	18703
902.379	18681
902.498	18635
902.617	18608
902.735	18551
902.854	18490
902.973	18597
903.091	18334
903.21	18372
903.328	18334
903.446	18224
903.565	18266
903.683	18136
903.801	18068
903.919	18064
904.038	17999
904.156	17912
904.274	18041
904.392	17885
904.51	17726
904.627	17836
904.745	17882
904.863	17908
904.981	17665
905.098	17623
905.216	17604
905.334	17642
905.451	17623
905.569	17512
905.686	17600
905.803	17482
905.921	17318
906.038	17387
906.155	17356
906.272	17155
906.389	17341
906.506	17117
906.623	17071
906.74	17079
906.857	16949
906.974	16991
907.091	17185
907.208	17166
907.324	17220
907.441	16896
907.557	16896
907.674	16786
907.79	16672
907.907	16881
908.023	16843
908.139	16748
908.256	16759
908.372	16740
908.488	16683
908.604	16523
908.72	16569
908.836	16554
908.952	16466
909.068	16462
909.184	16664
909.3	16542
909.415	16615
909.531	16569
909.647	16337
909.762	16261
909.878	16215
909.993	16166
910.108	16226
910.224	16082
910.339	16192
910.454	16059
910.57	16131
910.685	15922
910.8	16310
910.915	16223
911.03	16086
911.145	15838
911.259	15835
911.374	15781
911.489	15778
911.604	15755
911.718	15648
911.833	15584
911.947	15454
912.062	15363
912.176	15526
912.291	15599
912.405	15500
912.519	15743
912.633	15682
912.748	15701
912.862	15515
912.976	15481
913.09	15344
913.204	15348
913.318	15397
913.431	15466
913.545	15450
913.659	15553
913.772	15340
913.886	15180
914	15203
914.113	15283
914.226	15359
914.34	15226
914.453	15089
914.566	15298
914.68	15108
914.793	14971
914.906	14933
915.019	14819
915.132	14804
915.245	14769
915.358	14864
915.47	14845
915.583	14796
915.696	14891
915.809	14952
915.921	14864
916.034	14746
916.146	14758
916.259	14663
916.371	14819
916.483	14750
916.595	14651
916.708	14750
916.82	14495
916.932	14598
917.044	14659
917.156	14575
917.268	14484
917.38	14442
917.491	14400
917.603	14480
917.715	14648
917.826	14530
917.938	14423
918.049	14313
918.161	14355
918.272	14530
918.384	14469
918.495	14427
918.606	14256
918.717	14218
918.828	14305
918.939	14256
919.05	14119
919.161	14237
919.272	13978
919.383	14084
919.494	14317
919.604	14476
919.715	14317
919.826	14062
919.936	14199
920.047	14275
920.157	14202
920.267	14351
920.378	14199
920.488	14119
920.598	14408
920.708	14457
920.818	14408
920.928	14324
921.038	14488
921.148	14434
921.258	14176
921.368	14016
921.477	13932
921.587	13997
921.697	13909
921.806	13875
921.916	13849
922.025	13613
922.134	13597
922.244	13537
922.353	13662
922.462	13491
922.571	13415
922.68	13293
922.789	13225
922.898	13251
923.007	13190
923.116	13228
923.224	13206
923.333	13251
923.442	13118
923.55	13107
923.659	13069
923.767	13095
923.876	13110
923.984	13149
924.092	12935
924.201	13008
924.309	13065
924.417	13099
924.525	12878
924.633	12951
924.741	13841
924.849	12779
924.956	12943
925.064	12764
925.172	12650
925.279	12639
925.387	12711
925.494	12639
925.602	12787
925.709	12768
925.816	12563
925.924	12547
926.031	12681
926.138	12662
926.245	12654
926.352	12544
926.459	12677
926.566	12692
926.673	12578
926.779	12410
926.886	12498
926.993	12258
927.099	12319
927.206	12323
927.312	12247
927.419	12300
927.525	12273
927.631	12315
927.737	12072
927.843	12087
927.95	12030
928.056	12079
928.162	12110
928.267	12289
928.373	12601
928.479	12136
928.585	12030
928.69	12022
928.796	12083
928.901	12041
929.007	11767
929.112	11893
929.218	11965
929.323	11809
929.428	11745
929.533	11893
929.638	11779
929.743	11767
929.848	11809
929.953	11809
930.058	11608
930.163	11444
930.267	11592
930.372	11543
930.477	11429
930.581	11756
930.685	11585
930.79	11444
930.894	11410
930.998	11364
931.103	11543
931.207	11201
931.311	11083
931.415	11048
931.519	10752
931.623	10778
