Data from test_V78500241_3020.txt Node
Date: Fri Mar 25 15:30:53 CST 2022
User: usil
Spectrometer: V785-0024
Trigger mode: 0
Integration Time (sec): 4.000000E-1
Scans to average: 1
Nonlinearity correction enabled: false
Boxcar width: 0
Storing dark spectrum: false
XAxis mode: Wavelengths
Number of Pixels in Spectrum: 1024
>>>>>Begin Spectral Data<<<<<
801.071	27249
801.214	27123
801.356	27036
801.499	26967
801.641	26781
801.783	26746
801.926	26773
802.068	26686
802.211	26686
802.353	26560
802.496	26556
802.638	26419
802.78	26298
802.923	26355
803.065	26092
803.208	26328
803.35	26370
803.492	26480
803.635	26590
803.777	26286
803.919	26434
804.061	26975
804.204	26617
804.346	26423
804.488	26450
804.63	26552
804.773	26415
804.915	26530
805.057	26518
805.199	26488
805.341	26571
805.483	26815
805.626	26636
805.768	26511
805.91	26602
806.052	26705
806.194	26667
806.336	26781
806.478	26697
806.62	26602
806.762	26746
806.904	26918
807.046	27119
807.188	27173
807.33	27055
807.472	27207
807.614	27020
807.756	27055
807.898	26762
808.04	26857
808.182	26830
808.324	26823
808.465	26906
808.607	27245
808.749	27077
808.891	27329
809.033	27435
809.174	27222
809.316	27268
809.458	27313
809.6	27275
809.741	27321
809.883	27386
810.025	27595
810.166	27625
810.308	27462
810.45	27466
810.591	27427
810.733	27397
810.875	27245
811.016	27226
811.158	27116
811.299	27268
811.441	27306
811.582	27462
811.724	27195
811.865	27283
812.007	27043
812.148	27241
812.29	27184
812.431	27389
812.573	27500
812.714	27652
812.855	27679
812.997	27747
813.138	27945
813.279	27789
813.421	27842
813.562	27728
813.703	27427
813.845	27393
813.986	27112
814.127	27104
814.268	26880
814.41	26750
814.551	26880
814.692	26880
814.833	26982
814.974	26872
815.115	27009
815.256	26777
815.397	26659
815.539	26845
815.68	26701
815.821	26579
815.962	26754
816.103	26632
816.244	26511
816.385	26434
816.526	26298
816.666	26256
816.807	26096
816.948	26298
817.089	26336
817.23	26157
817.371	26138
817.512	26035
817.653	26111
817.793	26138
817.934	26263
818.075	26130
818.216	26195
818.356	26115
818.497	26142
818.638	25940
818.778	25944
818.919	25894
819.06	26008
819.2	26084
819.341	26100
819.481	26202
819.622	26240
819.762	26423
819.903	26370
820.043	26229
820.184	26377
820.324	26358
820.465	26271
820.605	26263
820.746	26233
820.886	26225
821.026	26218
821.167	26176
821.307	26259
821.447	26134
821.588	26046
821.728	25883
821.868	25822
822.008	25662
822.149	25586
822.289	25552
822.429	25297
822.569	25384
822.709	25373
822.849	25156
822.99	25084
823.13	25031
823.27	24992
823.41	25012
823.55	24734
823.69	25012
823.83	24886
823.97	24848
824.11	24635
824.25	24726
824.389	24677
824.529	24791
824.669	24707
824.809	24760
824.949	24768
825.089	24844
825.228	24734
825.368	24559
825.508	24601
825.648	24563
825.787	24646
825.927	24540
826.067	24665
826.206	24620
826.346	24616
826.485	24563
826.625	24684
826.765	24844
826.904	24669
827.044	24327
827.183	24350
827.323	24300
827.462	24395
827.601	24304
827.741	24216
827.88	24388
828.02	24224
828.159	24232
828.298	24258
828.437	24266
828.577	24167
828.716	24399
828.855	24178
828.994	24038
829.134	24034
829.273	24182
829.412	23908
829.551	23958
829.69	23977
829.829	24095
829.968	24106
830.107	23965
830.246	23916
830.385	23931
830.524	23927
830.663	23794
830.802	23649
830.941	23714
831.08	23687
831.219	23680
831.357	23722
831.496	23741
831.635	23535
831.774	23562
831.913	23490
832.051	23330
832.19	23429
832.329	23360
832.467	23261
832.606	23341
832.744	23220
832.883	23284
833.022	23189
833.16	23239
833.299	23349
833.437	23360
833.576	23391
833.714	23239
833.852	23478
833.991	23379
834.129	23516
834.267	23471
834.406	23303
834.544	23493
834.682	23315
834.821	23242
834.959	23539
835.097	23318
835.235	23356
835.373	23250
835.511	23204
835.65	23193
835.788	23227
835.926	23025
836.064	22968
836.202	23041
836.34	23162
836.478	23360
836.615	23090
836.753	23162
836.891	23299
837.029	23170
837.167	23132
837.305	23166
837.443	23060
837.58	22919
837.718	23109
837.856	23098
837.993	22953
838.131	22896
838.269	22793
838.406	22946
838.544	22786
838.681	22717
838.819	22592
838.956	22474
839.094	22512
839.231	22679
839.369	22626
839.506	22965
839.643	22820
839.781	22538
839.918	22428
840.055	22584
840.193	22493
840.33	22417
840.467	22470
840.604	22485
840.742	22630
840.879	22417
841.016	22382
841.153	22382
841.29	22546
841.427	22329
841.564	22481
841.701	22405
841.838	22325
841.975	22390
842.112	22386
842.249	22284
842.385	22177
842.522	22523
842.659	22173
842.796	22139
842.933	22162
843.069	21994
843.206	22036
843.343	22265
843.479	22219
843.616	22253
843.752	21892
843.889	22010
844.025	22124
844.162	21960
844.298	22017
844.435	21918
844.571	21930
844.708	22128
844.844	22185
844.98	22150
845.117	22025
845.253	21800
845.389	21751
845.525	21751
845.661	21743
845.798	21701
845.934	21835
846.07	21679
846.206	21724
846.342	21800
846.478	21751
846.614	21477
846.75	21397
846.886	21336
847.022	21568
847.158	21466
847.294	21526
847.429	21412
847.565	21340
847.701	21686
847.837	21112
847.972	21131
848.108	21272
848.244	21218
848.379	21093
848.515	21127
848.65	21055
848.786	21001
848.921	21184
849.057	21123
849.192	21062
849.328	21005
849.463	21051
849.598	20956
849.734	20971
849.869	20826
850.004	20857
850.14	20895
850.275	20750
850.41	20705
850.545	20750
850.68	20785
850.815	20785
850.95	20872
851.085	20998
851.22	20864
851.355	20819
851.49	20758
851.625	20815
851.76	20762
851.895	20724
852.03	20571
852.165	20811
852.299	20864
852.434	20864
852.569	20838
852.703	20727
852.838	20921
852.973	20834
853.107	20853
853.242	20724
853.376	20667
853.511	20419
853.645	20625
853.78	20663
853.914	20625
854.048	20632
854.183	20602
854.317	20670
854.451	20819
854.585	20659
854.72	20587
854.854	20648
854.988	20625
855.122	20754
855.256	20457
855.39	20697
855.524	20735
855.658	20678
855.792	20644
855.926	20606
856.06	20705
856.194	20769
856.327	20530
856.461	20442
856.595	20526
856.729	20579
856.862	20739
856.996	20564
857.13	20788
857.263	20731
857.397	20674
857.53	20518
857.664	20663
857.797	20598
857.931	20697
858.064	20697
858.197	20804
858.331	20537
858.464	20590
858.597	20564
858.731	20621
858.864	20514
858.997	20503
859.13	20568
859.263	20579
859.396	20693
859.529	20663
859.662	20598
859.795	20568
859.928	20556
860.061	20705
860.194	20762
860.327	20667
860.46	20636
860.592	20655
860.725	20830
860.858	20762
860.99	20495
861.123	20579
861.256	20579
861.388	20613
861.521	21222
861.653	20484
861.786	20408
861.918	20511
862.05	20579
862.183	20530
862.315	20571
862.447	20716
862.58	20469
862.712	20339
862.844	20301
862.976	20374
863.108	20457
863.24	20838
863.372	20355
863.504	20305
863.636	20328
863.768	20438
863.9	20408
864.032	20305
864.164	20294
864.296	20393
864.428	20419
864.559	20328
864.691	20355
864.823	20442
864.954	20252
865.086	20294
865.217	20355
865.349	20195
865.48	20183
865.612	20164
865.743	20370
865.875	20389
866.006	20199
866.137	20161
866.269	20153
866.4	20199
866.531	20191
866.662	20161
866.793	20240
866.924	20199
867.055	20195
867.186	20237
867.317	20054
867.448	20035
867.579	20130
867.71	20062
867.841	20153
867.972	20271
868.103	20187
868.233	20111
868.364	20191
868.495	20221
868.625	20275
868.756	20617
868.886	20309
869.017	20404
869.147	20533
869.278	20461
869.408	20537
869.539	20503
869.669	20518
869.799	20438
869.929	20587
870.06	20503
870.19	20670
870.32	20739
870.45	20762
870.58	20754
870.71	20952
870.84	20872
870.97	20708
871.1	20781
871.23	20899
871.36	21028
871.489	20921
871.619	20982
871.749	21074
871.879	21028
872.008	21173
872.138	21066
872.267	21036
872.397	20986
872.526	20788
872.656	20739
872.785	20952
872.915	21055
873.044	21108
873.173	21013
873.303	21024
873.432	21116
873.561	21173
873.69	21020
873.819	21081
873.948	21195
874.077	21074
874.206	21013
874.335	21028
874.464	21100
874.593	21294
874.722	21306
874.851	21268
874.979	21218
875.108	21275
875.237	21233
875.365	21355
875.494	21370
875.623	21237
875.751	21218
875.88	21317
876.008	21545
876.136	21443
876.265	21785
876.393	21827
876.521	21667
876.65	21751
876.778	21679
876.906	21663
877.034	21625
877.162	21545
877.29	21648
877.418	21675
877.546	21667
877.674	21656
877.802	21759
877.93	21652
878.058	21526
878.185	21530
878.313	21542
878.441	21637
878.568	21336
878.696	21473
878.824	21629
878.951	21736
879.079	21800
879.206	22032
879.333	21804
879.461	21755
879.588	21701
879.715	21812
879.842	21800
879.97	21701
880.097	21439
880.224	21389
880.351	21553
880.478	21557
880.605	21462
880.732	21515
880.859	21732
880.986	21325
881.112	21507
881.239	21355
881.366	21264
881.493	21096
881.619	21005
881.746	21055
881.872	21233
881.999	21005
882.125	20986
882.252	21116
882.378	21058
882.505	21085
882.631	20960
882.757	20765
882.883	20849
883.01	20716
883.136	20720
883.262	20667
883.388	20670
883.514	20746
883.64	20811
883.766	20682
883.892	20503
884.018	20583
884.143	20731
884.269	20800
884.395	20522
884.52	20446
884.646	20492
884.772	20351
884.897	20332
885.023	20404
885.148	20442
885.274	20644
885.399	20545
885.524	20431
885.65	20438
885.775	20324
885.9	20415
886.025	20480
886.15	20518
886.275	20305
886.4	20221
886.525	20362
886.65	20374
886.775	20248
886.9	20533
887.025	20648
887.149	20408
887.274	20142
887.399	20237
887.523	20142
887.648	20153
887.773	20088
887.897	20267
888.021	20282
888.146	20081
888.27	20267
888.395	20153
888.519	20164
888.643	20138
888.767	20294
888.891	20084
889.015	19955
889.139	20020
889.263	19997
889.387	20084
889.511	20187
889.635	20035
889.759	19947
889.883	20050
890.006	20065
890.13	20054
890.254	20001
890.377	19921
890.501	19727
890.624	19666
890.748	19769
890.871	19655
890.995	19639
891.118	19453
891.241	19521
891.364	19563
891.488	19651
891.611	19559
891.734	19609
891.857	19639
891.98	19563
892.103	19632
892.226	19613
892.349	19453
892.471	19301
892.594	19403
892.717	19548
892.839	19312
892.962	19510
893.085	19586
893.207	19464
893.33	19430
893.452	19441
893.575	19438
893.697	19563
893.819	19548
893.941	19738
894.064	19575
894.186	19350
894.308	19346
894.43	19613
894.552	19548
894.674	19738
894.796	19343
894.918	19495
895.04	19449
895.161	19407
895.283	19601
895.405	19453
895.526	19468
895.648	19540
895.769	19609
895.891	19537
896.012	19639
896.134	19529
896.255	19594
896.376	19369
896.498	19559
896.619	19529
896.74	19578
896.861	19487
896.982	19845
897.103	19917
897.224	19719
897.345	19647
897.466	19693
897.587	19613
897.708	19803
897.828	19647
897.949	19567
898.07	19628
898.19	19666
898.311	19731
898.431	19651
898.552	19837
898.672	19674
898.792	19761
898.913	19658
899.033	19563
899.153	19559
899.273	19521
899.393	19567
899.513	19578
899.633	19472
899.753	19460
899.873	19445
899.993	19548
900.113	19324
900.232	19441
900.352	19441
900.472	19285
900.591	19225
900.711	19171
900.83	19266
900.95	19373
901.069	19335
901.189	19187
901.308	18981
901.427	18764
901.546	18958
901.665	18909
901.784	18844
901.904	18776
902.023	18715
902.141	18414
902.26	18467
902.379	18498
902.498	18414
902.617	18353
902.735	18528
902.854	18323
902.973	18342
903.091	18110
903.21	18140
903.328	18121
903.446	17980
903.565	17920
903.683	17794
903.801	17752
903.919	17889
904.038	17809
904.156	17691
904.274	17684
904.392	17562
904.51	17687
904.627	17623
904.745	17676
904.863	17745
904.981	17486
905.098	17284
905.216	17296
905.334	17448
905.451	17360
905.569	17330
905.686	17364
905.803	17220
905.921	17151
906.038	17204
906.155	17155
906.272	16946
906.389	16984
906.506	16946
906.623	16843
906.74	16843
906.857	16679
906.974	16725
907.091	16927
907.208	16938
907.324	16896
907.441	16733
907.557	16592
907.674	16580
907.79	16535
907.907	16497
908.023	16592
908.139	16565
908.256	16451
908.372	16527
908.488	16455
908.604	16284
908.72	16265
908.836	16443
908.952	16306
909.068	16382
909.184	16394
909.3	16295
909.415	16310
909.531	16246
909.647	16063
909.762	15983
909.878	16006
909.993	16131
910.108	15987
910.224	15949
910.339	16063
910.454	15838
910.57	15743
910.685	15709
910.8	15941
910.915	16002
911.03	15785
911.145	15587
911.259	15534
911.374	15614
911.489	15523
911.604	15511
911.718	15287
911.833	15424
911.947	15325
912.062	15249
912.176	15462
912.291	15420
912.405	15363
912.519	15618
912.633	15504
912.748	15363
912.862	15351
912.976	15241
913.09	15020
913.204	15077
913.318	15161
913.431	15222
913.545	15150
913.659	15287
913.772	15138
913.886	15032
914	14990
914.113	15123
914.226	15150
914.34	15119
914.453	14906
914.566	14971
914.68	14880
914.793	14941
914.906	14735
915.019	14640
915.132	14518
915.245	14625
915.358	14552
915.47	14564
915.583	14606
915.696	14621
915.809	14716
915.921	14807
916.034	14549
916.146	14522
916.259	14530
916.371	14552
916.483	14541
916.595	14446
916.708	14473
916.82	14476
916.932	14473
917.044	14423
917.156	14442
917.268	14278
917.38	14332
917.491	14202
917.603	14313
917.715	14339
917.826	14415
917.938	14282
918.049	14161
918.161	14278
918.272	14339
918.384	14351
918.495	14149
918.606	14153
918.717	13982
918.828	14043
918.939	14096
919.05	14054
919.161	13947
919.272	13822
919.383	13913
919.494	14024
919.604	14370
919.715	14043
919.826	14016
919.936	14073
920.047	14069
920.157	14123
920.267	14252
920.378	14115
920.488	13959
920.598	14172
920.708	14240
920.818	14126
920.928	14248
921.038	14438
921.148	14298
921.258	13932
921.368	13917
921.477	13875
921.587	13814
921.697	13750
921.806	13803
921.916	13731
922.025	13563
922.134	13514
922.244	13422
922.353	13434
922.462	13343
922.571	13320
922.68	13091
922.789	13122
922.898	13122
923.007	13088
923.116	13236
923.224	13069
923.333	13202
923.442	12970
923.55	12996
923.659	12981
923.767	13050
923.876	12897
923.984	13057
924.092	12837
924.201	12897
924.309	12886
924.417	12894
924.525	12829
924.633	12741
924.741	13502
924.849	12570
924.956	12688
925.064	12525
925.172	12544
925.279	12589
925.387	12555
925.494	12555
925.602	12703
925.709	12502
925.816	12559
925.924	12532
926.031	12570
926.138	12547
926.245	12616
926.352	12483
926.459	12578
926.566	12532
926.673	12429
926.779	12258
926.886	12285
926.993	12205
927.099	12163
927.206	12098
927.312	12072
927.419	12148
927.525	12125
927.631	12167
927.737	12019
927.843	12007
927.95	11923
928.056	12068
928.162	11984
928.267	12015
928.373	12601
928.479	12095
928.585	11802
928.69	11950
928.796	11965
928.901	11836
929.007	11767
929.112	11870
929.218	11771
929.323	11718
929.428	11642
929.533	11802
929.638	11604
929.743	11619
929.848	11718
929.953	11623
930.058	11566
930.163	11402
930.267	11402
930.372	11562
930.477	11356
930.581	11585
930.685	11452
930.79	11296
930.894	11330
930.998	11223
931.103	11474
931.207	11083
931.311	10957
931.415	10904
931.519	10691
931.623	10767
