Data from test_V78500241_3309.txt Node
Date: Fri Mar 25 15:32:54 CST 2022
User: usil
Spectrometer: V785-0024
Trigger mode: 0
Integration Time (sec): 4.000000E-1
Scans to average: 1
Nonlinearity correction enabled: false
Boxcar width: 0
Storing dark spectrum: false
XAxis mode: Wavelengths
Number of Pixels in Spectrum: 1024
>>>>>Begin Spectral Data<<<<<
801.071	27317
801.214	27211
801.356	26963
801.499	26891
801.641	26830
801.783	26758
801.926	26769
802.068	26883
802.211	26674
802.353	26708
802.496	26476
802.638	26453
802.78	26374
802.923	26267
803.065	26263
803.208	26237
803.35	26370
803.492	26442
803.635	26670
803.777	26351
803.919	26571
804.061	26982
804.204	26636
804.346	26412
804.488	26549
804.63	26499
804.773	26400
804.915	26720
805.057	26727
805.199	26537
805.341	26697
805.483	26625
805.626	26731
805.768	26651
805.91	26712
806.052	26705
806.194	26697
806.336	26750
806.478	26655
806.62	26864
806.762	26743
806.904	26849
807.046	27195
807.188	27055
807.33	27211
807.472	27131
807.614	26864
807.756	27081
807.898	26998
808.04	27009
808.182	26925
808.324	26811
808.465	27074
808.607	27123
808.749	27192
808.891	27325
809.033	27492
809.174	27348
809.316	27283
809.458	27302
809.6	27199
809.741	27188
809.883	27283
810.025	27519
810.166	27530
810.308	27511
810.45	27469
810.591	27511
810.733	27275
810.875	27344
811.016	27207
811.158	27218
811.299	27397
811.441	27557
811.582	27458
811.724	27176
811.865	27268
812.007	27165
812.148	27199
812.29	27408
812.431	27329
812.573	27515
812.714	27690
812.855	27861
812.997	27736
813.138	27892
813.279	27827
813.421	27675
813.562	27587
813.703	27557
813.845	27336
813.986	27100
814.127	26925
814.268	26914
814.41	26940
814.551	26804
814.692	27066
814.833	26899
814.974	26815
815.115	26872
815.256	26910
815.397	26815
815.539	26727
815.68	26686
815.821	26560
815.962	26705
816.103	26724
816.244	26659
816.385	26492
816.526	26374
816.666	26282
816.807	26119
816.948	26183
817.089	26450
817.23	26199
817.371	26138
817.512	26240
817.653	26138
817.793	26134
817.934	26073
818.075	26168
818.216	26153
818.356	26092
818.497	26107
818.638	25951
818.778	25909
818.919	26016
819.06	26012
819.2	26142
819.341	26153
819.481	26119
819.622	26366
819.762	26537
819.903	26396
820.043	26305
820.184	26275
820.324	26248
820.465	26408
820.605	26301
820.746	26332
820.886	26088
821.026	26267
821.167	26294
821.307	26214
821.447	26138
821.588	26062
821.728	25970
821.868	25734
822.008	25742
822.149	25620
822.289	25590
822.429	25430
822.569	25400
822.709	25335
822.849	25240
822.99	25175
823.13	25129
823.27	25187
823.41	25008
823.55	24810
823.69	25038
823.83	24951
823.97	24947
824.11	24821
824.25	24688
824.389	24894
824.529	24871
824.669	24814
824.809	24973
824.949	24928
825.089	24989
825.228	24840
825.368	24570
825.508	24730
825.648	24578
825.787	24681
825.927	24890
826.067	24726
826.206	24677
826.346	24859
826.485	24798
826.625	24692
826.765	24882
826.904	24753
827.044	24483
827.183	24460
827.323	24323
827.462	24308
827.601	24490
827.741	24422
827.88	24353
828.02	24330
828.159	24433
828.298	24395
828.437	24330
828.577	24479
828.716	24494
828.855	24304
828.994	24216
829.134	24102
829.273	24178
829.412	24174
829.551	24155
829.69	23958
829.829	24167
829.968	24235
830.107	24133
830.246	24034
830.385	23992
830.524	24003
830.663	23954
830.802	23805
830.941	23828
831.08	23832
831.219	23847
831.357	23882
831.496	23786
831.635	23764
831.774	23562
831.913	23543
832.051	23501
832.19	23493
832.329	23539
832.467	23395
832.606	23372
832.744	23296
832.883	23364
833.022	23311
833.16	23379
833.299	23455
833.437	23554
833.576	23318
833.714	23452
833.852	23627
833.991	23581
834.129	23539
834.267	23493
834.406	23554
834.544	23516
834.682	23562
834.821	23535
834.959	23714
835.097	23455
835.235	23516
835.373	23493
835.511	23440
835.65	23307
835.788	23406
835.926	23189
836.064	23128
836.202	23102
836.34	23349
836.478	23379
836.615	23151
836.753	23223
836.891	23486
837.029	23440
837.167	23315
837.305	23258
837.443	23208
837.58	23170
837.718	23410
837.856	23231
837.993	23216
838.131	23216
838.269	23033
838.406	23056
838.544	22858
838.681	22885
838.819	22854
838.956	22687
839.094	22550
839.231	22748
839.369	22885
839.506	22968
839.643	22896
839.781	22706
839.918	22462
840.055	22733
840.193	22626
840.33	22519
840.467	22599
840.604	22717
840.742	22881
840.879	22421
841.016	22428
841.153	22436
841.29	22774
841.427	22645
841.564	22542
841.701	22618
841.838	22527
841.975	22504
842.112	22527
842.249	22356
842.385	22375
842.522	22630
842.659	22478
842.796	22386
842.933	22390
843.069	22322
843.206	22379
843.343	22363
843.479	22390
843.616	22322
843.752	22101
843.889	22329
844.025	22185
844.162	22017
844.298	22185
844.435	22143
844.571	22097
844.708	22147
844.844	22246
844.98	22188
845.117	22158
845.253	22120
845.389	22021
845.525	22101
845.661	21892
845.798	21888
845.934	22051
846.07	21846
846.206	21873
846.342	21941
846.478	21804
846.614	21625
846.75	21519
846.886	21591
847.022	21629
847.158	21610
847.294	21663
847.429	21591
847.565	21572
847.701	21876
847.837	21272
847.972	21294
848.108	21447
848.244	21458
848.379	21165
848.515	21256
848.65	21150
848.786	21207
848.921	21154
849.057	21207
849.192	21116
849.328	21298
849.463	21313
849.598	21165
849.734	21085
849.869	21077
850.004	20948
850.14	20986
850.275	21001
850.41	20941
850.545	20933
850.68	20998
850.815	20918
850.95	20933
851.085	21283
851.22	21028
851.355	20998
851.49	20906
851.625	20982
851.76	20975
851.895	20906
852.03	20815
852.165	20960
852.299	20921
852.434	21058
852.569	20986
852.703	20948
852.838	20956
852.973	21055
853.107	21127
853.242	20944
853.376	20887
853.511	20682
853.645	20743
853.78	20937
853.914	20796
854.048	20689
854.183	20735
854.317	20868
854.451	21081
854.585	20899
854.72	20800
854.854	20857
854.988	20769
855.122	20674
855.256	20644
855.39	20819
855.524	20819
855.658	20792
855.792	20785
855.926	20792
856.06	20716
856.194	20944
856.327	20735
856.461	20636
856.595	20785
856.729	20746
856.862	20830
856.996	20670
857.13	20750
857.263	20952
857.397	20906
857.53	20693
857.664	20788
857.797	20777
857.931	21013
858.064	20754
858.197	20853
858.331	20781
858.464	20769
858.597	20735
858.731	20686
858.864	20701
858.997	20731
859.13	20868
859.263	20982
859.396	20853
859.529	20815
859.662	20750
859.795	20716
859.928	20739
860.061	20975
860.194	20918
860.327	20823
860.46	20769
860.592	20899
860.725	20906
860.858	20872
860.99	20933
861.123	20629
861.256	20743
861.388	20777
861.521	21348
861.653	20720
861.786	20564
861.918	20613
862.05	20727
862.183	20682
862.315	20792
862.447	20861
862.58	20617
862.712	20670
862.844	20484
862.976	20602
863.108	20511
863.24	21085
863.372	20415
863.504	20400
863.636	20575
863.768	20492
863.9	20473
864.032	20473
864.164	20556
864.296	20492
864.428	20644
864.559	20693
864.691	20415
864.823	20556
864.954	20370
865.086	20450
865.217	20575
865.349	20305
865.48	20381
865.612	20427
865.743	20473
865.875	20393
866.006	20438
866.137	20320
866.269	20423
866.4	20351
866.531	20339
866.662	20339
866.793	20366
866.924	20393
867.055	20404
867.186	20339
867.317	20195
867.448	20225
867.579	20328
867.71	20161
867.841	20180
867.972	20214
868.103	20385
868.233	20351
868.364	20400
868.495	20492
868.625	20564
868.756	20640
868.886	20526
869.017	20594
869.147	20739
869.278	20644
869.408	20602
869.539	20533
869.669	20697
869.799	20667
869.929	20724
870.06	20636
870.19	20853
870.32	20811
870.45	21009
870.58	21039
870.71	21089
870.84	21104
870.97	21058
871.1	20948
871.23	21150
871.36	21226
871.489	21100
871.619	21214
871.749	21104
871.879	21218
872.008	21226
872.138	21252
872.267	21173
872.397	21222
872.526	20990
872.656	21036
872.785	20925
872.915	21123
873.044	21241
873.173	21093
873.303	21264
873.432	21264
873.561	21294
873.69	21332
873.819	21184
873.948	21264
874.077	21104
874.206	21119
874.335	21233
874.464	21405
874.593	21454
874.722	21435
874.851	21473
874.979	21481
875.108	21530
875.237	21481
875.365	21279
875.494	21382
875.623	21572
875.751	21443
875.88	21606
876.008	21500
876.136	21580
876.265	21854
876.393	21968
876.521	21979
876.65	21915
876.778	21892
876.906	21819
877.034	21831
877.162	21808
877.29	21743
877.418	21724
877.546	21747
877.674	21808
877.802	21816
877.93	21918
878.058	21751
878.185	21698
878.313	21660
878.441	21804
878.568	21701
878.696	21762
878.824	21823
878.951	21922
879.079	21960
879.206	22074
879.333	21998
879.461	21930
879.588	21854
879.715	21823
879.842	22044
879.97	21869
880.097	21747
880.224	21576
880.351	21606
880.478	21614
880.605	21633
880.732	21530
880.859	21781
880.986	21568
881.112	21667
881.239	21583
881.366	21412
881.493	21154
881.619	21325
881.746	21233
881.872	21146
881.999	21249
882.125	21203
882.252	21306
882.378	21214
882.505	21249
882.631	21138
882.757	20929
882.883	20967
883.01	20902
883.136	20929
883.262	20716
883.388	20667
883.514	20842
883.64	20952
883.766	20853
883.892	20754
884.018	20735
884.143	20853
884.269	20902
884.395	20625
884.52	20587
884.646	20644
884.772	20457
884.897	20609
885.023	20636
885.148	20746
885.274	20720
885.399	20651
885.524	20693
885.65	20549
885.775	20659
885.9	20625
886.025	20552
886.15	20571
886.275	20495
886.4	20412
886.525	20507
886.65	20499
886.775	20511
886.9	20667
887.025	20758
887.149	20552
887.274	20355
887.399	20309
887.523	20389
887.648	20358
887.773	20221
887.897	20320
888.021	20404
888.146	20195
888.27	20473
888.395	20366
888.519	20267
888.643	20305
888.767	20473
888.891	20172
889.015	20214
889.139	20202
889.263	20103
889.387	20229
889.511	20336
889.635	20221
889.759	20107
889.883	20168
890.006	20214
890.13	20183
890.254	20016
890.377	20107
890.501	19925
890.624	19928
890.748	19986
890.871	19852
890.995	19772
891.118	19696
891.241	19784
891.364	19666
891.488	19811
891.611	19635
891.734	19757
891.857	19696
891.98	19795
892.103	19693
892.226	19795
892.349	19788
892.471	19537
892.594	19563
892.717	19624
892.839	19613
892.962	19514
893.085	19662
893.207	19635
893.33	19460
893.452	19525
893.575	19655
893.697	19605
893.819	19772
893.941	19818
894.064	19632
894.186	19586
894.308	19533
894.43	19765
894.552	19738
894.674	19807
894.796	19544
894.918	19643
895.04	19620
895.161	19609
895.283	19689
895.405	19578
895.526	19575
895.648	19613
895.769	19635
895.891	19586
896.012	19776
896.134	19700
896.255	19632
896.376	19567
896.498	19601
896.619	19742
896.74	19559
896.861	19685
896.982	19902
897.103	19887
897.224	19932
897.345	19913
897.466	19826
897.587	19852
897.708	20027
897.828	19932
897.949	19830
898.07	19788
898.19	19906
898.311	19890
898.431	19845
898.552	19959
898.672	19875
898.792	19982
898.913	19963
899.033	19734
899.153	19666
899.273	19510
899.393	19662
899.513	19776
899.633	19601
899.753	19510
899.873	19537
899.993	19609
900.113	19403
900.232	19571
900.352	19480
900.472	19441
900.591	19407
900.711	19411
900.83	19415
900.95	19506
901.069	19449
901.189	19297
901.308	19023
901.427	18802
901.546	18920
901.665	19023
901.784	19034
901.904	18867
902.023	18726
902.141	18631
902.26	18486
902.379	18627
902.498	18578
902.617	18479
902.735	18536
902.854	18376
902.973	18475
903.091	18182
903.21	18034
903.328	18201
903.446	18053
903.565	17942
903.683	17950
903.801	17904
903.919	17954
904.038	17904
904.156	17767
904.274	17828
904.392	17805
904.51	17726
904.627	17783
904.745	17874
904.863	17866
904.981	17604
905.098	17429
905.216	17334
905.334	17532
905.451	17425
905.569	17436
905.686	17356
905.803	17440
905.921	17178
906.038	17391
906.155	17250
906.272	17220
906.389	17223
906.506	16980
906.623	17048
906.74	16824
906.857	16908
906.974	16847
907.091	17094
907.208	17151
907.324	16968
907.441	16957
907.557	16900
907.674	16736
907.79	16596
907.907	16558
908.023	16713
908.139	16801
908.256	16656
908.372	16637
908.488	16538
908.604	16462
908.72	16299
908.836	16455
908.952	16504
909.068	16318
909.184	16421
909.3	16447
909.415	16421
909.531	16402
909.647	16272
909.762	16169
909.878	16086
909.993	16128
910.108	16131
910.224	16101
910.339	16021
910.454	15945
910.57	15915
910.685	15903
910.8	16166
910.915	16097
911.03	15994
911.145	15838
911.259	15739
911.374	15690
911.489	15652
911.604	15648
911.718	15511
911.833	15538
911.947	15458
912.062	15325
912.176	15507
912.291	15481
912.405	15504
912.519	15736
912.633	15781
912.748	15473
912.862	15462
912.976	15348
913.09	15279
913.204	15283
913.318	15294
913.431	15420
913.545	15302
913.659	15393
913.772	15222
913.886	15279
914	15157
914.113	15336
914.226	15222
914.34	15142
914.453	15116
914.566	15176
914.68	15017
914.793	15013
914.906	14746
915.019	14625
915.132	14659
915.245	14724
915.358	14720
915.47	14705
915.583	14640
915.696	14716
915.809	14804
915.921	14800
916.034	14621
916.146	14594
916.259	14670
916.371	14712
916.483	14655
916.595	14629
916.708	14469
916.82	14590
916.932	14450
917.044	14541
917.156	14461
917.268	14434
917.38	14450
917.491	14419
917.603	14415
917.715	14419
917.826	14541
917.938	14267
918.049	14263
918.161	14355
918.272	14530
918.384	14476
918.495	14385
918.606	14161
918.717	14054
918.828	14244
918.939	14149
919.05	14096
919.161	14130
919.272	13967
919.383	13940
919.494	14233
919.604	14309
919.715	14157
919.826	14001
919.936	14092
920.047	14157
920.157	14073
920.267	14290
920.378	14111
920.488	14092
920.598	14298
920.708	14419
920.818	14202
920.928	14248
921.038	14317
921.148	14465
921.258	14077
921.368	14024
921.477	13849
921.587	13871
921.697	13784
921.806	13826
921.916	13685
922.025	13689
922.134	13613
922.244	13495
922.353	13567
922.462	13518
922.571	13373
922.68	13225
922.789	13171
922.898	13122
923.007	13145
923.116	13027
923.224	13149
923.333	13091
923.442	13042
923.55	13015
923.659	12935
923.767	13042
923.876	12875
923.984	13069
924.092	12935
924.201	12932
924.309	13008
924.417	12890
924.525	12890
924.633	12856
924.741	13803
924.849	12589
924.956	12738
925.064	12673
925.172	12559
925.279	12620
925.387	12722
925.494	12658
925.602	12764
925.709	12631
925.816	12525
925.924	12547
926.031	12623
926.138	12593
926.245	12650
926.352	12456
926.459	12604
926.566	12650
926.673	12471
926.779	12376
926.886	12311
926.993	12365
927.099	12182
927.206	12117
927.312	12197
927.419	12281
927.525	12144
927.631	12201
927.737	12072
927.843	12068
927.95	11958
928.056	12038
928.162	12003
928.267	12083
928.373	12528
928.479	12152
928.585	11851
928.69	11908
928.796	11961
928.901	11870
929.007	11783
929.112	11809
929.218	11764
929.323	11707
929.428	11802
929.533	11813
929.638	11737
929.743	11707
929.848	11767
929.953	11695
930.058	11646
930.163	11467
930.267	11471
930.372	11516
930.477	11372
930.581	11703
930.685	11532
930.79	11296
930.894	11440
930.998	11372
931.103	11497
931.207	11014
931.311	10995
931.415	10927
931.519	10706
931.623	10763
