Data from test_V78500241_2677.txt Node
Date: Fri Mar 25 15:28:30 CST 2022
User: usil
Spectrometer: V785-0024
Trigger mode: 0
Integration Time (sec): 4.000000E-1
Scans to average: 1
Nonlinearity correction enabled: false
Boxcar width: 0
Storing dark spectrum: false
XAxis mode: Wavelengths
Number of Pixels in Spectrum: 1024
>>>>>Begin Spectral Data<<<<<
801.071	27100
801.214	27024
801.356	26705
801.499	26746
801.641	26518
801.783	26526
801.926	26537
802.068	26507
802.211	26495
802.353	26381
802.496	26317
802.638	26111
802.78	26225
802.923	26005
803.065	26119
803.208	26039
803.35	26202
803.492	26317
803.635	26355
803.777	26271
803.919	26419
804.061	26609
804.204	26317
804.346	26221
804.488	26145
804.63	26244
804.773	26157
804.915	26374
805.057	26362
805.199	26214
805.341	26393
805.483	26484
805.626	26317
805.768	26339
805.91	26461
806.052	26450
806.194	26324
806.336	26495
806.478	26457
806.62	26396
806.762	26358
806.904	26762
807.046	26914
807.188	26933
807.33	26906
807.472	26902
807.614	26762
807.756	26838
807.898	26720
808.04	26678
808.182	26648
808.324	26575
808.465	26663
808.607	26842
808.749	27077
808.891	27028
809.033	27268
809.174	27013
809.316	26971
809.458	27005
809.6	26902
809.741	27138
809.883	27131
810.025	27283
810.166	27268
810.308	27321
810.45	27032
810.591	27123
810.733	26891
810.875	26990
811.016	26746
811.158	26792
811.299	27123
811.441	27180
811.582	27138
811.724	27039
811.865	26861
812.007	27005
812.148	26838
812.29	26952
812.431	27055
812.573	27275
812.714	27241
812.855	27462
812.997	27656
813.138	27622
813.279	27675
813.421	27492
813.562	27401
813.703	27214
813.845	27173
813.986	26864
814.127	26640
814.268	26678
814.41	26705
814.551	26602
814.692	26636
814.833	26461
814.974	26587
815.115	26636
815.256	26457
815.397	26488
815.539	26461
815.68	26377
815.821	26381
815.962	26385
816.103	26358
816.244	26195
816.385	26252
816.526	26134
816.666	26069
816.807	25864
816.948	25898
817.089	25963
817.23	25822
817.371	25814
817.512	25852
817.653	25803
817.793	25769
817.934	25784
818.075	26016
818.216	25986
818.356	25643
818.497	25750
818.638	25620
818.778	25388
818.919	25575
819.06	25700
819.2	25826
819.341	25906
819.481	25643
819.622	26054
819.762	26126
819.903	26062
820.043	26111
820.184	26027
820.324	26054
820.465	26081
820.605	25970
820.746	25890
820.886	25894
821.026	25989
821.167	25966
821.307	25906
821.447	25852
821.588	25803
821.728	25590
821.868	25556
822.008	25270
822.149	25331
822.289	25362
822.429	25103
822.569	25034
822.709	24992
822.849	24901
822.99	24791
823.13	24806
823.27	24825
823.41	24639
823.55	24639
823.69	24692
823.83	24665
823.97	24544
824.11	24399
824.25	24403
824.389	24414
824.529	24555
824.669	24441
824.809	24601
824.949	24669
825.089	24585
825.228	24597
825.368	24323
825.508	24285
825.648	24300
825.787	24414
825.927	24418
826.067	24407
826.206	24308
826.346	24395
826.485	24525
826.625	24342
826.765	24490
826.904	24304
827.044	24178
827.183	24125
827.323	24011
827.462	24106
827.601	24064
827.741	24076
827.88	24194
828.02	23973
828.159	24034
828.298	24174
828.437	24220
828.577	24064
828.716	24152
828.855	23817
828.994	23729
829.134	23745
829.273	23786
829.412	23707
829.551	23733
829.69	23824
829.829	23783
829.968	23916
830.107	23661
830.246	23786
830.385	23642
830.524	23573
830.663	23551
830.802	23501
830.941	23520
831.08	23406
831.219	23505
831.357	23376
831.496	23619
831.635	23402
831.774	23349
831.913	23246
832.051	23197
832.19	23299
832.329	23140
832.467	23079
832.606	22976
832.744	23075
832.883	23022
833.022	23033
833.16	23037
833.299	23071
833.437	22965
833.576	23208
833.714	23121
833.852	23178
833.991	23166
834.129	23178
834.267	23132
834.406	23117
834.544	23159
834.682	23155
834.821	23079
834.959	23307
835.097	23029
835.235	23197
835.373	23083
835.511	23109
835.65	23060
835.788	22911
835.926	22831
836.064	22797
836.202	22778
836.34	22972
836.478	23060
836.615	22953
836.753	22953
836.891	23033
837.029	23010
837.167	22862
837.305	22828
837.443	22824
837.58	22953
837.718	22831
837.856	22968
837.993	22736
838.131	22713
838.269	22672
838.406	22713
838.544	22706
838.681	22504
838.819	22382
838.956	22230
839.094	22291
839.231	22402
839.369	22379
839.506	22603
839.643	22554
839.781	22257
839.918	22154
840.055	22348
840.193	22261
840.33	22265
840.467	22154
840.604	22284
840.742	22508
840.879	22219
841.016	22139
841.153	22143
841.29	22417
841.427	22059
841.564	22287
841.701	22204
841.838	22135
841.975	22135
842.112	22143
842.249	21987
842.385	22101
842.522	22268
842.659	22055
842.796	21926
842.933	21987
843.069	22051
843.206	21934
843.343	22070
843.479	22059
843.616	22025
843.752	21850
843.889	21892
844.025	22074
844.162	21675
844.298	21793
844.435	21720
844.571	21755
844.708	21743
844.844	21991
844.98	21842
845.117	21854
845.253	21694
845.389	21648
845.525	21724
845.661	21698
845.798	21526
845.934	21523
846.07	21496
846.206	21538
846.342	21557
846.478	21466
846.614	21336
846.75	21214
846.886	21302
847.022	21321
847.158	21108
847.294	21298
847.429	21241
847.565	21275
847.701	21447
847.837	20937
847.972	21020
848.108	21154
848.244	21070
848.379	20895
848.515	20864
848.65	20811
848.786	20887
848.921	20804
849.057	20864
849.192	20994
849.328	20861
849.463	20663
849.598	20746
849.734	20781
849.869	20655
850.004	20598
850.14	20746
850.275	20678
850.41	20541
850.545	20427
850.68	20571
850.815	20617
850.95	20606
851.085	20880
851.22	20678
851.355	20598
851.49	20587
851.625	20594
851.76	20518
851.895	20560
852.03	20480
852.165	20598
852.299	20625
852.434	20754
852.569	20693
852.703	20514
852.838	20602
852.973	20765
853.107	20731
853.242	20438
853.376	20590
853.511	20324
853.645	20305
853.78	20526
853.914	20343
854.048	20473
854.183	20465
854.317	20396
854.451	20545
854.585	20454
854.72	20415
854.854	20438
854.988	20431
855.122	20533
855.256	20278
855.39	20408
855.524	20518
855.658	20393
855.792	20552
855.926	20454
856.06	20465
856.194	20434
856.327	20389
856.461	20301
856.595	20278
856.729	20366
856.862	20533
856.996	20469
857.13	20434
857.263	20473
857.397	20446
857.53	20473
857.664	20389
857.797	20465
857.931	20438
858.064	20404
858.197	20575
858.331	20393
858.464	20370
858.597	20180
858.731	20336
858.864	20408
858.997	20320
859.13	20431
859.263	20552
859.396	20564
859.529	20370
859.662	20427
859.795	20393
859.928	20385
860.061	20587
860.194	20480
860.327	20530
860.46	20404
860.592	20526
860.725	20511
860.858	20533
860.99	20362
861.123	20324
861.256	20328
861.388	20385
861.521	21264
861.653	20271
861.786	20145
861.918	20332
862.05	20320
862.183	20336
862.315	20457
862.447	20404
862.58	20256
862.712	20244
862.844	20043
862.976	20153
863.108	20206
863.24	20686
863.372	20073
863.504	20115
863.636	20081
863.768	20126
863.9	20195
864.032	19989
864.164	20081
864.296	20039
864.428	20263
864.559	20153
864.691	20187
864.823	20126
864.954	20092
865.086	20039
865.217	20103
865.349	20046
865.48	20016
865.612	20043
865.743	20134
865.875	20096
866.006	20043
866.137	20008
866.269	20050
866.4	20039
866.531	20027
866.662	19879
866.793	20008
866.924	19894
867.055	20035
867.186	19917
867.317	19940
867.448	19989
867.579	19921
867.71	19826
867.841	19849
867.972	19940
868.103	19978
868.233	20073
868.364	19967
868.495	20069
868.625	20244
868.756	20343
868.886	20130
869.017	20237
869.147	20301
869.278	20408
869.408	20427
869.539	20267
869.669	20263
869.799	20347
869.929	20256
870.06	20294
870.19	20629
870.32	20632
870.45	20594
870.58	20644
870.71	20644
870.84	20663
870.97	20640
871.1	20598
871.23	20788
871.36	20929
871.489	20777
871.619	20842
871.749	20785
871.879	20891
872.008	20811
872.138	20830
872.267	20883
872.397	20583
872.526	20644
872.656	20701
872.785	20739
872.915	20899
873.044	20925
873.173	20807
873.303	20842
873.432	20998
873.561	20967
873.69	20838
873.819	20724
873.948	20918
874.077	20887
874.206	20754
874.335	20838
874.464	20876
874.593	21077
874.722	21157
874.851	21123
874.979	21180
875.108	21135
875.237	20994
875.365	20918
875.494	21051
875.623	21279
875.751	21089
875.88	21192
876.008	21272
876.136	21416
876.265	21481
876.393	21633
876.521	21485
876.65	21606
876.778	21526
876.906	21447
877.034	21389
877.162	21526
877.29	21329
877.418	21504
877.546	21477
877.674	21408
877.802	21435
877.93	21515
878.058	21424
878.185	21321
878.313	21416
878.441	21367
878.568	21222
878.696	21443
878.824	21428
878.951	21519
879.079	21553
879.206	21686
879.333	21595
879.461	21447
879.588	21447
879.715	21789
879.842	21751
879.97	21370
880.097	21241
880.224	21272
880.351	21218
880.478	21348
880.605	21264
880.732	21249
880.859	21492
880.986	21283
881.112	21340
881.239	21142
881.366	21013
881.493	21013
881.619	20960
881.746	20937
881.872	20891
881.999	20815
882.125	20773
882.252	20857
882.378	20906
882.505	20891
882.631	20682
882.757	20587
882.883	20518
883.01	20583
883.136	20663
883.262	20503
883.388	20290
883.514	20621
883.64	20530
883.766	20598
883.892	20358
884.018	20305
884.143	20492
884.269	20556
884.395	20351
884.52	20096
884.646	20237
884.772	20069
884.897	20195
885.023	20259
885.148	20282
885.274	20278
885.399	20225
885.524	20210
885.65	20157
885.775	20183
885.9	20237
886.025	20313
886.15	20305
886.275	20176
886.4	20096
886.525	20214
886.65	20111
886.775	20035
886.9	20191
887.025	20343
887.149	20187
887.274	19993
887.399	19932
887.523	20005
887.648	19989
887.773	19974
887.897	20031
888.021	20020
888.146	19811
888.27	20134
888.395	20092
888.519	20058
888.643	20005
888.767	20103
888.891	19879
889.015	19811
889.139	19868
889.263	19795
889.387	19993
889.511	19959
889.635	19959
889.759	19852
889.883	19689
890.006	19803
890.13	19898
890.254	19685
890.377	19643
890.501	19632
890.624	19510
890.748	19540
890.871	19346
890.995	19343
891.118	19324
891.241	19384
891.364	19480
891.488	19556
891.611	19346
891.734	19373
891.857	19430
891.98	19365
892.103	19502
892.226	19400
892.349	19369
892.471	19228
892.594	19377
892.717	19247
892.839	19228
892.962	19388
893.085	19373
893.207	19331
893.33	19137
893.452	19145
893.575	19282
893.697	19278
893.819	19460
893.941	19472
894.064	19480
894.186	19179
894.308	19198
894.43	19403
894.552	19502
894.674	19270
894.796	19255
894.918	19285
895.04	19343
895.161	19316
895.283	19274
895.405	19213
895.526	19346
895.648	19327
895.769	19441
895.891	19426
896.012	19377
896.134	19346
896.255	19331
896.376	19312
896.498	19377
896.619	19266
896.74	19209
896.861	19384
896.982	19738
897.103	19791
897.224	19556
897.345	19487
897.466	19559
897.587	19613
897.708	19620
897.828	19594
897.949	19533
898.07	19377
898.19	19449
898.311	19605
898.431	19358
898.552	19499
898.672	19559
898.792	19552
898.913	19464
899.033	19426
899.153	19407
899.273	19202
899.393	19240
899.513	19422
899.633	19358
899.753	19396
899.873	19327
899.993	19312
900.113	19270
900.232	19270
900.352	19236
900.472	19145
900.591	19152
900.711	19141
900.83	19141
900.95	19110
901.069	19084
901.189	19023
901.308	18821
901.427	18757
901.546	18700
901.665	18665
901.784	18856
901.904	18566
902.023	18479
902.141	18285
902.26	18220
902.379	18273
902.498	18216
902.617	18254
902.735	18304
902.854	18247
902.973	18106
903.091	17992
903.21	17927
903.328	17965
903.446	17950
903.565	17756
903.683	17581
903.801	17634
903.919	17608
904.038	17646
904.156	17501
904.274	17528
904.392	17452
904.51	17421
904.627	17592
904.745	17440
904.863	17512
904.981	17379
905.098	17223
905.216	17166
905.334	17181
905.451	17280
905.569	17105
905.686	17056
905.803	17170
905.921	16942
906.038	17029
906.155	16949
906.272	16942
906.389	17045
906.506	16713
906.623	16706
906.74	16755
906.857	16565
906.974	16607
907.091	16748
907.208	16877
907.324	16729
907.441	16538
907.557	16440
907.674	16462
907.79	16485
907.907	16371
908.023	16523
908.139	16428
908.256	16333
908.372	16390
908.488	16287
908.604	16147
908.72	16169
908.836	16154
908.952	16131
909.068	16112
909.184	16226
909.3	16181
909.415	16314
909.531	16242
909.647	15861
909.762	15819
909.878	15793
909.993	15884
910.108	15812
910.224	15823
910.339	15838
910.454	15736
910.57	15747
910.685	15812
910.8	15816
910.915	15793
911.03	15709
911.145	15504
911.259	15473
911.374	15576
911.489	15408
911.604	15363
911.718	15310
911.833	15218
911.947	15180
912.062	15085
912.176	15275
912.291	15317
912.405	15279
912.519	15511
912.633	15477
912.748	15370
912.862	15211
912.976	15173
913.09	14967
913.204	14998
913.318	15005
913.431	15157
913.545	15169
913.659	15123
913.772	14967
913.886	14910
914	14853
914.113	14937
914.226	14937
914.34	14944
914.453	14807
914.566	14899
914.68	14724
914.793	14708
914.906	14484
915.019	14442
915.132	14400
915.245	14404
915.358	14514
915.47	14484
915.583	14469
915.696	14530
915.809	14598
915.921	14610
916.034	14370
916.146	14457
916.259	14343
916.371	14495
916.483	14362
916.595	14294
916.708	14305
916.82	14438
916.932	14221
917.044	14358
917.156	14278
917.268	14062
917.38	14088
917.491	14123
917.603	14183
917.715	14263
917.826	14313
917.938	14096
918.049	14081
918.161	14134
918.272	14183
918.384	14199
918.495	14111
918.606	13932
918.717	13883
918.828	13940
918.939	13936
919.05	13791
919.161	13890
919.272	13662
919.383	13814
919.494	13932
919.604	14103
919.715	13928
919.826	13803
919.936	13849
920.047	13830
920.157	13868
920.267	14050
920.378	13883
920.488	13898
920.598	14001
920.708	14267
920.818	13909
920.928	13978
921.038	14168
921.148	14157
921.258	13822
921.368	13811
921.477	13693
921.587	13681
921.697	13506
921.806	13537
921.916	13502
922.025	13384
922.134	13358
922.244	13198
922.353	13324
922.462	13327
922.571	13122
922.68	12947
922.789	12958
922.898	12905
923.007	12962
923.116	12958
923.224	12905
923.333	12954
923.442	12753
923.55	12768
923.659	12722
923.767	12829
923.876	12711
923.984	12783
924.092	12642
924.201	12665
924.309	12700
924.417	12642
924.525	12623
924.633	12669
924.741	13613
924.849	12407
924.956	12589
925.064	12448
925.172	12369
925.279	12376
925.387	12395
925.494	12445
925.602	12490
925.709	12441
925.816	12346
925.924	12361
926.031	12407
926.138	12372
926.245	12372
926.352	12239
926.459	12308
926.566	12426
926.673	12292
926.779	12136
926.886	12148
926.993	12041
927.099	12060
927.206	11923
927.312	11942
927.419	11988
927.525	11996
927.631	11969
927.737	11961
927.843	11821
927.95	11729
928.056	11756
928.162	11882
928.267	11893
928.373	12403
928.479	11897
928.585	11535
928.69	11760
928.796	11729
928.901	11741
929.007	11592
929.112	11684
929.218	11691
929.323	11668
929.428	11611
929.533	11604
929.638	11520
929.743	11535
929.848	11566
929.953	11535
930.058	11471
930.163	11261
930.267	11311
930.372	11360
930.477	11201
930.581	11417
930.685	11326
930.79	11178
930.894	11220
930.998	11143
931.103	11307
931.207	10999
931.311	10801
931.415	10816
931.519	10611
931.623	10561
