Data from test_V78500241_1311.txt Node
Date: Fri Mar 25 15:18:59 CST 2022
User: usil
Spectrometer: V785-0024
Trigger mode: 0
Integration Time (sec): 4.000000E-1
Scans to average: 1
Nonlinearity correction enabled: false
Boxcar width: 0
Storing dark spectrum: false
XAxis mode: Wavelengths
Number of Pixels in Spectrum: 1024
>>>>>Begin Spectral Data<<<<<
801.071	28036
801.214	27945
801.356	27595
801.499	27542
801.641	27492
801.783	27599
801.926	27671
802.068	27538
802.211	27504
802.353	27439
802.496	27199
802.638	27169
802.78	27138
802.923	27001
803.065	27043
803.208	27085
803.35	27142
803.492	27195
803.635	27389
803.777	27237
803.919	27393
804.061	27736
804.204	27454
804.346	27237
804.488	27279
804.63	27264
804.773	27447
804.915	27431
805.057	27431
805.199	27382
805.341	27496
805.483	27534
805.626	27625
805.768	27458
805.91	27473
806.052	27587
806.194	27344
806.336	27587
806.478	27606
806.62	27469
806.762	27743
806.904	27781
807.046	28040
807.188	27979
807.33	27876
807.472	27930
807.614	27827
807.756	27930
807.898	27770
808.04	27816
808.182	27732
808.324	27895
808.465	27899
808.607	28120
808.749	28204
808.891	28150
809.033	28185
809.174	28230
809.316	28299
809.458	28230
809.6	28116
809.741	28169
809.883	28223
810.025	28478
810.166	28432
810.308	28394
810.45	28329
810.591	28325
810.733	28097
810.875	28128
811.016	28093
811.158	27994
811.299	28139
811.441	28196
811.582	28333
811.724	28253
811.865	28101
812.007	28086
812.148	28124
812.29	28268
812.431	28363
812.573	28504
812.714	28664
812.855	28725
812.997	28691
813.138	28847
813.279	28752
813.421	28599
813.562	28653
813.703	28584
813.845	28337
813.986	28063
814.127	27918
814.268	27812
814.41	27888
814.551	27892
814.692	27842
814.833	27774
814.974	27884
815.115	27713
815.256	27690
815.397	27637
815.539	27774
815.68	27610
815.821	27667
815.962	27625
816.103	27530
816.244	27671
816.385	27454
816.526	27458
816.666	27283
816.807	27161
816.948	27374
817.089	27188
817.23	27252
817.371	27108
817.512	27005
817.653	27077
817.793	27093
817.934	27195
818.075	27055
818.216	27214
818.356	27138
818.497	27207
818.638	26834
818.778	26948
818.919	26842
819.06	27001
819.2	26990
819.341	27150
819.481	26975
819.622	27359
819.762	27420
819.903	27252
820.043	27332
820.184	27325
820.324	27081
820.465	27416
820.605	27211
820.746	27294
820.886	27161
821.026	27264
821.167	27275
821.307	27306
821.447	27218
821.588	27081
821.728	26956
821.868	26804
822.008	26697
822.149	26602
822.289	26488
822.429	26450
822.569	26187
822.709	26305
822.849	26119
822.99	26100
823.13	25997
823.27	26115
823.41	25951
823.55	25822
823.69	25925
823.83	26005
823.97	25830
824.11	25647
824.25	25708
824.389	25852
824.529	25833
824.669	25883
824.809	25894
824.949	25868
825.089	25951
825.228	25906
825.368	25586
825.508	25738
825.648	25674
825.787	25677
825.927	25723
826.067	25499
826.206	25689
826.346	25685
826.485	25780
826.625	25689
826.765	25700
826.904	25559
827.044	25301
827.183	25392
827.323	25324
827.462	25426
827.601	25270
827.741	25263
827.88	25388
828.02	25244
828.159	25225
828.298	25434
828.437	25472
828.577	25335
828.716	25479
828.855	25198
828.994	25008
829.134	25065
829.273	25099
829.412	25012
829.551	24958
829.69	25217
829.829	24973
829.968	25050
830.107	25012
830.246	25099
830.385	24928
830.524	24916
830.663	24867
830.802	24795
830.941	24650
831.08	24646
831.219	24646
831.357	24757
831.496	24939
831.635	24620
831.774	24559
831.913	24441
832.051	24494
832.19	24388
832.329	24582
832.467	24380
832.606	24433
832.744	24285
832.883	24213
833.022	24273
833.16	24319
833.299	24528
833.437	24395
833.576	24414
833.714	24547
833.852	24357
833.991	24471
834.129	24433
834.267	24540
834.406	24490
834.544	24429
834.682	24357
834.821	24479
834.959	24544
835.097	24300
835.235	24456
835.373	24433
835.511	24376
835.65	24163
835.788	24228
835.926	24171
836.064	24072
836.202	24053
836.34	24266
836.478	24452
836.615	24315
836.753	24091
836.891	24232
837.029	24277
837.167	24296
837.305	24110
837.443	24038
837.58	24232
837.718	24098
837.856	24057
837.993	23961
838.131	24098
838.269	23977
838.406	24034
838.544	23874
838.681	23699
838.819	23748
838.956	23490
839.094	23562
839.231	23741
839.369	23687
839.506	23965
839.643	23805
839.781	23589
839.918	23478
840.055	23543
840.193	23414
840.33	23273
840.467	23531
840.604	23471
840.742	23722
840.879	23341
841.016	23417
841.153	23391
841.29	23611
841.427	23429
841.564	23452
841.701	23486
841.838	23448
841.975	23265
842.112	23341
842.249	23284
842.385	23132
842.522	23501
842.659	23246
842.796	23136
842.933	23216
843.069	23216
843.206	23239
843.343	23258
843.479	23200
843.616	23288
843.752	22949
843.889	23071
844.025	23098
844.162	23044
844.298	23044
844.435	23033
844.571	22828
844.708	23117
844.844	23109
844.98	23067
845.117	23064
845.253	22930
845.389	22809
845.525	22831
845.661	22835
845.798	22565
845.934	22820
846.07	22706
846.206	22744
846.342	22858
846.478	22672
846.614	22489
846.75	22462
846.886	22443
847.022	22451
847.158	22573
847.294	22447
847.429	22573
847.565	22493
847.701	22607
847.837	22124
847.972	22200
848.108	22284
848.244	22196
848.379	22051
848.515	22051
848.65	22010
848.786	21956
848.921	22051
849.057	22147
849.192	22139
849.328	22082
849.463	22002
849.598	22029
849.734	21934
849.869	21922
850.004	21819
850.14	21869
850.275	21728
850.41	21728
850.545	21770
850.68	21751
850.815	21846
850.95	21854
851.085	21960
851.22	21930
851.355	21785
851.49	21778
851.625	21698
851.76	21808
851.895	21618
852.03	21652
852.165	21816
852.299	21827
852.434	21930
852.569	21892
852.703	21873
852.838	21895
852.973	21930
853.107	21979
853.242	21686
853.376	21739
853.511	21431
853.645	21622
853.78	21713
853.914	21713
854.048	21576
854.183	21610
854.317	21583
854.451	21732
854.585	21606
854.72	21747
854.854	21637
854.988	21580
855.122	21739
855.256	21511
855.39	21599
855.524	21694
855.658	21705
855.792	21530
855.926	21652
856.06	21622
856.194	21755
856.327	21530
856.461	21561
856.595	21576
856.729	21637
856.862	21781
856.996	21660
857.13	21720
857.263	21618
857.397	21698
857.53	21625
857.664	21728
857.797	21660
857.931	21724
858.064	21591
858.197	21698
858.331	21599
858.464	21622
858.597	21523
858.731	21538
858.864	21580
858.997	21610
859.13	21641
859.263	21679
859.396	21682
859.529	21561
859.662	21557
859.795	21481
859.928	21694
860.061	21785
860.194	21930
860.327	21599
860.46	21667
860.592	21682
860.725	21675
860.858	21797
860.99	21576
861.123	21599
861.256	21523
861.388	21599
861.521	22371
861.653	21462
861.786	21405
861.918	21450
862.05	21511
862.183	21523
862.315	21690
862.447	21545
862.58	21466
862.712	21447
862.844	21329
862.976	21408
863.108	21466
863.24	21591
863.372	21298
863.504	21226
863.636	21313
863.768	21428
863.9	21317
864.032	21161
864.164	21306
864.296	21386
864.428	21363
864.559	21443
864.691	21389
864.823	21336
864.954	21256
865.086	21306
865.217	21237
865.349	21146
865.48	21188
865.612	21180
865.743	21359
865.875	21302
866.006	21195
866.137	21192
866.269	21195
866.4	21199
866.531	21093
866.662	21123
866.793	21249
866.924	21154
867.055	21123
867.186	21138
867.317	21112
867.448	21074
867.579	21055
867.71	21047
867.841	20960
867.972	21108
868.103	21154
868.233	21294
868.364	21165
868.495	21188
868.625	21279
868.756	21405
868.886	21272
869.017	21287
869.147	21435
869.278	21466
869.408	21302
869.539	21519
869.669	21469
869.799	21492
869.929	21557
870.06	21469
870.19	21808
870.32	21663
870.45	21682
870.58	21755
870.71	21800
870.84	21835
870.97	21770
871.1	21789
871.23	21953
871.36	21956
871.489	21934
871.619	21854
871.749	21941
871.879	21956
872.008	22082
872.138	21922
872.267	22044
872.397	21869
872.526	21808
872.656	21842
872.785	21918
872.915	22078
873.044	22139
873.173	22063
873.303	22051
873.432	22002
873.561	22070
873.69	22006
873.819	21991
873.948	22013
874.077	21983
874.206	21941
874.335	22044
874.464	22150
874.593	22219
874.722	22295
874.851	22322
874.979	22322
875.108	22386
875.237	22169
875.365	22093
875.494	22272
875.623	22226
875.751	22177
875.88	22295
876.008	22261
876.136	22421
876.265	22641
876.393	22580
876.521	22557
876.65	22660
876.778	22569
876.906	22611
877.034	22519
877.162	22580
877.29	22432
877.418	22752
877.546	22527
877.674	22519
877.802	22538
877.93	22626
878.058	22497
878.185	22497
878.313	22481
878.441	22592
878.568	22390
878.696	22428
878.824	22599
878.951	22596
879.079	22675
879.206	22968
879.333	22706
879.461	22508
879.588	22664
879.715	22698
879.842	22839
879.97	22607
880.097	22333
880.224	22382
880.351	22428
880.478	22356
880.605	22257
880.732	22386
880.859	22531
880.986	22417
881.112	22409
881.239	22215
881.366	22181
881.493	22021
881.619	21991
881.746	21998
881.872	21991
881.999	21930
882.125	21850
882.252	21949
882.378	21930
882.505	21972
882.631	21751
882.757	21667
882.883	21713
883.01	21671
883.136	21561
883.262	21572
883.388	21485
883.514	21701
883.64	21701
883.766	21641
883.892	21557
884.018	21542
884.143	21583
884.269	21568
884.395	21477
884.52	21245
884.646	21233
884.772	21173
884.897	21161
885.023	21325
885.148	21424
885.274	21393
885.399	21348
885.524	21245
885.65	21382
885.775	21298
885.9	21287
886.025	21401
886.15	21291
886.275	21249
886.4	21150
886.525	21233
886.65	21211
886.775	21245
886.9	21374
887.025	21538
887.149	21340
887.274	21127
887.399	21032
887.523	20986
887.648	20975
887.773	20891
887.897	21150
888.021	21001
888.146	20994
888.27	21123
888.395	21268
888.519	21150
888.643	21169
888.767	21138
888.891	21062
889.015	20956
889.139	20902
889.263	20834
889.387	20914
889.511	21161
889.635	20952
889.759	20792
889.883	20838
890.006	20872
890.13	21001
890.254	20731
890.377	20731
890.501	20617
890.624	20503
890.748	20587
890.871	20427
890.995	20446
891.118	20290
891.241	20393
891.364	20431
891.488	20541
891.611	20336
891.734	20377
891.857	20446
891.98	20480
892.103	20514
892.226	20408
892.349	20336
892.471	20172
892.594	20244
892.717	20385
892.839	20313
892.962	20233
893.085	20370
893.207	20244
893.33	20210
893.452	20271
893.575	20355
893.697	20366
893.819	20427
893.941	20552
894.064	20469
894.186	20142
894.308	20214
894.43	20412
894.552	20412
894.674	20324
894.796	20218
894.918	20256
895.04	20256
895.161	20389
895.283	20412
895.405	20233
895.526	20313
895.648	20214
895.769	20263
895.891	20248
896.012	20294
896.134	20355
896.255	20267
896.376	20282
896.498	20423
896.619	20320
896.74	20370
896.861	20381
896.982	20587
897.103	20823
897.224	20583
897.345	20579
897.466	20564
897.587	20537
897.708	20629
897.828	20598
897.949	20446
898.07	20309
898.19	20507
898.311	20568
898.431	20358
898.552	20469
898.672	20625
898.792	20507
898.913	20377
899.033	20442
899.153	20309
899.273	20195
899.393	20199
899.513	20366
899.633	20400
899.753	20206
899.873	20244
899.993	20301
900.113	20119
900.232	20195
900.352	20039
900.472	20024
900.591	20084
900.711	20050
900.83	19944
900.95	20168
901.069	20088
901.189	19894
901.308	19757
901.427	19635
901.546	19628
901.665	19719
901.784	19571
901.904	19540
902.023	19381
902.141	19183
902.26	19126
902.379	19251
902.498	19156
902.617	19110
902.735	19145
902.854	19000
902.973	18989
903.091	18878
903.21	18776
903.328	18783
903.446	18722
903.565	18665
903.683	18597
903.801	18498
903.919	18593
904.038	18574
904.156	18380
904.274	18460
904.392	18407
904.51	18277
904.627	18353
904.745	18372
904.863	18395
904.981	18235
905.098	18121
905.216	17927
905.334	18140
905.451	18038
905.569	17965
905.686	18030
905.803	18034
905.921	17874
906.038	17870
906.155	17935
906.272	17828
906.389	17805
906.506	17619
906.623	17486
906.74	17619
906.857	17532
906.974	17497
907.091	17581
907.208	17794
907.324	17524
907.441	17459
907.557	17337
907.674	17376
907.79	17197
907.907	17395
908.023	17326
908.139	17360
908.256	17250
908.372	17239
908.488	17204
908.604	17041
908.72	17010
908.836	17006
908.952	17048
909.068	17010
909.184	17261
909.3	16965
909.415	17105
909.531	17006
909.647	16767
909.762	16664
909.878	16679
909.993	16797
910.108	16736
910.224	16615
910.339	16729
910.454	16607
910.57	16565
910.685	16531
910.8	16622
910.915	16672
911.03	16405
911.145	16375
911.259	16272
911.374	16249
911.489	16226
911.604	16188
911.718	15987
911.833	16143
911.947	16010
912.062	15831
912.176	15991
912.291	15979
912.405	15979
912.519	16188
912.633	16230
912.748	16139
912.862	15975
912.976	15960
913.09	15770
913.204	15717
913.318	15873
913.431	16002
913.545	15922
913.659	15972
913.772	15819
913.886	15728
914	15682
914.113	15739
914.226	15797
914.34	15671
914.453	15542
914.566	15698
914.68	15545
914.793	15420
914.906	15325
915.019	15252
915.132	15169
915.245	15283
915.358	15287
915.47	15294
915.583	15294
915.696	15325
915.809	15405
915.921	15351
916.034	15192
916.146	15180
916.259	15161
916.371	15218
916.483	15203
916.595	15135
916.708	15116
916.82	15135
916.932	14975
917.044	15020
917.156	15047
917.268	14948
917.38	14963
917.491	14952
917.603	14883
917.715	14975
917.826	14998
917.938	14861
918.049	14765
918.161	14815
918.272	15093
918.384	15013
918.495	14834
918.606	14765
918.717	14640
918.828	14701
918.939	14625
919.05	14629
919.161	14701
919.272	14393
919.383	14480
919.494	14644
919.604	14800
919.715	14655
919.826	14545
919.936	14651
920.047	14659
920.157	14606
920.267	14800
920.378	14644
920.488	14610
920.598	14727
920.708	14933
920.818	14712
920.928	14663
921.038	14937
921.148	14910
921.258	14511
921.368	14434
921.477	14408
921.587	14347
921.697	14218
921.806	14393
921.916	14176
922.025	14084
922.134	14012
922.244	13902
922.353	13989
922.462	13803
922.571	13814
922.68	13791
922.789	13700
922.898	13647
923.007	13597
923.116	13696
923.224	13651
923.333	13636
923.442	13544
923.55	13472
923.659	13518
923.767	13559
923.876	13346
923.984	13533
924.092	13407
924.201	13335
924.309	13434
924.417	13384
924.525	13263
924.633	13316
924.741	14244
924.849	13069
924.956	13278
925.064	13034
925.172	13080
925.279	13046
925.387	13107
925.494	13076
925.602	13232
925.709	13065
925.816	13038
925.924	12977
926.031	13137
926.138	13046
926.245	13004
926.352	12810
926.459	12996
926.566	13042
926.673	12844
926.779	12840
926.886	12719
926.993	12635
927.099	12604
927.206	12528
927.312	12563
927.419	12612
927.525	12646
927.631	12635
927.737	12483
927.843	12448
927.95	12319
928.056	12426
928.162	12452
928.267	12460
928.373	13080
928.479	12532
928.585	12323
928.69	12334
928.796	12395
928.901	12277
929.007	12098
929.112	12327
929.218	12205
929.323	12155
929.428	12106
929.533	12338
929.638	12015
929.743	12026
929.848	12117
929.953	12095
930.058	11996
930.163	11885
930.267	11821
930.372	12064
930.477	11741
930.581	11980
930.685	11999
930.79	11714
930.894	11741
930.998	11707
931.103	11821
931.207	11474
931.311	11436
931.415	11311
931.519	11102
931.623	11067
