Data from test_V78500241_1737.txt Node
Date: Fri Mar 25 15:21:57 CST 2022
User: usil
Spectrometer: V785-0024
Trigger mode: 0
Integration Time (sec): 4.000000E-1
Scans to average: 1
Nonlinearity correction enabled: false
Boxcar width: 0
Storing dark spectrum: false
XAxis mode: Wavelengths
Number of Pixels in Spectrum: 1024
>>>>>Begin Spectral Data<<<<<
801.071	27922
801.214	27876
801.356	27523
801.499	27534
801.641	27386
801.783	27374
801.926	27644
802.068	27405
802.211	27332
802.353	27374
802.496	27066
802.638	27070
802.78	27036
802.923	26967
803.065	27058
803.208	26899
803.35	26880
803.492	27154
803.635	27233
803.777	27184
803.919	27317
804.061	27580
804.204	27165
804.346	27180
804.488	27302
804.63	27188
804.773	27370
804.915	27256
805.057	27317
805.199	27252
805.341	27351
805.483	27405
805.626	27325
805.768	27256
805.91	27256
806.052	27408
806.194	27192
806.336	27526
806.478	27469
806.62	27408
806.762	27500
806.904	27618
807.046	27998
807.188	27751
807.33	27774
807.472	27895
807.614	27663
807.756	27819
807.898	27633
808.04	27580
808.182	27720
808.324	27705
808.465	27736
808.607	27869
808.749	28078
808.891	27956
809.033	28154
809.174	28093
809.316	27956
809.458	28051
809.6	28074
809.741	28158
809.883	28131
810.025	28367
810.166	28363
810.308	28398
810.45	28074
810.591	28143
810.733	27979
810.875	27922
811.016	27888
811.158	27766
811.299	28044
811.441	28128
811.582	28131
811.724	28067
811.865	27983
812.007	27945
812.148	27953
812.29	27918
812.431	28253
812.573	28352
812.714	28462
812.855	28451
812.997	28721
813.138	28687
813.279	28778
813.421	28470
813.562	28462
813.703	28428
813.845	28150
813.986	27899
814.127	27747
814.268	27751
814.41	27762
814.551	27641
814.692	27827
814.833	27443
814.974	27675
815.115	27755
815.256	27564
815.397	27557
815.539	27591
815.68	27500
815.821	27466
815.962	27572
816.103	27534
816.244	27477
816.385	27176
816.526	27298
816.666	27112
816.807	26982
816.948	27081
817.089	27165
817.23	26929
817.371	26883
817.512	26963
817.653	26937
817.793	26925
817.934	27024
818.075	26819
818.216	27028
818.356	27081
818.497	26910
818.638	26651
818.778	26720
818.919	26731
819.06	26758
819.2	26899
819.341	27036
819.481	27081
819.622	27237
819.762	27230
819.903	27230
820.043	27108
820.184	27245
820.324	27093
820.465	27283
820.605	27093
820.746	27093
820.886	27077
821.026	27135
821.167	27028
821.307	27039
821.447	27032
821.588	26956
821.728	26697
821.868	26640
822.008	26484
822.149	26423
822.289	26453
822.429	26115
822.569	26161
822.709	26218
822.849	25997
822.99	26039
823.13	25974
823.27	26001
823.41	25795
823.55	25613
823.69	25856
823.83	25738
823.97	25670
824.11	25533
824.25	25567
824.389	25601
824.529	25738
824.669	25609
824.809	25807
824.949	25643
825.089	25632
825.228	25590
825.368	25571
825.508	25388
825.648	25624
825.787	25430
825.927	25537
826.067	25502
826.206	25419
826.346	25491
826.485	25415
826.625	25521
826.765	25499
826.904	25518
827.044	25365
827.183	25221
827.323	25080
827.462	25183
827.601	25362
827.741	25145
827.88	25282
828.02	25084
828.159	25129
828.298	25190
828.437	25187
828.577	25160
828.716	25129
828.855	24992
828.994	25000
829.134	24909
829.273	24962
829.412	24905
829.551	24954
829.69	24840
829.829	24875
829.968	25019
830.107	25095
830.246	24939
830.385	24932
830.524	24772
830.663	24764
830.802	24547
830.941	24429
831.08	24635
831.219	24585
831.357	24544
831.496	24806
831.635	24407
831.774	24414
831.913	24441
832.051	24289
832.19	24300
832.329	24289
832.467	24239
832.606	24136
832.744	24152
832.883	24270
833.022	24186
833.16	24125
833.299	24311
833.437	24205
833.576	24163
833.714	24213
833.852	24285
833.991	24292
834.129	24353
834.267	24228
834.406	24281
834.544	24361
834.682	24330
834.821	24289
834.959	24464
835.097	24171
835.235	24251
835.373	24323
835.511	24266
835.65	24091
835.788	24174
835.926	23946
836.064	23946
836.202	23973
836.34	24087
836.478	24273
836.615	23954
836.753	24106
836.891	24057
837.029	24087
837.167	24068
837.305	23939
837.443	24091
837.58	23958
837.718	23999
837.856	23866
837.993	23927
838.131	23961
838.269	23855
838.406	23737
838.544	23802
838.681	23520
838.819	23562
838.956	23463
839.094	23345
839.231	23440
839.369	23657
839.506	23821
839.643	23520
839.781	23425
839.918	23353
840.055	23528
840.193	23440
840.33	23261
840.467	23136
840.604	23421
840.742	23600
840.879	23181
841.016	23242
841.153	23265
841.29	23531
841.427	23372
841.564	23349
841.701	23410
841.838	23315
841.975	23235
842.112	23223
842.249	23064
842.385	23086
842.522	23231
842.659	23193
842.796	23113
842.933	23079
843.069	23079
843.206	23086
843.343	23083
843.479	23098
843.616	23102
843.752	22968
843.889	22938
844.025	23075
844.162	23003
844.298	22972
844.435	22877
844.571	22873
844.708	22866
844.844	23014
844.98	22968
845.117	22927
845.253	22725
845.389	22710
845.525	22771
845.661	22790
845.798	22588
845.934	22664
846.07	22599
846.206	22607
846.342	22713
846.478	22569
846.614	22455
846.75	22322
846.886	22268
847.022	22413
847.158	22447
847.294	22219
847.429	22413
847.565	22375
847.701	22531
847.837	22173
847.972	21998
848.108	22154
848.244	22158
848.379	21926
848.515	22002
848.65	21835
848.786	21945
848.921	21869
849.057	22082
849.192	22063
849.328	21880
849.463	21975
849.598	21956
849.734	21793
849.869	21892
850.004	21686
850.14	21694
850.275	21755
850.41	21576
850.545	21637
850.68	21599
850.815	21671
850.95	21637
851.085	21915
851.22	21774
851.355	21751
851.49	21724
851.625	21762
851.76	21599
851.895	21694
852.03	21564
852.165	21656
852.299	21804
852.434	21743
852.569	21663
852.703	21595
852.838	21747
852.973	21797
853.107	21797
853.242	21717
853.376	21568
853.511	21412
853.645	21466
853.78	21675
853.914	21485
854.048	21412
854.183	21462
854.317	21416
854.451	21599
854.585	21462
854.72	21485
854.854	21523
854.988	21374
855.122	21382
855.256	21435
855.39	21374
855.524	21572
855.658	21477
855.792	21439
855.926	21488
856.06	21580
856.194	21713
856.327	21473
856.461	21367
856.595	21485
856.729	21595
856.862	21625
856.996	21496
857.13	21500
857.263	21694
857.397	21450
857.53	21496
857.664	21591
857.797	21603
857.931	21633
858.064	21542
858.197	21580
858.331	21485
858.464	21260
858.597	21351
858.731	21481
858.864	21526
858.997	21458
859.13	21412
859.263	21526
859.396	21568
859.529	21401
859.662	21504
859.795	21370
859.928	21416
860.061	21625
860.194	21675
860.327	21629
860.46	21705
860.592	21671
860.725	21622
860.858	21656
860.99	21485
861.123	21469
861.256	21424
861.388	21435
861.521	22215
861.653	21450
861.786	21150
861.918	21272
862.05	21275
862.183	21367
862.315	21397
862.447	21428
862.58	21469
862.712	21336
862.844	21203
862.976	21226
863.108	21313
863.24	21694
863.372	21169
863.504	21233
863.636	21108
863.768	21279
863.9	21211
864.032	21233
864.164	21146
864.296	21264
864.428	21374
864.559	21245
864.691	21329
864.823	21260
864.954	21150
865.086	21233
865.217	21260
865.349	20960
865.48	21089
865.612	21074
865.743	21176
865.875	21096
866.006	21024
866.137	21131
866.269	21093
866.4	20918
866.531	21013
866.662	21028
866.793	21142
866.924	20895
867.055	21074
867.186	21070
867.317	20975
867.448	20994
867.579	21001
867.71	20956
867.841	20910
867.972	21047
868.103	21001
868.233	21100
868.364	21055
868.495	21294
868.625	21260
868.756	21298
868.886	21252
869.017	21226
869.147	21386
869.278	21462
869.408	21386
869.539	21256
869.669	21329
869.799	21264
869.929	21382
870.06	21401
870.19	21443
870.32	21603
870.45	21732
870.58	21728
870.71	21835
870.84	21739
870.97	21648
871.1	21583
871.23	21873
871.36	21975
871.489	21762
871.619	21717
871.749	21835
871.879	21911
872.008	22055
872.138	21880
872.267	21956
872.397	21736
872.526	21648
872.656	21660
872.785	21717
872.915	21751
873.044	22040
873.173	21903
873.303	21918
873.432	21937
873.561	22036
873.69	21945
873.819	21850
873.948	21903
874.077	21770
874.206	21884
874.335	21956
874.464	22097
874.593	22154
874.722	22032
874.851	22150
874.979	22120
875.108	22143
875.237	22032
875.365	22109
875.494	22158
875.623	22246
875.751	22226
875.88	22143
876.008	22246
876.136	22375
876.265	22500
876.393	22546
876.521	22531
876.65	22622
876.778	22569
876.906	22432
877.034	22584
877.162	22485
877.29	22348
877.418	22470
877.546	22519
877.674	22409
877.802	22557
877.93	22462
878.058	22462
878.185	22341
878.313	22455
878.441	22497
878.568	22421
878.696	22455
878.824	22561
878.951	22538
879.079	22729
879.206	22698
879.333	22645
879.461	22615
879.588	22687
879.715	22580
879.842	22607
879.97	22497
880.097	22295
880.224	22116
880.351	22322
880.478	22322
880.605	22284
880.732	22188
880.859	22542
880.986	22341
881.112	22299
881.239	22200
881.366	22101
881.493	21949
881.619	21903
881.746	21907
881.872	21873
881.999	21838
882.125	21854
882.252	21956
882.378	21835
882.505	22002
882.631	21778
882.757	21682
882.883	21709
883.01	21663
883.136	21557
883.262	21477
883.388	21492
883.514	21564
883.64	21641
883.766	21561
883.892	21447
884.018	21363
884.143	21545
884.269	21739
884.395	21241
884.52	21173
884.646	21184
884.772	21169
884.897	21173
885.023	21241
885.148	21245
885.274	21587
885.399	21302
885.524	21245
885.65	21199
885.775	21291
885.9	21100
886.025	21317
886.15	21416
886.275	21207
886.4	21169
886.525	21249
886.65	21214
886.775	21116
886.9	21325
887.025	21469
887.149	21192
887.274	21058
887.399	21055
887.523	20971
887.648	20979
887.773	20861
887.897	20986
888.021	21089
888.146	20967
888.27	21051
888.395	21119
888.519	21055
888.643	21039
888.767	21009
888.891	20769
889.015	20872
889.139	20906
889.263	20701
889.387	20796
889.511	21081
889.635	20811
889.759	20682
889.883	20773
890.006	20575
890.13	20914
890.254	20739
890.377	20735
890.501	20545
890.624	20602
890.748	20503
890.871	20476
890.995	20362
891.118	20267
891.241	20374
891.364	20328
891.488	20450
891.611	20450
891.734	20301
891.857	20400
891.98	20221
892.103	20434
892.226	20309
892.349	20339
892.471	20183
892.594	20328
892.717	20252
892.839	20237
892.962	20218
893.085	20267
893.207	20301
893.33	20351
893.452	20214
893.575	20412
893.697	20202
893.819	20339
893.941	20503
894.064	20389
894.186	20088
894.308	20225
894.43	20282
894.552	20313
894.674	20275
894.796	20176
894.918	20172
895.04	20301
895.161	20259
895.283	20313
895.405	20180
895.526	20229
895.648	20286
895.769	20290
895.891	20305
896.012	20389
896.134	20317
896.255	20275
896.376	20119
896.498	20324
896.619	20328
896.74	20290
896.861	20313
896.982	20545
897.103	20640
897.224	20419
897.345	20461
897.466	20343
897.587	20317
897.708	20507
897.828	20541
897.949	20396
898.07	20366
898.19	20503
898.311	20583
898.431	20320
898.552	20465
898.672	20560
898.792	20575
898.913	20507
899.033	20389
899.153	20221
899.273	20221
899.393	20248
899.513	20263
899.633	20157
899.753	20191
899.873	20168
899.993	20195
900.113	20119
900.232	20149
900.352	20149
900.472	19932
900.591	19947
900.711	19978
900.83	19917
900.95	20062
901.069	20031
901.189	19909
901.308	19681
901.427	19677
901.546	19624
901.665	19506
901.784	19483
901.904	19449
902.023	19362
902.141	19247
902.26	19194
902.379	19232
902.498	19038
902.617	19027
902.735	19152
902.854	19015
902.973	18951
903.091	18814
903.21	18787
903.328	18684
903.446	18661
903.565	18521
903.683	18559
903.801	18353
903.919	18506
904.038	18593
904.156	18384
904.274	18357
904.392	18281
904.51	18243
904.627	18289
904.745	18407
904.863	18334
904.981	18072
905.098	17980
905.216	18030
905.334	17992
905.451	18034
905.569	17923
905.686	18068
905.803	17996
905.921	17710
906.038	17988
906.155	17783
906.272	17661
906.389	17714
906.506	17535
906.623	17630
906.74	17505
906.857	17486
906.974	17444
907.091	17558
907.208	17642
907.324	17577
907.441	17406
907.557	17193
907.674	17250
907.79	17067
907.907	17280
908.023	17212
908.139	17284
908.256	17121
908.372	17181
908.488	17052
908.604	17010
908.72	17033
908.836	17022
908.952	16930
909.068	16995
909.184	17086
909.3	16976
909.415	17014
909.531	16858
909.647	16793
909.762	16641
909.878	16626
909.993	16653
910.108	16683
910.224	16733
910.339	16634
910.454	16489
910.57	16565
910.685	16470
910.8	16710
910.915	16584
911.03	16531
911.145	16356
911.259	16310
911.374	16261
911.489	16166
911.604	16101
911.718	16002
911.833	15968
911.947	15960
912.062	15819
912.176	15934
912.291	16063
912.405	15994
912.519	16238
912.633	16112
912.748	16059
912.862	16002
912.976	15781
913.09	15747
913.204	15766
913.318	15816
913.431	15949
913.545	15911
913.659	15949
913.772	15823
913.886	15698
914	15641
914.113	15762
914.226	15679
914.34	15641
914.453	15507
914.566	15591
914.68	15458
914.793	15424
914.906	15214
915.019	15176
915.132	15192
915.245	15245
915.358	15226
915.47	15237
915.583	15237
915.696	15222
915.809	15370
915.921	15428
916.034	15135
916.146	15081
916.259	15199
916.371	15199
916.483	15157
916.595	15024
916.708	15028
916.82	15070
916.932	15036
917.044	14960
917.156	15001
917.268	14872
917.38	14838
917.491	14807
917.603	14876
917.715	14910
917.826	14937
917.938	14906
918.049	14682
918.161	14758
918.272	15024
918.384	14819
918.495	14762
918.606	14667
918.717	14575
918.828	14682
918.939	14636
919.05	14514
919.161	14560
919.272	14278
919.383	14419
919.494	14560
919.604	14796
919.715	14625
919.826	14537
919.936	14511
920.047	14667
920.157	14667
920.267	14762
920.378	14552
920.488	14583
920.598	14678
920.708	14811
920.818	14750
920.928	14720
921.038	14769
921.148	14788
921.258	14511
921.368	14492
921.477	14317
921.587	14267
921.697	14187
921.806	14301
921.916	14164
922.025	13921
922.134	13917
922.244	13902
922.353	13932
922.462	13784
922.571	13738
922.68	13548
922.789	13662
922.898	13689
923.007	13499
923.116	13628
923.224	13620
923.333	13556
923.442	13476
923.55	13403
923.659	13430
923.767	13502
923.876	13354
923.984	13468
924.092	13312
924.201	13358
924.309	13422
924.417	13377
924.525	13335
924.633	13293
924.741	14031
924.849	13042
924.956	13247
925.064	13072
925.172	12924
925.279	13012
925.387	13160
925.494	12977
925.602	13084
925.709	13057
925.816	12966
925.924	13107
926.031	13050
926.138	12966
926.245	13034
926.352	12890
926.459	12947
926.566	13050
926.673	12856
926.779	12719
926.886	12768
926.993	12681
927.099	12601
927.206	12566
927.312	12555
927.419	12620
927.525	12650
927.631	12559
927.737	12384
927.843	12483
927.95	12334
928.056	12334
928.162	12494
928.267	12414
928.373	13012
928.479	12426
928.585	12270
928.69	12384
928.796	12407
928.901	12311
929.007	12178
929.112	12270
929.218	12194
929.323	12079
929.428	12003
929.533	12251
929.638	12049
929.743	12068
929.848	12053
929.953	12155
930.058	11961
930.163	11699
930.267	11832
930.372	11969
930.477	11840
930.581	11984
930.685	11882
930.79	11703
930.894	11733
930.998	11703
931.103	11752
931.207	11383
931.311	11326
931.415	11185
931.519	11022
931.623	11060
