Data from test_V78500241_2508.txt Node
Date: Fri Mar 25 15:27:19 CST 2022
User: usil
Spectrometer: V785-0024
Trigger mode: 0
Integration Time (sec): 4.000000E-1
Scans to average: 1
Nonlinearity correction enabled: false
Boxcar width: 0
Storing dark spectrum: false
XAxis mode: Wavelengths
Number of Pixels in Spectrum: 1024
>>>>>Begin Spectral Data<<<<<
801.071	27108
801.214	27165
801.356	26785
801.499	26819
801.641	26556
801.783	26651
801.926	26552
802.068	26514
802.211	26602
802.353	26492
802.496	26294
802.638	26111
802.78	26153
802.923	26248
803.065	26027
803.208	26282
803.35	26168
803.492	26431
803.635	26457
803.777	26309
803.919	26385
804.061	26739
804.204	26450
804.346	26518
804.488	26267
804.63	26408
804.773	26214
804.915	26431
805.057	26621
805.199	26408
805.341	26434
805.483	26552
805.626	26530
805.768	26469
805.91	26549
806.052	26530
806.194	26419
806.336	26682
806.478	26526
806.62	26495
806.762	26526
806.904	26716
807.046	27017
807.188	26857
807.33	26815
807.472	26948
807.614	26823
807.756	26864
807.898	26864
808.04	26743
808.182	26659
808.324	26769
808.465	26845
808.607	26948
808.749	27131
808.891	27249
809.033	27157
809.174	27108
809.316	27009
809.458	27051
809.6	27005
809.741	27150
809.883	27203
810.025	27340
810.166	27405
810.308	27332
810.45	27283
810.591	27317
810.733	27104
810.875	27009
811.016	26940
811.158	26902
811.299	27272
811.441	27298
811.582	27298
811.724	27154
811.865	27176
812.007	27013
812.148	27123
812.29	27222
812.431	27195
812.573	27363
812.714	27519
812.855	27477
812.997	27690
813.138	27679
813.279	27644
813.421	27690
813.562	27580
813.703	27389
813.845	27233
813.986	26906
814.127	26929
814.268	26906
814.41	26796
814.551	26724
814.692	26773
814.833	26705
814.974	26640
815.115	26880
815.256	26670
815.397	26609
815.539	26716
815.68	26575
815.821	26404
815.962	26648
816.103	26488
816.244	26571
816.385	26294
816.526	26298
816.666	26164
816.807	25928
816.948	26107
817.089	26210
817.23	26183
817.371	26027
817.512	25974
817.653	25974
817.793	25944
817.934	25921
818.075	26001
818.216	26065
818.356	26039
818.497	25963
818.638	25738
818.778	25841
818.919	25746
819.06	25814
819.2	25936
819.341	26008
819.481	26008
819.622	26199
819.762	26332
819.903	26237
820.043	26100
820.184	26138
820.324	26191
820.465	26145
820.605	26081
820.746	26073
820.886	26020
821.026	26107
821.167	26134
821.307	26168
821.447	26084
821.588	25982
821.728	25841
821.868	25563
822.008	25537
822.149	25419
822.289	25438
822.429	25285
822.569	25152
822.709	25133
822.849	25053
822.99	25004
823.13	24985
823.27	24844
823.41	24795
823.55	24722
823.69	24848
823.83	24760
823.97	24871
824.11	24646
824.25	24631
824.389	24658
824.529	24703
824.669	24620
824.809	24661
824.949	24806
825.089	24673
825.228	24757
825.368	24479
825.508	24399
825.648	24403
825.787	24555
825.927	24559
826.067	24585
826.206	24353
826.346	24620
826.485	24479
826.625	24448
826.765	24559
826.904	24513
827.044	24194
827.183	24296
827.323	24064
827.462	24174
827.601	24171
827.741	24334
827.88	24125
828.02	24083
828.159	24239
828.298	24129
828.437	24315
828.577	24098
828.716	24315
828.855	24125
828.994	23988
829.134	23874
829.273	23958
829.412	23805
829.551	23927
829.69	23999
829.829	24018
829.968	24026
830.107	23992
830.246	23973
830.385	23927
830.524	23714
830.663	23718
830.802	23680
830.941	23509
831.08	23509
831.219	23726
831.357	23467
831.496	23878
831.635	23482
831.774	23497
831.913	23444
832.051	23372
832.19	23250
832.329	23372
832.467	23204
832.606	23086
832.744	23193
832.883	23250
833.022	23140
833.16	23178
833.299	23200
833.437	23269
833.576	23360
833.714	23246
833.852	23345
833.991	23360
834.129	23318
834.267	23410
834.406	23356
834.544	23421
834.682	23356
834.821	23181
834.959	23433
835.097	23322
835.235	23246
835.373	23277
835.511	23269
835.65	23132
835.788	23124
835.926	22961
836.064	22915
836.202	22949
836.34	23098
836.478	23174
836.615	23060
836.753	23159
836.891	23181
837.029	23197
837.167	23151
837.305	23037
837.443	22900
837.58	22930
837.718	23037
837.856	23018
837.993	22934
838.131	22919
838.269	22946
838.406	22923
838.544	22869
838.681	22786
838.819	22615
838.956	22382
839.094	22310
839.231	22424
839.369	22649
839.506	22831
839.643	22771
839.781	22512
839.918	22459
840.055	22386
840.193	22500
840.33	22329
840.467	22318
840.604	22599
840.742	22603
840.879	22375
841.016	22413
841.153	22314
841.29	22588
841.427	22447
841.564	22455
841.701	22447
841.838	22265
841.975	22314
842.112	22451
842.249	22287
842.385	22196
842.522	22474
842.659	22211
842.796	22158
842.933	22120
843.069	22055
843.206	22055
843.343	22314
843.479	22150
843.616	22124
843.752	21972
843.889	22002
844.025	22112
844.162	21972
844.298	21998
844.435	21861
844.571	21850
844.708	22006
844.844	22105
844.98	22124
845.117	22105
845.253	21968
845.389	21895
845.525	21888
845.661	21823
845.798	21804
845.934	21819
846.07	21675
846.206	21743
846.342	21785
846.478	21671
846.614	21545
846.75	21424
846.886	21405
847.022	21443
847.158	21412
847.294	21473
847.429	21477
847.565	21386
847.701	21648
847.837	21207
847.972	21074
848.108	21302
848.244	21256
848.379	21104
848.515	21051
848.65	21028
848.786	21032
848.921	20952
849.057	21199
849.192	21036
849.328	21096
849.463	20963
849.598	21005
849.734	21013
849.869	20861
850.004	20845
850.14	20720
850.275	20727
850.41	20632
850.545	20720
850.68	20785
850.815	20739
850.95	20686
851.085	20918
851.22	20876
851.355	20720
851.49	20754
851.625	20952
851.76	20651
851.895	20720
852.03	20708
852.165	20864
852.299	20823
852.434	20899
852.569	20765
852.703	20758
852.838	20807
852.973	20895
853.107	20838
853.242	20796
853.376	20571
853.511	20621
853.645	20541
853.78	20727
853.914	20746
854.048	20575
854.183	20651
854.317	20621
854.451	20724
854.585	20594
854.72	20590
854.854	20648
854.988	20598
855.122	20689
855.256	20450
855.39	20617
855.524	20693
855.658	20602
855.792	20765
855.926	20640
856.06	20579
856.194	20655
856.327	20560
856.461	20541
856.595	20556
856.729	20670
856.862	20731
856.996	20663
857.13	20716
857.263	20754
857.397	20731
857.53	20549
857.664	20545
857.797	20648
857.931	20697
858.064	20606
858.197	20792
858.331	20655
858.464	20533
858.597	20442
858.731	20609
858.864	20583
858.997	20609
859.13	20609
859.263	20636
859.396	20743
859.529	20655
859.662	20533
859.795	20568
859.928	20613
860.061	20701
860.194	20807
860.327	20625
860.46	20613
860.592	20750
860.725	20746
860.858	20785
860.99	20697
861.123	20408
861.256	20522
861.388	20686
861.521	21104
861.653	20552
861.786	20320
861.918	20419
862.05	20583
862.183	20473
862.315	20537
862.447	20625
862.58	20526
862.712	20355
862.844	20298
862.976	20438
863.108	20374
863.24	20765
863.372	20320
863.504	20324
863.636	20385
863.768	20351
863.9	20275
864.032	20248
864.164	20282
864.296	20233
864.428	20450
864.559	20400
864.691	20408
864.823	20351
864.954	20298
865.086	20275
865.217	20252
865.349	20138
865.48	20301
865.612	20214
865.743	20275
865.875	20138
866.006	20161
866.137	20244
866.269	20199
866.4	20065
866.531	20142
866.662	20176
866.793	20149
866.924	20267
867.055	20221
867.186	20336
867.317	20149
867.448	20176
867.579	19997
867.71	20020
867.841	20161
867.972	20206
868.103	20138
868.233	20259
868.364	20191
868.495	20332
868.625	20278
868.756	20488
868.886	20324
869.017	20408
869.147	20492
869.278	20511
869.408	20511
869.539	20400
869.669	20518
869.799	20564
869.929	20556
870.06	20518
870.19	20686
870.32	20746
870.45	20804
870.58	20842
870.71	20918
870.84	20876
870.97	20602
871.1	20811
871.23	21020
871.36	20925
871.489	20864
871.619	20857
871.749	20971
871.879	21005
872.008	21070
872.138	21051
872.267	20918
872.397	20868
872.526	20773
872.656	20998
872.785	20834
872.915	21062
873.044	21055
873.173	21020
873.303	21017
873.432	21089
873.561	21135
873.69	21047
873.819	20952
873.948	21108
874.077	21066
874.206	20883
874.335	21131
874.464	21077
874.593	21211
874.722	21435
874.851	21154
874.979	21340
875.108	21420
875.237	21192
875.365	21176
875.494	21272
875.623	21321
875.751	21252
875.88	21344
876.008	21348
876.136	21534
876.265	21618
876.393	21804
876.521	21759
876.65	21663
876.778	21698
876.906	21580
877.034	21614
877.162	21614
877.29	21557
877.418	21603
877.546	21629
877.674	21724
877.802	21606
877.93	21644
878.058	21504
878.185	21424
878.313	21610
878.441	21583
878.568	21534
878.696	21515
878.824	21629
878.951	21652
879.079	21808
879.206	21941
879.333	21869
879.461	21599
879.588	21865
879.715	21846
879.842	21918
879.97	21766
880.097	21393
880.224	21424
880.351	21587
880.478	21435
880.605	21507
880.732	21325
880.859	21587
880.986	21477
881.112	21458
881.239	21310
881.366	21150
881.493	21195
881.619	21032
881.746	21043
881.872	21070
881.999	21039
882.125	21024
882.252	21077
882.378	21062
882.505	21161
882.631	20918
882.757	20697
882.883	20948
883.01	20765
883.136	20876
883.262	20674
883.388	20587
883.514	20800
883.64	20674
883.766	20731
883.892	20488
884.018	20594
884.143	20701
884.269	20705
884.395	20522
884.52	20400
884.646	20533
884.772	20427
884.897	20446
885.023	20404
885.148	20560
885.274	20533
885.399	20442
885.524	20393
885.65	20389
885.775	20480
885.9	20385
886.025	20560
886.15	20511
886.275	20336
886.4	20446
886.525	20442
886.65	20366
886.775	20301
886.9	20503
887.025	20648
887.149	20381
887.274	20256
887.399	20065
887.523	20305
887.648	20062
887.773	20134
887.897	20172
888.021	20298
888.146	20183
888.27	20225
888.395	20366
888.519	20282
888.643	20263
888.767	20275
888.891	20202
889.015	20122
889.139	20221
889.263	20001
889.387	20115
889.511	20096
889.635	20149
889.759	20043
889.883	19974
890.006	20008
890.13	20149
890.254	19917
890.377	19925
890.501	19841
890.624	19780
890.748	19860
890.871	19746
890.995	19548
891.118	19582
891.241	19799
891.364	19635
891.488	19826
891.611	19597
891.734	19704
891.857	19597
891.98	19575
892.103	19700
892.226	19582
892.349	19525
892.471	19487
892.594	19510
892.717	19533
892.839	19460
892.962	19529
893.085	19620
893.207	19392
893.33	19339
893.452	19506
893.575	19552
893.697	19453
893.819	19670
893.941	19689
894.064	19628
894.186	19472
894.308	19445
894.43	19449
894.552	19746
894.674	19590
894.796	19434
894.918	19651
895.04	19491
895.161	19483
895.283	19552
895.405	19548
895.526	19510
895.648	19502
895.769	19559
895.891	19552
896.012	19723
896.134	19655
896.255	19578
896.376	19464
896.498	19491
896.619	19480
896.74	19533
896.861	19521
896.982	19818
897.103	19959
897.224	19769
897.345	19723
897.466	19677
897.587	19814
897.708	19833
897.828	19814
897.949	19651
898.07	19460
898.19	19628
898.311	19826
898.431	19662
898.552	19765
898.672	19875
898.792	19765
898.913	19582
899.033	19723
899.153	19529
899.273	19533
899.393	19510
899.513	19594
899.633	19460
899.753	19514
899.873	19499
899.993	19559
900.113	19460
900.232	19571
900.352	19373
900.472	19343
900.591	19362
900.711	19244
900.83	19198
900.95	19362
901.069	19304
901.189	19213
901.308	18951
901.427	18745
901.546	18859
901.665	19027
901.784	18901
901.904	18711
902.023	18555
902.141	18578
902.26	18323
902.379	18486
902.498	18308
902.617	18399
902.735	18311
902.854	18361
902.973	18338
903.091	18022
903.21	18133
903.328	18121
903.446	18041
903.565	17916
903.683	17874
903.801	17836
903.919	17843
904.038	17847
904.156	17573
904.274	17703
904.392	17668
904.51	17642
904.627	17619
904.745	17630
904.863	17695
904.981	17573
905.098	17372
905.216	17406
905.334	17326
905.451	17265
905.569	17239
905.686	17372
905.803	17288
905.921	17124
906.038	17216
906.155	17121
906.272	17022
906.389	17083
906.506	16858
906.623	16911
906.74	16957
906.857	16904
906.974	16675
907.091	16972
907.208	16968
907.324	16999
907.441	16824
907.557	16679
907.674	16519
907.79	16592
907.907	16478
908.023	16687
908.139	16580
908.256	16523
908.372	16405
908.488	16424
908.604	16360
908.72	16360
908.836	16325
908.952	16265
909.068	16276
909.184	16523
909.3	16333
909.415	16238
909.531	16325
909.647	16029
909.762	16055
909.878	15945
909.993	16044
910.108	15972
910.224	16063
910.339	16101
910.454	15907
910.57	15850
910.685	15724
910.8	16185
910.915	15960
911.03	15816
911.145	15686
911.259	15610
911.374	15629
911.489	15568
911.604	15473
911.718	15412
911.833	15477
911.947	15336
912.062	15302
912.176	15462
912.291	15454
912.405	15542
912.519	15717
912.633	15568
912.748	15351
912.862	15283
912.976	15233
913.09	15127
913.204	15108
913.318	15154
913.431	15176
913.545	15298
913.659	15302
913.772	15176
913.886	15036
914	15116
914.113	15051
914.226	15131
914.34	15085
914.453	14941
914.566	15047
914.68	14944
914.793	14906
914.906	14701
915.019	14537
915.132	14640
915.245	14613
915.358	14648
915.47	14667
915.583	14632
915.696	14667
915.809	14819
915.921	14826
916.034	14594
916.146	14602
916.259	14473
916.371	14518
916.483	14735
916.595	14549
916.708	14571
916.82	14537
916.932	14533
917.044	14514
917.156	14366
917.268	14237
917.38	14370
917.491	14256
917.603	14305
917.715	14389
917.826	14393
917.938	14244
918.049	14100
918.161	14336
918.272	14423
918.384	14408
918.495	14225
918.606	14024
918.717	14005
918.828	14164
918.939	14142
919.05	13951
919.161	14073
919.272	13970
919.383	13989
919.494	14096
919.604	14229
919.715	14123
919.826	13974
919.936	14088
920.047	14142
920.157	14050
920.267	14191
920.378	14100
920.488	14035
920.598	14259
920.708	14370
920.818	14157
920.928	14176
921.038	14199
921.148	14282
921.258	13970
921.368	13860
921.477	13791
921.587	13795
921.697	13632
921.806	13856
921.916	13628
922.025	13430
922.134	13571
922.244	13495
922.353	13502
922.462	13407
922.571	13278
922.68	13031
922.789	13091
922.898	13198
923.007	13088
923.116	13061
923.224	13099
923.333	13031
923.442	12989
923.55	12970
923.659	12913
923.767	13004
923.876	12897
923.984	12890
924.092	12878
924.201	12806
924.309	12901
924.417	12859
924.525	12730
924.633	12833
924.741	13616
924.849	12582
924.956	12650
925.064	12597
925.172	12532
925.279	12498
925.387	12559
925.494	12486
925.602	12665
925.709	12566
925.816	12479
925.924	12464
926.031	12589
926.138	12578
926.245	12517
926.352	12410
926.459	12532
926.566	12604
926.673	12346
926.779	12388
926.886	12277
926.993	12133
927.099	12194
927.206	12079
927.312	12079
927.419	12239
927.525	12106
927.631	12087
927.737	12049
927.843	11992
927.95	11908
928.056	11904
928.162	12026
928.267	12022
928.373	12673
928.479	12038
928.585	11764
928.69	11908
928.796	12034
928.901	11824
929.007	11649
929.112	11794
929.218	11836
929.323	11665
929.428	11668
929.533	11847
929.638	11604
929.743	11627
929.848	11691
929.953	11634
930.058	11520
930.163	11376
930.267	11349
930.372	11512
930.477	11383
930.581	11505
930.685	11387
930.79	11277
930.894	11356
930.998	11261
931.103	11330
931.207	11102
931.311	10991
931.415	10923
931.519	10714
931.623	10656
