Data from test_V78500241_778.txt Node
Date: Fri Mar 25 15:15:16 CST 2022
User: usil
Spectrometer: V785-0024
Trigger mode: 0
Integration Time (sec): 4.000000E-1
Scans to average: 1
Nonlinearity correction enabled: false
Boxcar width: 0
Storing dark spectrum: false
XAxis mode: Wavelengths
Number of Pixels in Spectrum: 1024
>>>>>Begin Spectral Data<<<<<
801.071	28226
801.214	28249
801.356	27972
801.499	27991
801.641	27838
801.783	27823
801.926	27888
802.068	27850
802.211	27618
802.353	27682
802.496	27576
802.638	27526
802.78	27485
802.923	27454
803.065	27405
803.208	27397
803.35	27580
803.492	27610
803.635	27561
803.777	27625
803.919	27694
804.061	28006
804.204	27701
804.346	27747
804.488	27652
804.63	27724
804.773	27625
804.915	27770
805.057	27827
805.199	27614
805.341	27759
805.483	27816
805.626	27816
805.768	27774
805.91	27732
806.052	27720
806.194	27679
806.336	27937
806.478	27854
806.62	27831
806.762	28051
806.904	28101
807.046	28211
807.188	28169
807.33	28257
807.472	28223
807.614	28204
807.756	28112
807.898	28242
808.04	27991
808.182	28154
808.324	28154
808.465	28196
808.607	28344
808.749	28538
808.891	28497
809.033	28710
809.174	28527
809.316	28512
809.458	28504
809.6	28516
809.741	28774
809.883	28664
810.025	28805
810.166	28801
810.308	28953
810.45	28847
810.591	28523
810.733	28557
810.875	28417
811.016	28424
811.158	28428
811.299	28706
811.441	28554
811.582	28546
811.724	28519
811.865	28474
812.007	28512
812.148	28470
812.29	28550
812.431	28763
812.573	28953
812.714	28984
812.855	29189
812.997	29174
813.138	29345
813.279	29174
813.421	29025
813.562	29071
813.703	28942
813.845	28797
813.986	28386
814.127	28325
814.268	28223
814.41	28322
814.551	28344
814.692	28238
814.833	28253
814.974	28055
815.115	28234
815.256	28166
815.397	28204
815.539	28131
815.68	28131
815.821	27899
815.962	28010
816.103	27907
816.244	27937
816.385	28040
816.526	27774
816.666	27614
816.807	27454
816.948	27542
817.089	27549
817.23	27618
817.371	27625
817.512	27724
817.653	27591
817.793	27599
817.934	27538
818.075	27610
818.216	27500
818.356	27511
818.497	27427
818.638	27279
818.778	27260
818.919	27211
819.06	27321
819.2	27458
819.341	27526
819.481	27443
819.622	27606
819.762	27972
819.903	27785
820.043	27671
820.184	27667
820.324	27705
820.465	27854
820.605	27682
820.746	27591
820.886	27534
821.026	27603
821.167	27690
821.307	27610
821.447	27606
821.588	27462
821.728	27169
821.868	27085
822.008	27032
822.149	27085
822.289	26902
822.429	26678
822.569	26796
822.709	26655
822.849	26571
822.99	26617
823.13	26404
823.27	26339
823.41	26237
823.55	26111
823.69	26282
823.83	26355
823.97	26317
824.11	26088
824.25	25940
824.389	26233
824.529	26183
824.669	26134
824.809	26183
824.949	26320
825.089	26248
825.228	26142
825.368	26031
825.508	26001
825.648	26005
825.787	26111
825.927	26012
826.067	25947
826.206	25986
826.346	26115
826.485	26054
826.625	26077
826.765	26062
826.904	26005
827.044	25856
827.183	25750
827.323	25685
827.462	25761
827.601	25818
827.741	25685
827.88	25780
828.02	25677
828.159	25666
828.298	25655
828.437	25700
828.577	25696
828.716	25791
828.855	25632
828.994	25460
829.134	25491
829.273	25449
829.412	25578
829.551	25365
829.69	25457
829.829	25476
829.968	25525
830.107	25518
830.246	25419
830.385	25422
830.524	25316
830.663	25289
830.802	25084
830.941	25099
831.08	25050
831.219	25126
831.357	25084
831.496	25304
831.635	24935
831.774	24939
831.913	25012
832.051	24776
832.19	24745
832.329	24886
832.467	24817
832.606	24730
832.744	24734
832.883	24661
833.022	24711
833.16	24787
833.299	24715
833.437	24787
833.576	24848
833.714	24791
833.852	24825
833.991	24871
834.129	24882
834.267	24905
834.406	24783
834.544	24806
834.682	24829
834.821	24650
834.959	24901
835.097	24848
835.235	24753
835.373	24768
835.511	24673
835.65	24627
835.788	24551
835.926	24456
836.064	24300
836.202	24528
836.34	24608
836.478	24730
836.615	24452
836.753	24631
836.891	24612
837.029	24673
837.167	24452
837.305	24536
837.443	24418
837.58	24361
837.718	24429
837.856	24502
837.993	24479
838.131	24395
838.269	24273
838.406	24418
838.544	24262
838.681	24190
838.819	24083
838.956	23980
839.094	23870
839.231	24007
839.369	24060
839.506	24277
839.643	24102
839.781	24018
839.918	23874
840.055	23901
840.193	23798
840.33	23832
840.467	23840
840.604	23756
840.742	24076
840.879	23699
841.016	23783
841.153	23718
841.29	23920
841.427	23775
841.564	23741
841.701	23786
841.838	23779
841.975	23703
842.112	23707
842.249	23695
842.385	23642
842.522	23726
842.659	23619
842.796	23554
842.933	23562
843.069	23440
843.206	23615
843.343	23684
843.479	23608
843.616	23463
843.752	23261
843.889	23334
844.025	23520
844.162	23288
844.298	23330
844.435	23315
844.571	23216
844.708	23250
844.844	23566
844.98	23497
845.117	23482
845.253	23353
845.389	23193
845.525	23273
845.661	23056
845.798	23056
845.934	23239
846.07	23098
846.206	23105
846.342	23155
846.478	23060
846.614	22824
846.75	22717
846.886	22767
847.022	22812
847.158	22820
847.294	22797
847.429	22767
847.565	22736
847.701	22976
847.837	22607
847.972	22493
848.108	22607
848.244	22561
848.379	22504
848.515	22314
848.65	22280
848.786	22451
848.921	22379
849.057	22527
849.192	22535
849.328	22481
849.463	22325
849.598	22360
849.734	22379
849.869	22371
850.004	22226
850.14	22188
850.275	22185
850.41	22238
850.545	22082
850.68	22234
850.815	22158
850.95	22181
851.085	22337
851.22	22276
851.355	22040
851.49	22173
851.625	22246
851.76	22040
851.895	21987
852.03	22093
852.165	22272
852.299	22093
852.434	22287
852.569	22192
852.703	22185
852.838	22185
852.973	22226
853.107	22318
853.242	22257
853.376	22040
853.511	21911
853.645	21808
853.78	22116
853.914	22021
854.048	21922
854.183	21972
854.317	21975
854.451	22150
854.585	21994
854.72	21953
854.854	21937
854.988	21812
855.122	21930
855.256	22025
855.39	21907
855.524	21968
855.658	21991
855.792	22029
855.926	22044
856.06	22029
856.194	22120
856.327	21838
856.461	21812
856.595	21911
856.729	21983
856.862	22124
856.996	22017
857.13	22048
857.263	22131
857.397	22021
857.53	21846
857.664	22059
857.797	22021
857.931	22021
858.064	21903
858.197	22070
858.331	22021
858.464	21972
858.597	21915
858.731	22002
858.864	21781
858.997	21842
859.13	21911
859.263	22097
859.396	22078
859.529	21941
859.662	21865
859.795	22017
859.928	21873
860.061	22086
860.194	22154
860.327	22097
860.46	21956
860.592	22070
860.725	22272
860.858	21972
860.99	21968
861.123	21861
861.256	21899
861.388	21998
861.521	22687
861.653	21838
861.786	21751
861.918	21717
862.05	21850
862.183	21850
862.315	21979
862.447	21926
862.58	21857
862.712	21774
862.844	21633
862.976	21568
863.108	21656
863.24	22131
863.372	21599
863.504	21800
863.636	21675
863.768	21622
863.9	21599
864.032	21625
864.164	21603
864.296	21759
864.428	21774
864.559	21671
864.691	21705
864.823	21720
864.954	21694
865.086	21606
865.217	21523
865.349	21580
865.48	21641
865.612	21549
865.743	21679
865.875	21549
866.006	21523
866.137	21507
866.269	21583
866.4	21500
866.531	21500
866.662	21355
866.793	21424
866.924	21458
867.055	21515
867.186	21507
867.317	21416
867.448	21412
867.579	21370
867.71	21428
867.841	21306
867.972	21477
868.103	21435
868.233	21431
868.364	21534
868.495	21443
868.625	21724
868.756	21819
868.886	21690
869.017	21743
869.147	21808
869.278	21895
869.408	21644
869.539	21842
869.669	21785
869.799	21835
869.929	21857
870.06	21934
870.19	21926
870.32	22090
870.45	22036
870.58	22109
870.71	22162
870.84	22314
870.97	22059
871.1	21983
871.23	22303
871.36	22386
871.489	22238
871.619	22257
871.749	22207
871.879	22291
872.008	22310
872.138	22291
872.267	22268
872.397	22223
872.526	22013
872.656	22097
872.785	22040
872.915	22363
873.044	22417
873.173	22287
873.303	22367
873.432	22459
873.561	22478
873.69	22287
873.819	22291
873.948	22455
874.077	22204
874.206	22223
874.335	22322
874.464	22367
874.593	22554
874.722	22424
874.851	22550
874.979	22516
875.108	22588
875.237	22390
875.365	22390
875.494	22531
875.623	22641
875.751	22554
875.88	22687
876.008	22607
876.136	22778
876.265	22831
876.393	23022
876.521	23064
876.65	22987
876.778	22816
876.906	22908
877.034	22850
877.162	22858
877.29	22854
877.418	22923
877.546	22843
877.674	22877
877.802	22793
877.93	22889
878.058	22919
878.185	22713
878.313	22885
878.441	22683
878.568	22759
878.696	22812
878.824	22820
878.951	22976
879.079	23056
879.206	23128
879.333	23132
879.461	22938
879.588	22938
879.715	22915
879.842	23143
879.97	23067
880.097	22744
880.224	22607
880.351	22645
880.478	22725
880.605	22626
880.732	22656
880.859	22869
880.986	22752
881.112	22736
881.239	22527
881.366	22497
881.493	22382
881.619	22303
881.746	22322
881.872	22276
881.999	22192
882.125	22162
882.252	22333
882.378	22135
882.505	22325
882.631	22093
882.757	22059
882.883	22120
883.01	22013
883.136	21930
883.262	21736
883.388	21770
883.514	21960
883.64	21823
883.766	21903
883.892	21637
884.018	21762
884.143	21937
884.269	21964
884.395	21660
884.52	21572
884.646	21667
884.772	21564
884.897	21496
885.023	21580
885.148	21682
885.274	21774
885.399	21682
885.524	21618
885.65	21641
885.775	21648
885.9	21603
886.025	21580
886.15	21686
886.275	21545
886.4	21397
886.525	21580
886.65	21424
886.775	21545
886.9	21591
887.025	21747
887.149	21564
887.274	21439
887.399	21393
887.523	21272
887.648	21188
887.773	21199
887.897	21374
888.021	21389
888.146	21218
888.27	21485
888.395	21359
888.519	21405
888.643	21382
888.767	21363
888.891	21306
889.015	21154
889.139	21252
889.263	21165
889.387	21283
889.511	21386
889.635	21298
889.759	21184
889.883	20960
890.006	21245
890.13	21199
890.254	21089
890.377	21066
890.501	20895
890.624	20906
890.748	20868
890.871	20800
890.995	20663
891.118	20670
891.241	20625
891.364	20815
891.488	20716
891.611	20674
891.734	20708
891.857	20781
891.98	20594
892.103	20731
892.226	20750
892.349	20549
892.471	20571
892.594	20640
892.717	20636
892.839	20522
892.962	20674
893.085	20731
893.207	20606
893.33	20488
893.452	20454
893.575	20590
893.697	20636
893.819	20804
893.941	20804
894.064	20701
894.186	20552
894.308	20560
894.43	20590
894.552	20765
894.674	20648
894.796	20461
894.918	20530
895.04	20511
895.161	20670
895.283	20568
895.405	20560
895.526	20530
895.648	20583
895.769	20507
895.891	20568
896.012	20636
896.134	20606
896.255	20602
896.376	20480
896.498	20511
896.619	20606
896.74	20575
896.861	20674
896.982	20883
897.103	21047
897.224	20891
897.345	20815
897.466	20678
897.587	20807
897.708	20921
897.828	20948
897.949	20686
898.07	20621
898.19	20785
898.311	20796
898.431	20670
898.552	20765
898.672	20857
898.792	20902
898.913	20743
899.033	20659
899.153	20556
899.273	20484
899.393	20438
899.513	20442
899.633	20499
899.753	20609
899.873	20431
899.993	20533
900.113	20461
900.232	20457
900.352	20549
900.472	20290
900.591	20305
900.711	20267
900.83	20206
900.95	20454
901.069	20362
901.189	20172
901.308	20012
901.427	19936
901.546	19875
901.665	19833
901.784	19826
901.904	19822
902.023	19647
902.141	19616
902.26	19415
902.379	19438
902.498	19339
902.617	19400
902.735	19449
902.854	19373
902.973	19324
903.091	19126
903.21	18989
903.328	19072
903.446	18852
903.565	18894
903.683	18878
903.801	18779
903.919	18821
904.038	18760
904.156	18620
904.274	18692
904.392	18631
904.51	18486
904.627	18661
904.745	18646
904.863	18604
904.981	18410
905.098	18323
905.216	18346
905.334	18285
905.451	18304
905.569	18327
905.686	18334
905.803	18254
905.921	18022
906.038	18133
906.155	17961
906.272	17973
906.389	18110
906.506	17893
906.623	17832
906.74	17866
906.857	17687
906.974	17623
907.091	17885
907.208	17817
907.324	17859
907.441	17695
907.557	17592
907.674	17596
907.79	17490
907.907	17497
908.023	17505
908.139	17562
908.256	17524
908.372	17421
908.488	17391
908.604	17246
908.72	17174
908.836	17326
908.952	17143
909.068	17341
909.184	17341
909.3	17239
909.415	17273
909.531	17197
909.647	17067
909.762	16923
909.878	17010
909.993	16965
910.108	16999
910.224	16991
910.339	16946
910.454	16778
910.57	16828
910.685	16691
910.8	16934
910.915	16915
911.03	16725
911.145	16664
911.259	16535
911.374	16573
911.489	16489
911.604	16405
911.718	16280
911.833	16375
911.947	16192
912.062	16071
912.176	16253
912.291	16303
912.405	16219
912.519	16474
912.633	16382
912.748	16154
912.862	16158
912.976	16169
913.09	16071
913.204	15979
913.318	16112
913.431	16128
913.545	16185
913.659	16173
913.772	15953
913.886	15964
914	16021
914.113	15934
914.226	15979
914.34	15983
914.453	15857
914.566	16002
914.68	15720
914.793	15762
914.906	15542
915.019	15545
915.132	15462
915.245	15435
915.358	15515
915.47	15504
915.583	15435
915.696	15519
915.809	15633
915.921	15675
916.034	15485
916.146	15405
916.259	15397
916.371	15500
916.483	15370
916.595	15348
916.708	15332
916.82	15294
916.932	15176
917.044	15211
917.156	15260
917.268	15028
917.38	15123
917.491	15112
917.603	15176
917.715	15249
917.826	15184
917.938	15058
918.049	15028
918.161	15058
918.272	15256
918.384	15230
918.495	15100
918.606	14857
918.717	14811
918.828	14880
918.939	14880
919.05	14861
919.161	14807
919.272	14705
919.383	14720
919.494	14902
919.604	15024
919.715	14902
919.826	14739
919.936	14952
920.047	14765
920.157	14830
920.267	15005
920.378	14937
920.488	14743
920.598	14979
920.708	15157
920.818	14990
920.928	14971
921.038	15131
921.148	15039
921.258	14819
921.368	14594
921.477	14579
921.587	14484
921.697	14362
921.806	14564
921.916	14484
922.025	14237
922.134	14248
922.244	14248
922.353	14282
922.462	14157
922.571	13974
922.68	13769
922.789	13811
922.898	13837
923.007	13765
923.116	13940
923.224	13856
923.333	13780
923.442	13712
923.55	13590
923.659	13677
923.767	13693
923.876	13582
923.984	13655
924.092	13590
924.201	13666
924.309	13597
924.417	13616
924.525	13521
924.633	13552
924.741	14214
924.849	13270
924.956	13384
925.064	13308
925.172	13221
925.279	13221
925.387	13282
925.494	13274
925.602	13266
925.709	13346
925.816	13118
925.924	13198
926.031	13255
926.138	13160
926.245	13213
926.352	13088
926.459	13244
926.566	13266
926.673	13072
926.779	12966
926.886	12913
926.993	12833
927.099	12791
927.206	12745
927.312	12719
927.419	12852
927.525	12768
927.631	12791
927.737	12703
927.843	12559
927.95	12471
928.056	12559
928.162	12654
928.267	12616
928.373	13285
928.479	12719
928.585	12418
928.69	12555
928.796	12627
928.901	12410
929.007	12334
929.112	12456
929.218	12429
929.323	12399
929.428	12311
929.533	12464
929.638	12224
929.743	12281
929.848	12357
929.953	12235
930.058	12171
930.163	11961
930.267	12045
930.372	12125
930.477	11988
930.581	12140
930.685	11988
930.79	11973
930.894	11912
930.998	11832
931.103	11999
931.207	11592
931.311	11558
931.415	11490
931.519	11353
931.623	11311
