Data from test_V78500241_1389.txt Node
Date: Fri Mar 25 15:19:31 CST 2022
User: usil
Spectrometer: V785-0024
Trigger mode: 0
Integration Time (sec): 4.000000E-1
Scans to average: 1
Nonlinearity correction enabled: false
Boxcar width: 0
Storing dark spectrum: false
XAxis mode: Wavelengths
Number of Pixels in Spectrum: 1024
>>>>>Begin Spectral Data<<<<<
801.071	28249
801.214	28265
801.356	27964
801.499	27991
801.641	27739
801.783	27682
801.926	27812
802.068	27937
802.211	27713
802.353	27671
802.496	27431
802.638	27564
802.78	27447
802.923	27325
803.065	27344
803.208	27416
803.35	27477
803.492	27568
803.635	27644
803.777	27515
803.919	27694
804.061	28025
804.204	27717
804.346	27663
804.488	27583
804.63	27720
804.773	27580
804.915	27739
805.057	27823
805.199	27580
805.341	27789
805.483	27785
805.626	27713
805.768	27694
805.91	27785
806.052	27755
806.194	27736
806.336	27793
806.478	27876
806.62	27850
806.762	27857
806.904	28143
807.046	28306
807.188	28268
807.33	28116
807.472	28306
807.614	28188
807.756	28257
807.898	28169
808.04	28082
808.182	28029
808.324	27994
808.465	28139
808.607	28367
808.749	28569
808.891	28481
809.033	28557
809.174	28504
809.316	28398
809.458	28493
809.6	28432
809.741	28455
809.883	28645
810.025	28725
810.166	28767
810.308	28694
810.45	28634
810.591	28713
810.733	28615
810.875	28325
811.016	28500
811.158	28394
811.299	28634
811.441	28584
811.582	28664
811.724	28485
811.865	28428
812.007	28440
812.148	28474
812.29	28577
812.431	28626
812.573	28965
812.714	28938
812.855	29105
812.997	29056
813.138	29147
813.279	29052
813.421	28896
813.562	29143
813.703	28957
813.845	28744
813.986	28447
814.127	28200
814.268	28192
814.41	28128
814.551	28219
814.692	28249
814.833	28044
814.974	28116
815.115	28207
815.256	28055
815.397	28112
815.539	28105
815.68	27937
815.821	27831
815.962	27968
816.103	28013
816.244	27846
816.385	27812
816.526	27781
816.666	27629
816.807	27549
816.948	27545
817.089	27603
817.23	27557
817.371	27504
817.512	27633
817.653	27466
817.793	27378
817.934	27420
818.075	27481
818.216	27492
818.356	27439
818.497	27298
818.638	27291
818.778	27070
818.919	27306
819.06	27302
819.2	27226
819.341	27462
819.481	27561
819.622	27671
819.762	27861
819.903	27827
820.043	27694
820.184	27641
820.324	27671
820.465	27709
820.605	27511
820.746	27637
820.886	27485
821.026	27458
821.167	27561
821.307	27591
821.447	27504
821.588	27317
821.728	27378
821.868	27104
822.008	26895
822.149	26876
822.289	27001
822.429	26712
822.569	26724
822.709	26598
822.849	26453
822.99	26438
823.13	26511
823.27	26332
823.41	26214
823.55	26263
823.69	26298
823.83	26358
823.97	26195
824.11	26138
824.25	25959
824.389	26199
824.529	26134
824.669	26206
824.809	26240
824.949	26320
825.089	26252
825.228	26138
825.368	26001
825.508	25936
825.648	25993
825.787	26134
825.927	25902
826.067	25879
826.206	25849
826.346	26149
826.485	25997
826.625	26050
826.765	26039
826.904	25947
827.044	25704
827.183	25753
827.323	25563
827.462	25807
827.601	25727
827.741	25582
827.88	25693
828.02	25518
828.159	25677
828.298	25578
828.437	25666
828.577	25624
828.716	25689
828.855	25666
828.994	25339
829.134	25384
829.273	25419
829.412	25563
829.551	25225
829.69	25400
829.829	25472
829.968	25502
830.107	25369
830.246	25335
830.385	25422
830.524	25175
830.663	25145
830.802	25221
830.941	25122
831.08	24928
831.219	24878
831.357	25042
831.496	25107
831.635	24992
831.774	24890
831.913	24833
832.051	24741
832.19	24722
832.329	24837
832.467	24738
832.606	24612
832.744	24563
832.883	24601
833.022	24589
833.16	24585
833.299	24665
833.437	24620
833.576	24768
833.714	24760
833.852	24719
833.991	24722
834.129	24802
834.267	24779
834.406	24741
834.544	24760
834.682	24642
834.821	24604
834.959	24848
835.097	24627
835.235	24734
835.373	24658
835.511	24738
835.65	24563
835.788	24494
835.926	24544
836.064	24197
836.202	24494
836.34	24525
836.478	24753
836.615	24585
836.753	24589
836.891	24654
837.029	24532
837.167	24528
837.305	24407
837.443	24456
837.58	24289
837.718	24544
837.856	24319
837.993	24384
838.131	24304
838.269	24285
838.406	24174
838.544	24308
838.681	24038
838.819	24049
838.956	23771
839.094	23828
839.231	23824
839.369	23950
839.506	24254
839.643	23988
839.781	23699
839.918	23889
840.055	23836
840.193	23729
840.33	23786
840.467	23699
840.604	23741
840.742	23950
840.879	23623
841.016	23745
841.153	23566
841.29	23813
841.427	23760
841.564	23703
841.701	23642
841.838	23802
841.975	23547
842.112	23623
842.249	23611
842.385	23516
842.522	23619
842.659	23535
842.796	23547
842.933	23448
843.069	23474
843.206	23406
843.343	23623
843.479	23509
843.616	23486
843.752	23322
843.889	23349
844.025	23455
844.162	23223
844.298	23421
844.435	23330
844.571	23147
844.708	23364
844.844	23414
844.98	23463
845.117	23448
845.253	23337
845.389	23151
845.525	23273
845.661	23140
845.798	22976
845.934	23147
846.07	23086
846.206	23067
846.342	23083
846.478	22896
846.614	22717
846.75	22752
846.886	22694
847.022	22797
847.158	22721
847.294	22717
847.429	22774
847.565	22660
847.701	22934
847.837	22519
847.972	22405
848.108	22603
848.244	22519
848.379	22493
848.515	22306
848.65	22310
848.786	22295
848.921	22379
849.057	22379
849.192	22329
849.328	22432
849.463	22337
849.598	22287
849.734	22249
849.869	22086
850.004	22074
850.14	22169
850.275	22143
850.41	21956
850.545	22036
850.68	22139
850.815	22097
850.95	22105
851.085	22181
851.22	22226
851.355	22116
851.49	22090
851.625	22097
851.76	21983
851.895	21949
852.03	21991
852.165	22082
852.299	22131
852.434	22158
852.569	22097
852.703	22135
852.838	22086
852.973	22215
853.107	22200
853.242	22029
853.376	22006
853.511	21774
853.645	21835
853.78	22063
853.914	21926
854.048	21797
854.183	21770
854.317	21972
854.451	22131
854.585	21918
854.72	21899
854.854	21979
854.988	21694
855.122	21960
855.256	21747
855.39	21804
855.524	21835
855.658	21972
855.792	21800
855.926	21953
856.06	21983
856.194	21907
856.327	21873
856.461	21895
856.595	21994
856.729	21785
856.862	21892
856.996	21842
857.13	21918
857.263	21907
857.397	22021
857.53	21838
857.664	21960
857.797	21930
857.931	22006
858.064	21941
858.197	21918
858.331	21945
858.464	21797
858.597	21739
858.731	21823
858.864	21880
858.997	21800
859.13	21888
859.263	21880
859.396	21922
859.529	21869
859.662	21789
859.795	21998
859.928	21838
860.061	22040
860.194	22082
860.327	22006
860.46	21994
860.592	21899
860.725	21987
860.858	21930
860.99	21968
861.123	21842
861.256	21812
861.388	21918
861.521	22481
861.653	21751
861.786	21595
861.918	21686
862.05	21797
862.183	21759
862.315	21743
862.447	21793
862.58	21869
862.712	21587
862.844	21610
862.976	21736
863.108	21618
863.24	21949
863.372	21549
863.504	21591
863.636	21625
863.768	21561
863.9	21606
864.032	21549
864.164	21583
864.296	21720
864.428	21808
864.559	21770
864.691	21644
864.823	21629
864.954	21477
865.086	21561
865.217	21534
865.349	21473
865.48	21496
865.612	21530
865.743	21652
865.875	21587
866.006	21481
866.137	21515
866.269	21526
866.4	21420
866.531	21355
866.662	21329
866.793	21428
866.924	21428
867.055	21408
867.186	21378
867.317	21454
867.448	21302
867.579	21260
867.71	21272
867.841	21408
867.972	21370
868.103	21386
868.233	21386
868.364	21447
868.495	21462
868.625	21625
868.756	21663
868.886	21534
869.017	21629
869.147	21557
869.278	21854
869.408	21644
869.539	21625
869.669	21728
869.799	21785
869.929	21766
870.06	21766
870.19	21854
870.32	21819
870.45	21968
870.58	21987
870.71	22139
870.84	22051
870.97	22040
871.1	21975
871.23	22234
871.36	22173
871.489	22181
871.619	22238
871.749	22238
871.879	22276
872.008	22314
872.138	22211
872.267	22238
872.397	22131
872.526	22067
872.656	22120
872.785	22101
872.915	22185
873.044	22314
873.173	22284
873.303	22219
873.432	22295
873.561	22333
873.69	22325
873.819	22272
873.948	22356
874.077	22287
874.206	22310
874.335	22276
874.464	22322
874.593	22523
874.722	22474
874.851	22527
874.979	22523
875.108	22561
875.237	22417
875.365	22337
875.494	22447
875.623	22428
875.751	22409
875.88	22554
876.008	22603
876.136	22599
876.265	22805
876.393	22980
876.521	22930
876.65	23014
876.778	22892
876.906	22923
877.034	22729
877.162	22866
877.29	22744
877.418	22839
877.546	22839
877.674	22812
877.802	22873
877.93	22797
878.058	22782
878.185	22664
878.313	22801
878.441	22831
878.568	22710
878.696	22793
878.824	22759
878.951	22881
879.079	23006
879.206	23132
879.333	22896
879.461	22778
879.588	22915
879.715	22999
879.842	23041
879.97	22904
880.097	22569
880.224	22637
880.351	22733
880.478	22565
880.605	22561
880.732	22672
880.859	22805
880.986	22596
881.112	22588
881.239	22493
881.366	22443
881.493	22352
881.619	22154
881.746	22333
881.872	22173
881.999	22150
882.125	22040
882.252	22101
882.378	22063
882.505	22280
882.631	21941
882.757	21926
882.883	22025
883.01	21907
883.136	21808
883.262	21789
883.388	21869
883.514	21972
883.64	22010
883.766	21892
883.892	21694
884.018	21682
884.143	21873
884.269	21895
884.395	21622
884.52	21488
884.646	21561
884.772	21469
884.897	21367
885.023	21416
885.148	21675
885.274	21732
885.399	21526
885.524	21614
885.65	21443
885.775	21614
885.9	21439
886.025	21553
886.15	21652
886.275	21412
886.4	21443
886.525	21496
886.65	21439
886.775	21435
886.9	21580
887.025	21622
887.149	21515
887.274	21344
887.399	21325
887.523	21355
887.648	21233
887.773	21245
887.897	21378
888.021	21275
888.146	21268
888.27	21420
888.395	21374
888.519	21252
888.643	21268
888.767	21287
888.891	21192
889.015	21066
889.139	21161
889.263	21135
889.387	21184
889.511	21214
889.635	21085
889.759	21100
889.883	20952
890.006	21108
890.13	21256
890.254	20986
890.377	21032
890.501	20937
890.624	20750
890.748	20708
890.871	20769
890.995	20617
891.118	20579
891.241	20762
891.364	20686
891.488	20762
891.611	20629
891.734	20648
891.857	20735
891.98	20651
892.103	20549
892.226	20609
892.349	20533
892.471	20461
892.594	20674
892.717	20522
892.839	20480
892.962	20537
893.085	20640
893.207	20629
893.33	20503
893.452	20457
893.575	20625
893.697	20434
893.819	20689
893.941	20701
894.064	20708
894.186	20358
894.308	20457
894.43	20667
894.552	20632
894.674	20678
894.796	20381
894.918	20579
895.04	20465
895.161	20579
895.283	20507
895.405	20533
895.526	20526
895.648	20434
895.769	20579
895.891	20590
896.012	20629
896.134	20579
896.255	20568
896.376	20484
896.498	20507
896.619	20499
896.74	20480
896.861	20446
896.982	20792
897.103	20769
897.224	20819
897.345	20773
897.466	20640
897.587	20826
897.708	20872
897.828	20735
897.949	20659
898.07	20465
898.19	20648
898.311	20735
898.431	20621
898.552	20644
898.672	20731
898.792	20746
898.913	20693
899.033	20621
899.153	20492
899.273	20579
899.393	20499
899.513	20621
899.633	20450
899.753	20480
899.873	20381
899.993	20499
900.113	20507
900.232	20370
900.352	20389
900.472	20324
900.591	20271
900.711	20206
900.83	20187
900.95	20271
901.069	20233
901.189	20096
901.308	19841
901.427	19803
901.546	19826
901.665	19795
901.784	19807
901.904	19822
902.023	19548
902.141	19445
902.26	19434
902.379	19480
902.498	19396
902.617	19289
902.735	19179
902.854	19270
902.973	19358
903.091	19069
903.21	19046
903.328	18859
903.446	18928
903.565	18821
903.683	18814
903.801	18646
903.919	18719
904.038	18623
904.156	18665
904.274	18677
904.392	18506
904.51	18544
904.627	18604
904.745	18608
904.863	18650
904.981	18388
905.098	18323
905.216	18220
905.334	18319
905.451	18216
905.569	18167
905.686	18159
905.803	18216
905.921	17950
906.038	18163
906.155	18083
906.272	17874
906.389	18011
906.506	17809
906.623	17824
906.74	17752
906.857	17608
906.974	17657
907.091	17737
907.208	17916
907.324	17840
907.441	17703
907.557	17600
907.674	17532
907.79	17299
907.907	17482
908.023	17391
908.139	17482
908.256	17288
908.372	17383
908.488	17315
908.604	17174
908.72	17147
908.836	17250
908.952	17151
909.068	17239
909.184	17239
909.3	17307
909.415	17159
909.531	17155
909.647	16942
909.762	16908
909.878	16869
909.993	16927
910.108	16850
910.224	16744
910.339	16812
910.454	16763
910.57	16561
910.685	16588
910.8	16873
910.915	16850
911.03	16774
911.145	16622
911.259	16367
911.374	16436
911.489	16428
911.604	16428
911.718	16291
911.833	16188
911.947	16101
912.062	16063
912.176	16204
912.291	16261
912.405	16188
912.519	16360
912.633	16478
912.748	16249
912.862	16131
912.976	16029
913.09	15953
913.204	15968
913.318	15979
913.431	16074
913.545	16048
913.659	16200
913.772	15983
913.886	15835
914	15785
914.113	15884
914.226	15892
914.34	15854
914.453	15873
914.566	15926
914.68	15686
914.793	15633
914.906	15443
915.019	15488
915.132	15393
915.245	15428
915.358	15348
915.47	15424
915.583	15473
915.696	15401
915.809	15572
915.921	15519
916.034	15344
916.146	15150
916.259	15283
916.371	15443
916.483	15317
916.595	15329
916.708	15310
916.82	15294
916.932	15214
917.044	15211
917.156	15138
917.268	15062
917.38	15062
917.491	15108
917.603	15077
917.715	15077
917.826	15127
917.938	14986
918.049	14853
918.161	15123
918.272	15138
918.384	15112
918.495	14963
918.606	14785
918.717	14853
918.828	14971
918.939	14811
919.05	14686
919.161	14830
919.272	14686
919.383	14678
919.494	14826
919.604	14952
919.715	14845
919.826	14678
919.936	14769
920.047	14785
920.157	14857
920.267	14971
920.378	14823
920.488	14731
920.598	14781
920.708	15013
920.818	14906
920.928	14864
921.038	15097
921.148	14998
921.258	14663
921.368	14648
921.477	14503
921.587	14545
921.697	14366
921.806	14507
921.916	14396
922.025	14142
922.134	14233
922.244	14065
922.353	14126
922.462	14046
922.571	13917
922.68	13849
922.789	13738
922.898	13811
923.007	13742
923.116	13864
923.224	13807
923.333	13731
923.442	13594
923.55	13628
923.659	13662
923.767	13685
923.876	13529
923.984	13567
924.092	13495
924.201	13636
924.309	13529
924.417	13480
924.525	13453
924.633	13457
924.741	14161
924.849	13232
924.956	13468
925.064	13206
925.172	13175
925.279	13228
925.387	13221
925.494	13225
925.602	13259
925.709	13282
925.816	13126
925.924	13129
926.031	13270
926.138	13069
926.245	13149
926.352	13050
926.459	13065
926.566	13129
926.673	13019
926.779	12901
926.886	12916
926.993	12749
927.099	12795
927.206	12669
927.312	12700
927.419	12730
927.525	12825
927.631	12814
927.737	12627
927.843	12620
927.95	12517
928.056	12578
928.162	12521
928.267	12673
928.373	13228
928.479	12658
928.585	12418
928.69	12525
928.796	12528
928.901	12467
929.007	12289
929.112	12448
929.218	12410
929.323	12323
929.428	12380
929.533	12448
929.638	12140
929.743	12235
929.848	12308
929.953	12220
930.058	12041
930.163	11908
930.267	11988
930.372	12087
930.477	11969
930.581	12209
930.685	11996
930.79	11832
930.894	11885
930.998	11756
931.103	11893
931.207	11600
931.311	11581
931.415	11455
931.519	11288
931.623	11181
