Data from test_V78500241_3522.txt Node
Date: Fri Mar 25 15:34:23 CST 2022
User: usil
Spectrometer: V785-0024
Trigger mode: 0
Integration Time (sec): 4.000000E-1
Scans to average: 1
Nonlinearity correction enabled: false
Boxcar width: 0
Storing dark spectrum: false
XAxis mode: Wavelengths
Number of Pixels in Spectrum: 1024
>>>>>Begin Spectral Data<<<<<
801.071	27507
801.214	27378
801.356	27169
801.499	27047
801.641	26940
801.783	27051
801.926	26880
802.068	26845
802.211	26861
802.353	26640
802.496	26629
802.638	26697
802.78	26644
802.923	26355
803.065	26484
803.208	26492
803.35	26552
803.492	26667
803.635	26716
803.777	26659
803.919	26804
804.061	27096
804.204	26804
804.346	26648
804.488	26503
804.63	26705
804.773	26716
804.915	26746
805.057	26765
805.199	26769
805.341	26746
805.483	26914
805.626	26918
805.768	26785
805.91	26842
806.052	26819
806.194	26781
806.336	27001
806.478	26765
806.62	26845
806.762	26883
806.904	26979
807.046	27325
807.188	27119
807.33	27355
807.472	27233
807.614	27199
807.756	27218
807.898	27188
808.04	26967
808.182	26986
808.324	27089
808.465	27020
808.607	27336
808.749	27534
808.891	27507
809.033	27572
809.174	27485
809.316	27420
809.458	27416
809.6	27374
809.741	27439
809.883	27572
810.025	27682
810.166	27622
810.308	27603
810.45	27720
810.591	27606
810.733	27431
810.875	27519
811.016	27450
811.158	27298
811.299	27580
811.441	27759
811.582	27412
811.724	27367
811.865	27485
812.007	27397
812.148	27473
812.29	27397
812.431	27591
812.573	27701
812.714	27739
812.855	28051
812.997	27850
813.138	28112
813.279	28128
813.421	27934
813.562	27941
813.703	27587
813.845	27629
813.986	27435
814.127	27096
814.268	27150
814.41	27070
814.551	27119
814.692	27116
814.833	27093
814.974	27150
815.115	27173
815.256	26948
815.397	27001
815.539	26952
815.68	26990
815.821	26891
815.962	26979
816.103	26815
816.244	26838
816.385	26720
816.526	26613
816.666	26503
816.807	26343
816.948	26431
817.089	26446
817.23	26385
817.371	26362
817.512	26427
817.653	26309
817.793	26256
817.934	26339
818.075	26286
818.216	26457
818.356	26339
818.497	26244
818.638	26062
818.778	26202
818.919	26172
819.06	26202
819.2	26214
819.341	26298
819.481	26298
819.622	26434
819.762	26701
819.903	26697
820.043	26568
820.184	26514
820.324	26351
820.465	26640
820.605	26564
820.746	26415
820.886	26366
821.026	26309
821.167	26328
821.307	26442
821.447	26377
821.588	26317
821.728	26134
821.868	26024
822.008	25913
822.149	25795
822.289	25879
822.429	25624
822.569	25430
822.709	25392
822.849	25460
822.99	25434
823.13	25358
823.27	25331
823.41	25312
823.55	25213
823.69	25183
823.83	25156
823.97	25110
824.11	25012
824.25	24939
824.389	24916
824.529	25156
824.669	24996
824.809	25110
824.949	25004
825.089	25023
825.228	25000
825.368	24753
825.508	24875
825.648	24711
825.787	24795
825.927	24989
826.067	24852
826.206	24753
826.346	24928
826.485	24829
826.625	24779
826.765	25008
826.904	24935
827.044	24669
827.183	24669
827.323	24593
827.462	24570
827.601	24639
827.741	24582
827.88	24646
828.02	24532
828.159	24585
828.298	24544
828.437	24505
828.577	24490
828.716	24623
828.855	24631
828.994	24369
829.134	24235
829.273	24300
829.412	24239
829.551	24289
829.69	24281
829.829	24311
829.968	24273
830.107	24365
830.246	24327
830.385	24330
830.524	24254
830.663	24197
830.802	24041
830.941	23961
831.08	23912
831.219	24018
831.357	23927
831.496	24148
831.635	23859
831.774	23817
831.913	23783
832.051	23748
832.19	23684
832.329	23695
832.467	23604
832.606	23531
832.744	23524
832.883	23551
833.022	23577
833.16	23638
833.299	23554
833.437	23630
833.576	23687
833.714	23866
833.852	23703
833.991	23657
834.129	23714
834.267	23707
834.406	23592
834.544	23707
834.682	23710
834.821	23649
834.959	23885
835.097	23516
835.235	23729
835.373	23608
835.511	23524
835.65	23543
835.788	23421
835.926	23398
836.064	23254
836.202	23303
836.34	23551
836.478	23509
836.615	23471
836.753	23459
836.891	23630
837.029	23490
837.167	23425
837.305	23433
837.443	23486
837.58	23307
837.718	23520
837.856	23273
837.993	23185
838.131	23360
838.269	23197
838.406	23299
838.544	23288
838.681	22972
838.819	22942
838.956	22812
839.094	22831
839.231	22793
839.369	22972
839.506	23166
839.643	23041
839.781	22831
839.918	22698
840.055	22824
840.193	22854
840.33	22713
840.467	22820
840.604	22843
840.742	22889
840.879	22550
841.016	22812
841.153	22573
841.29	22793
841.427	22793
841.564	22828
841.701	22706
841.838	22721
841.975	22713
842.112	22641
842.249	22447
842.385	22523
842.522	22797
842.659	22565
842.796	22592
842.933	22641
843.069	22504
843.206	22493
843.343	22683
843.479	22535
843.616	22424
843.752	22306
843.889	22432
844.025	22516
844.162	22356
844.298	22322
844.435	22318
844.571	22276
844.708	22333
844.844	22348
844.98	22303
845.117	22375
845.253	22143
845.389	22086
845.525	22249
845.661	22188
845.798	22044
845.934	22169
846.07	21922
846.206	22131
846.342	22082
846.478	21945
846.614	21861
846.75	21686
846.886	21838
847.022	21895
847.158	21793
847.294	21846
847.429	21701
847.565	21766
847.701	22021
847.837	21580
847.972	21447
848.108	21591
848.244	21606
848.379	21275
848.515	21237
848.65	21245
848.786	21348
848.921	21298
849.057	21378
849.192	21466
849.328	21367
849.463	21378
849.598	21348
849.734	21332
849.869	21203
850.004	21165
850.14	21142
850.275	21127
850.41	20944
850.545	21074
850.68	21096
850.815	21176
850.95	21123
851.085	21283
851.22	21211
851.355	21104
851.49	21119
851.625	21108
851.76	21119
851.895	20963
852.03	20853
852.165	21116
852.299	21226
852.434	21222
852.569	21199
852.703	21150
852.838	21207
852.973	21192
853.107	21142
853.242	21081
853.376	21032
853.511	20796
853.645	20819
853.78	21116
853.914	21085
854.048	20971
854.183	20944
854.317	21028
854.451	21039
854.585	20994
854.72	20910
854.854	21051
854.988	20952
855.122	20880
855.256	20895
855.39	20929
855.524	21028
855.658	20948
855.792	20906
855.926	20918
856.06	21089
856.194	21028
856.327	20921
856.461	20849
856.595	20952
856.729	20906
856.862	20941
856.996	20956
857.13	21013
857.263	20963
857.397	21043
857.53	20883
857.664	21036
857.797	21058
857.931	21085
858.064	20777
858.197	21116
858.331	20853
858.464	20914
858.597	20815
858.731	20933
858.864	21001
858.997	20830
859.13	20937
859.263	20956
859.396	21024
859.529	20883
859.662	20941
859.795	20902
859.928	20948
860.061	21070
860.194	21116
860.327	20963
860.46	20956
860.592	21043
860.725	21116
860.858	21062
860.99	20933
861.123	20826
861.256	20830
861.388	20975
861.521	21755
861.653	20670
861.786	20807
861.918	20785
862.05	20815
862.183	20853
862.315	20895
862.447	21001
862.58	20998
862.712	20640
862.844	20705
862.976	20773
863.108	20712
863.24	21142
863.372	20606
863.504	20621
863.636	20727
863.768	20716
863.9	20792
864.032	20590
864.164	20659
864.296	20689
864.428	20781
864.559	20716
864.691	20670
864.823	20731
864.954	20617
865.086	20590
865.217	20537
865.349	20518
865.48	20621
865.612	20556
865.743	20750
865.875	20564
866.006	20469
866.137	20560
866.269	20594
866.4	20556
866.531	20457
866.662	20492
866.793	20583
866.924	20393
867.055	20442
867.186	20499
867.317	20423
867.448	20362
867.579	20343
867.71	20457
867.841	20461
867.972	20469
868.103	20446
868.233	20549
868.364	20526
868.495	20568
868.625	20625
868.756	20754
868.886	20678
869.017	20731
869.147	20876
869.278	20872
869.408	20785
869.539	20739
869.669	20880
869.799	20739
869.929	20868
870.06	20785
870.19	21108
870.32	21001
870.45	21176
870.58	21077
870.71	21260
870.84	21340
870.97	21161
871.1	21214
871.23	21340
871.36	21401
871.489	21329
871.619	21370
871.749	21310
871.879	21450
872.008	21466
872.138	21477
872.267	21382
872.397	21252
872.526	21169
872.656	21173
872.785	21131
872.915	21431
873.044	21306
873.173	21428
873.303	21401
873.432	21408
873.561	21526
873.69	21348
873.819	21348
873.948	21386
874.077	21485
874.206	21260
874.335	21374
874.464	21549
874.593	21545
874.722	21603
874.851	21519
874.979	21709
875.108	21686
875.237	21549
875.365	21545
875.494	21534
875.623	21759
875.751	21671
875.88	21606
876.008	21778
876.136	21915
876.265	21983
876.393	22093
876.521	22154
876.65	22223
876.778	21937
876.906	21861
877.034	21964
877.162	21956
877.29	21956
877.418	22067
877.546	21899
877.674	21918
877.802	21945
877.93	21926
878.058	21823
878.185	21899
878.313	21915
878.441	22006
878.568	21751
878.696	21918
878.824	22036
878.951	21994
879.079	22177
879.206	22200
879.333	22185
879.461	22044
879.588	22112
879.715	22105
879.842	22238
879.97	21979
880.097	21759
880.224	21819
880.351	21835
880.478	21842
880.605	21755
880.732	21736
880.859	21926
880.986	21789
881.112	21869
881.239	21610
881.366	21477
881.493	21279
881.619	21374
881.746	21355
881.872	21378
881.999	21351
882.125	21313
882.252	21447
882.378	21298
882.505	21500
882.631	21165
882.757	21051
882.883	21169
883.01	21093
883.136	20933
883.262	21039
883.388	20921
883.514	21070
883.64	21161
883.766	20933
883.892	20906
884.018	20937
884.143	21020
884.269	21119
884.395	20754
884.52	20689
884.646	20731
884.772	20617
884.897	20606
885.023	20743
885.148	20708
885.274	20868
885.399	20845
885.524	20640
885.65	20746
885.775	20678
885.9	20716
886.025	20849
886.15	20765
886.275	20636
886.4	20659
886.525	20773
886.65	20629
886.775	20697
886.9	20883
887.025	20982
887.149	20629
887.274	20514
887.399	20480
887.523	20469
887.648	20385
887.773	20328
887.897	20511
888.021	20526
888.146	20480
888.27	20476
888.395	20552
888.519	20507
888.643	20625
888.767	20484
888.891	20396
889.015	20237
889.139	20351
889.263	20286
889.387	20332
889.511	20541
889.635	20305
889.759	20240
889.883	20278
890.006	20396
890.13	20438
890.254	20111
890.377	20199
890.501	20130
890.624	20035
890.748	20153
890.871	20027
890.995	19898
891.118	19788
891.241	19955
891.364	19860
891.488	19944
891.611	19890
891.734	19967
891.857	19849
891.98	19989
892.103	19864
892.226	19947
892.349	19818
892.471	19734
892.594	19780
892.717	19826
892.839	19761
892.962	19871
893.085	19776
893.207	19788
893.33	19567
893.452	19647
893.575	19841
893.697	19708
893.819	19902
893.941	19997
894.064	20001
894.186	19826
894.308	19830
894.43	19826
894.552	19913
894.674	19909
894.796	19708
894.918	19731
895.04	19658
895.161	19860
895.283	19833
895.405	19742
895.526	19811
895.648	19849
895.769	19776
895.891	19875
896.012	19830
896.134	19791
896.255	19887
896.376	19822
896.498	19841
896.619	19769
896.74	19795
896.861	19719
896.982	20031
897.103	20347
897.224	20073
897.345	19963
897.466	20020
897.587	20016
897.708	20263
897.828	19959
897.949	19928
898.07	19875
898.19	19871
898.311	20119
898.431	20020
898.552	19936
898.672	20107
898.792	20054
898.913	20153
899.033	19883
899.153	19822
899.273	19685
899.393	19761
899.513	19951
899.633	19772
899.753	19833
899.873	19639
899.993	19670
900.113	19818
900.232	19746
900.352	19620
900.472	19571
900.591	19464
900.711	19693
900.83	19594
900.95	19719
901.069	19639
901.189	19346
901.308	19152
901.427	19122
901.546	19126
901.665	19129
901.784	19168
901.904	19050
902.023	18958
902.141	18829
902.26	18715
902.379	18795
902.498	18738
902.617	18604
902.735	18681
902.854	18627
902.973	18494
903.091	18273
903.21	18182
903.328	18388
903.446	18232
903.565	18068
903.683	18095
903.801	17984
903.919	17996
904.038	18057
904.156	17866
904.274	18057
904.392	17889
904.51	17912
904.627	17798
904.745	17939
904.863	17958
904.981	17676
905.098	17589
905.216	17596
905.334	17642
905.451	17604
905.569	17554
905.686	17585
905.803	17562
905.921	17379
906.038	17440
906.155	17364
906.272	17299
906.389	17311
906.506	17143
906.623	17132
906.74	17037
906.857	17033
906.974	17048
907.091	17204
907.208	17204
907.324	17117
907.441	17067
907.557	16866
907.674	16946
907.79	16752
907.907	16752
908.023	16809
908.139	16930
908.256	16763
908.372	16820
908.488	16679
908.604	16603
908.72	16565
908.836	16611
908.952	16538
909.068	16641
909.184	16558
909.3	16542
909.415	16558
909.531	16504
909.647	16436
909.762	16169
909.878	16268
909.993	16398
910.108	16299
910.224	16207
910.339	16219
910.454	16200
910.57	16044
910.685	15983
910.8	16299
910.915	16162
911.03	16192
911.145	15827
911.259	15911
911.374	15781
911.489	15770
911.604	15785
911.718	15587
911.833	15614
911.947	15515
912.062	15488
912.176	15557
912.291	15587
912.405	15610
912.519	15831
912.633	15690
912.748	15682
912.862	15576
912.976	15378
913.09	15382
913.204	15412
913.318	15454
913.431	15466
913.545	15511
913.659	15500
913.772	15447
913.886	15249
914	15226
914.113	15329
914.226	15389
914.34	15264
914.453	15066
914.566	15294
914.68	15214
914.793	15108
914.906	14998
915.019	14944
915.132	14823
915.245	14788
915.358	14842
915.47	14883
915.583	14815
915.696	14857
915.809	14956
915.921	15017
916.034	14845
916.146	14720
916.259	14716
916.371	14853
916.483	14750
916.595	14716
916.708	14705
916.82	14682
916.932	14556
917.044	14640
917.156	14594
917.268	14488
917.38	14560
917.491	14549
917.603	14644
917.715	14457
917.826	14552
917.938	14541
918.049	14381
918.161	14431
918.272	14670
918.384	14537
918.495	14511
918.606	14347
918.717	14126
918.828	14298
918.939	14271
919.05	14149
919.161	14358
919.272	14107
919.383	14054
919.494	14332
919.604	14396
919.715	14202
919.826	14229
919.936	14164
920.047	14320
920.157	14218
920.267	14412
920.378	14180
920.488	14153
920.598	14343
920.708	14511
920.818	14343
920.928	14427
921.038	14564
921.148	14461
921.258	14229
921.368	14229
921.477	14008
921.587	14065
921.697	13871
921.806	13894
921.916	13807
922.025	13609
922.134	13655
922.244	13632
922.353	13788
922.462	13544
922.571	13483
922.68	13232
922.789	13308
922.898	13343
923.007	13213
923.116	13327
923.224	13228
923.333	13217
923.442	13118
923.55	13069
923.659	13133
923.767	13160
923.876	12985
923.984	13053
924.092	13012
924.201	13046
924.309	13061
924.417	13027
924.525	13000
924.633	13015
924.741	13624
924.849	12795
924.956	12894
925.064	12814
925.172	12589
925.279	12707
925.387	12783
925.494	12741
925.602	12863
925.709	12677
925.816	12616
925.924	12589
926.031	12779
926.138	12749
926.245	12749
926.352	12559
926.459	12673
926.566	12757
926.673	12604
926.779	12490
926.886	12490
926.993	12311
927.099	12289
927.206	12243
927.312	12243
927.419	12350
927.525	12213
927.631	12323
927.737	12239
927.843	12197
927.95	12030
928.056	12194
928.162	12140
928.267	12140
928.373	12703
928.479	12136
928.585	12072
928.69	12022
928.796	12175
928.901	11954
929.007	11916
929.112	12026
929.218	11851
929.323	11893
929.428	11798
929.533	11961
929.638	11821
929.743	11760
929.848	11843
929.953	11737
930.058	11699
930.163	11459
930.267	11604
930.372	11665
930.477	11543
930.581	11798
930.685	11570
930.79	11520
930.894	11448
930.998	11391
931.103	11524
931.207	11178
931.311	11204
931.415	10968
931.519	10854
931.623	10869
