Data from test_V78500241_1774.txt Node
Date: Fri Mar 25 15:22:12 CST 2022
User: usil
Spectrometer: V785-0024
Trigger mode: 0
Integration Time (sec): 4.000000E-1
Scans to average: 1
Nonlinearity correction enabled: false
Boxcar width: 0
Storing dark spectrum: false
XAxis mode: Wavelengths
Number of Pixels in Spectrum: 1024
>>>>>Begin Spectral Data<<<<<
801.071	27808
801.214	27903
801.356	27599
801.499	27564
801.641	27545
801.783	27454
801.926	27580
802.068	27515
802.211	27504
802.353	27359
802.496	27195
802.638	27146
802.78	27264
802.923	27116
803.065	27051
803.208	27077
803.35	27036
803.492	27275
803.635	27298
803.777	27283
803.919	27298
804.061	27603
804.204	27389
804.346	27150
804.488	27252
804.63	27302
804.773	27268
804.915	27397
805.057	27378
805.199	27359
805.341	27363
805.483	27633
805.626	27530
805.768	27386
805.91	27519
806.052	27656
806.194	27416
806.336	27679
806.478	27485
806.62	27458
806.762	27679
806.904	27671
807.046	27926
807.188	27888
807.33	27789
807.472	28010
807.614	27823
807.756	27869
807.898	27835
808.04	27778
808.182	27774
808.324	27835
808.465	27857
808.607	27934
808.749	28090
808.891	28029
809.033	28226
809.174	28090
809.316	28128
809.458	28067
809.6	28051
809.741	28204
809.883	28181
810.025	28462
810.166	28497
810.308	28394
810.45	28211
810.591	28337
810.733	28006
810.875	28017
811.016	27968
811.158	28055
811.299	28158
811.441	28310
811.582	28325
811.724	28147
811.865	28177
812.007	28120
812.148	28051
812.29	28177
812.431	28295
812.573	28341
812.714	28538
812.855	28478
812.997	28733
813.138	28877
813.279	28656
813.421	28561
813.562	28516
813.703	28447
813.845	28226
813.986	28074
814.127	27907
814.268	27831
814.41	27778
814.551	27926
814.692	27800
814.833	27743
814.974	27770
815.115	27835
815.256	27622
815.397	27713
815.539	27705
815.68	27454
815.821	27606
815.962	27694
816.103	27561
816.244	27633
816.385	27310
816.526	27332
816.666	27176
816.807	27001
816.948	27165
817.089	27291
817.23	27150
817.371	27096
817.512	27062
817.653	27077
817.793	26990
817.934	27085
818.075	27138
818.216	27112
818.356	27017
818.497	26887
818.638	26872
818.778	26838
818.919	26902
819.06	26960
819.2	27058
819.341	27127
819.481	27032
819.622	27233
819.762	27397
819.903	27272
820.043	27195
820.184	27249
820.324	27123
820.465	27378
820.605	27233
820.746	27180
820.886	27051
821.026	27093
821.167	27055
821.307	27214
821.447	27100
821.588	26967
821.728	26876
821.868	26716
822.008	26636
822.149	26602
822.289	26609
822.429	26271
822.569	26309
822.709	26214
822.849	26092
822.99	26111
823.13	26008
823.27	25955
823.41	25947
823.55	25921
823.69	25868
823.83	25860
823.97	25940
824.11	25738
824.25	25807
824.389	25856
824.529	25913
824.669	25803
824.809	25837
824.949	25791
825.089	25822
825.228	25849
825.368	25438
825.508	25594
825.648	25510
825.787	25635
825.927	25662
826.067	25514
826.206	25651
826.346	25601
826.485	25632
826.625	25521
826.765	25624
826.904	25632
827.044	25388
827.183	25438
827.323	25434
827.462	25289
827.601	25350
827.741	25335
827.88	25274
828.02	25270
828.159	25312
828.298	25251
828.437	25285
828.577	25225
828.716	25434
828.855	25129
828.994	25095
829.134	25088
829.273	25107
829.412	24916
829.551	24897
829.69	25012
829.829	25076
829.968	25057
830.107	25217
830.246	25122
830.385	24958
830.524	24951
830.663	24852
830.802	24703
830.941	24692
831.08	24437
831.219	24726
831.357	24642
831.496	24878
831.635	24604
831.774	24456
831.913	24563
832.051	24448
832.19	24376
832.329	24437
832.467	24353
832.606	24311
832.744	24315
832.883	24334
833.022	24209
833.16	24235
833.299	24254
833.437	24369
833.576	24376
833.714	24422
833.852	24509
833.991	24380
834.129	24410
834.267	24380
834.406	24319
834.544	24399
834.682	24353
834.821	24475
834.959	24544
835.097	24350
835.235	24460
835.373	24441
835.511	24380
835.65	24117
835.788	24190
835.926	24194
836.064	24068
836.202	24038
836.34	24178
836.478	24323
836.615	24270
836.753	24148
836.891	24285
837.029	24167
837.167	24171
837.305	24174
837.443	24049
837.58	24064
837.718	24186
837.856	24133
837.993	23916
838.131	24159
838.269	23942
838.406	23973
838.544	23836
838.681	23775
838.819	23760
838.956	23524
839.094	23490
839.231	23471
839.369	23680
839.506	23866
839.643	23805
839.781	23627
839.918	23444
840.055	23573
840.193	23600
840.33	23402
840.467	23570
840.604	23562
840.742	23672
840.879	23364
841.016	23406
841.153	23334
841.29	23516
841.427	23512
841.564	23520
841.701	23383
841.838	23440
841.975	23242
842.112	23200
842.249	23288
842.385	23258
842.522	23334
842.659	23337
842.796	23204
842.933	23185
843.069	23254
843.206	23143
843.343	23231
843.479	23326
843.616	23269
843.752	23010
843.889	23033
844.025	23162
844.162	22942
844.298	23254
844.435	23029
844.571	23018
844.708	23102
844.844	23090
844.98	23170
845.117	22999
845.253	22965
845.389	22991
845.525	22976
845.661	22854
845.798	22771
845.934	22725
846.07	22618
846.206	22809
846.342	22660
846.478	22698
846.614	22535
846.75	22470
846.886	22299
847.022	22497
847.158	22546
847.294	22394
847.429	22542
847.565	22447
847.701	22763
847.837	22093
847.972	22135
848.108	22306
848.244	22329
848.379	22021
848.515	22032
848.65	22048
848.786	22063
848.921	22063
849.057	22166
849.192	22116
849.328	22158
849.463	22105
849.598	21975
849.734	21987
849.869	21968
850.004	21895
850.14	21850
850.275	21930
850.41	21724
850.545	21835
850.68	21797
850.815	21831
850.95	21835
851.085	22002
851.22	21983
851.355	21827
851.49	21808
851.625	21781
851.76	21819
851.895	21743
852.03	21747
852.165	21747
852.299	21781
852.434	21888
852.569	21766
852.703	21793
852.838	21888
852.973	21979
853.107	21930
853.242	21755
853.376	21713
853.511	21561
853.645	21622
853.78	21656
853.914	21599
854.048	21583
854.183	21553
854.317	21679
854.451	21774
854.585	21701
854.72	21682
854.854	21591
854.988	21595
855.122	21648
855.256	21435
855.39	21667
855.524	21580
855.658	21648
855.792	21675
855.926	21648
856.06	21701
856.194	21728
856.327	21755
856.461	21641
856.595	21599
856.729	21720
856.862	21724
856.996	21785
857.13	21686
857.263	21793
857.397	21701
857.53	21580
857.664	21507
857.797	21781
857.931	21823
858.064	21603
858.197	21656
858.331	21698
858.464	21622
858.597	21530
858.731	21606
858.864	21644
858.997	21553
859.13	21504
859.263	21614
859.396	21766
859.529	21557
859.662	21557
859.795	21523
859.928	21637
860.061	21759
860.194	21789
860.327	21603
860.46	21720
860.592	21774
860.725	21838
860.858	21770
860.99	21720
861.123	21648
861.256	21564
861.388	21622
861.521	22295
861.653	21469
861.786	21530
861.918	21511
862.05	21599
862.183	21545
862.315	21652
862.447	21694
862.58	21477
862.712	21321
862.844	21294
862.976	21412
863.108	21435
863.24	21724
863.372	21298
863.504	21348
863.636	21340
863.768	21458
863.9	21405
864.032	21294
864.164	21245
864.296	21458
864.428	21405
864.559	21378
864.691	21351
864.823	21302
864.954	21374
865.086	21260
865.217	21344
865.349	21256
865.48	21291
865.612	21165
865.743	21431
865.875	21351
866.006	21062
866.137	21203
866.269	21222
866.4	21233
866.531	21146
866.662	21146
866.793	21192
866.924	21222
867.055	21150
867.186	21157
867.317	21112
867.448	21104
867.579	21161
867.71	21093
867.841	21070
867.972	21150
868.103	21043
868.233	21081
868.364	21150
868.495	21226
868.625	21355
868.756	21485
868.886	21298
869.017	21492
869.147	21504
869.278	21553
869.408	21355
869.539	21359
869.669	21481
869.799	21477
869.929	21462
870.06	21507
870.19	21622
870.32	21625
870.45	21873
870.58	21819
870.71	21956
870.84	21888
870.97	21831
871.1	21823
871.23	22090
871.36	21983
871.489	21869
871.619	22040
871.749	22010
871.879	21937
872.008	22025
872.138	22029
872.267	22029
872.397	22036
872.526	21842
872.656	21911
872.785	21915
872.915	21953
873.044	22101
873.173	22097
873.303	22207
873.432	22040
873.561	22135
873.69	22017
873.819	22006
873.948	22154
874.077	22116
874.206	22002
874.335	21888
874.464	22082
874.593	22291
874.722	22318
874.851	22306
874.979	22303
875.108	22196
875.237	22124
875.365	22124
875.494	22150
875.623	22314
875.751	22268
875.88	22303
876.008	22284
876.136	22409
876.265	22611
876.393	22759
876.521	22801
876.65	22793
876.778	22615
876.906	22637
877.034	22584
877.162	22588
877.29	22618
877.418	22550
877.546	22664
877.674	22618
877.802	22580
877.93	22531
878.058	22630
878.185	22421
878.313	22611
878.441	22573
878.568	22443
878.696	22565
878.824	22588
878.951	22557
879.079	22752
879.206	22881
879.333	22767
879.461	22516
879.588	22645
879.715	22744
879.842	22839
879.97	22634
880.097	22325
880.224	22375
880.351	22413
880.478	22424
880.605	22379
880.732	22394
880.859	22637
880.986	22481
881.112	22455
881.239	22341
881.366	22188
881.493	22078
881.619	22090
881.746	22040
881.872	22006
881.999	21857
882.125	21873
882.252	22021
882.378	22010
882.505	22116
882.631	21774
882.757	21709
882.883	21831
883.01	21591
883.136	21618
883.262	21424
883.388	21420
883.514	21591
883.64	21682
883.766	21618
883.892	21416
884.018	21405
884.143	21660
884.269	21591
884.395	21378
884.52	21199
884.646	21397
884.772	21237
884.897	21237
885.023	21310
885.148	21325
885.274	21332
885.399	21382
885.524	21188
885.65	21310
885.775	21268
885.9	21237
886.025	21485
886.15	21237
886.275	21195
886.4	21287
886.525	21317
886.65	21252
886.775	21401
886.9	21447
887.025	21488
887.149	21283
887.274	21195
887.399	21184
887.523	21081
887.648	20842
887.773	21100
887.897	21028
888.021	21127
888.146	20982
888.27	21039
888.395	21192
888.519	21066
888.643	21169
888.767	21180
888.891	21005
889.015	20906
889.139	20887
889.263	20876
889.387	20998
889.511	21051
889.635	21024
889.759	20861
889.883	20883
890.006	20914
890.13	21013
890.254	20659
890.377	20769
890.501	20629
890.624	20606
890.748	20716
890.871	20545
890.995	20377
891.118	20423
891.241	20400
891.364	20663
891.488	20602
891.611	20408
891.734	20454
891.857	20412
891.98	20564
892.103	20469
892.226	20427
892.349	20434
892.471	20237
892.594	20259
892.717	20389
892.839	20286
892.962	20309
893.085	20423
893.207	20427
893.33	20248
893.452	20282
893.575	20351
893.697	20332
893.819	20545
893.941	20476
894.064	20511
894.186	20210
894.308	20374
894.43	20514
894.552	20434
894.674	20442
894.796	20240
894.918	20339
895.04	20381
895.161	20419
895.283	20423
895.405	20233
895.526	20389
895.648	20339
895.769	20423
895.891	20408
896.012	20385
896.134	20465
896.255	20362
896.376	20309
896.498	20298
896.619	20305
896.74	20294
896.861	20393
896.982	20590
897.103	20716
897.224	20549
897.345	20575
897.466	20492
897.587	20568
897.708	20667
897.828	20484
897.949	20423
898.07	20362
898.19	20377
898.311	20583
898.431	20514
898.552	20545
898.672	20636
898.792	20541
898.913	20545
899.033	20419
899.153	20324
899.273	20225
899.393	20286
899.513	20275
899.633	20358
899.753	20267
899.873	20153
899.993	20313
900.113	20180
900.232	20237
900.352	20073
900.472	20176
900.591	20122
900.711	20081
900.83	19902
900.95	20107
901.069	20183
901.189	19879
901.308	19731
901.427	19518
901.546	19681
901.665	19609
901.784	19761
901.904	19457
902.023	19339
902.141	19324
902.26	19236
902.379	19388
902.498	19164
902.617	19156
902.735	19038
902.854	19152
902.973	19091
903.091	18768
903.21	18764
903.328	18757
903.446	18684
903.565	18494
903.683	18642
903.801	18448
903.919	18669
904.038	18479
904.156	18357
904.274	18429
904.392	18418
904.51	18315
904.627	18350
904.745	18456
904.863	18456
904.981	18174
905.098	18087
905.216	18091
905.334	18022
905.451	18121
905.569	18038
905.686	18087
905.803	18015
905.921	17817
906.038	17901
906.155	17817
906.272	17748
906.389	17745
906.506	17512
906.623	17547
906.74	17551
906.857	17509
906.974	17429
907.091	17589
907.208	17729
907.324	17539
907.441	17436
907.557	17208
907.674	17353
907.79	17277
907.907	17299
908.023	17372
908.139	17360
908.256	17360
908.372	17159
908.488	17181
908.604	17109
908.72	16965
908.836	17064
908.952	16923
909.068	17067
909.184	17124
909.3	16942
909.415	16999
909.531	17003
909.647	16721
909.762	16698
909.878	16717
909.993	16744
910.108	16607
910.224	16675
910.339	16713
910.454	16550
910.57	16622
910.685	16455
910.8	16862
910.915	16668
911.03	16527
911.145	16348
911.259	16356
911.374	16333
911.489	16280
911.604	16173
911.718	16097
911.833	16154
911.947	15831
912.062	16006
912.176	15937
912.291	16048
912.405	16036
912.519	16234
912.633	16249
912.748	16124
912.862	16090
912.976	15975
913.09	15755
913.204	15854
913.318	15857
913.431	15888
913.545	15911
913.659	15915
913.772	15812
913.886	15781
914	15622
914.113	15816
914.226	15850
914.34	15766
914.453	15561
914.566	15770
914.68	15599
914.793	15523
914.906	15313
915.019	15230
915.132	15169
915.245	15199
915.358	15294
915.47	15367
915.583	15313
915.696	15298
915.809	15359
915.921	15374
916.034	15241
916.146	15077
916.259	15195
916.371	15233
916.483	15237
916.595	15146
916.708	15127
916.82	15093
916.932	15020
917.044	14994
917.156	15032
917.268	14868
917.38	14914
917.491	14967
917.603	14956
917.715	15028
917.826	14990
917.938	14765
918.049	14686
918.161	14857
918.272	14998
918.384	14998
918.495	14853
918.606	14739
918.717	14667
918.828	14708
918.939	14670
919.05	14644
919.161	14636
919.272	14473
919.383	14575
919.494	14686
919.604	14830
919.715	14648
919.826	14602
919.936	14674
920.047	14686
920.157	14762
920.267	14777
920.378	14571
920.488	14636
920.598	14853
920.708	14952
920.818	14777
920.928	14754
921.038	14944
921.148	14800
921.258	14552
921.368	14499
921.477	14366
921.587	14415
921.697	14240
921.806	14412
921.916	14202
922.025	14088
922.134	14050
922.244	13917
922.353	14062
922.462	13909
922.571	13830
922.68	13609
922.789	13681
922.898	13689
923.007	13636
923.116	13666
923.224	13594
923.333	13605
923.442	13468
923.55	13415
923.659	13544
923.767	13525
923.876	13445
923.984	13438
924.092	13259
924.201	13320
924.309	13365
924.417	13419
924.525	13274
924.633	13266
924.741	14020
924.849	13061
924.956	13266
925.064	13012
925.172	12947
925.279	13072
925.387	13065
925.494	13072
925.602	13156
925.709	13099
925.816	12962
925.924	13042
926.031	12981
926.138	12951
926.245	13164
926.352	13000
926.459	13069
926.566	13110
926.673	12882
926.779	12863
926.886	12810
926.993	12639
927.099	12620
927.206	12639
927.312	12559
927.419	12673
927.525	12597
927.631	12635
927.737	12498
927.843	12479
927.95	12410
928.056	12433
928.162	12399
928.267	12555
928.373	13053
928.479	12502
928.585	12266
928.69	12338
928.796	12361
928.901	12190
929.007	12182
929.112	12296
929.218	12224
929.323	12175
929.428	12159
929.533	12266
929.638	12148
929.743	12114
929.848	12163
929.953	12068
930.058	12003
930.163	11847
930.267	11821
930.372	11939
930.477	11756
930.581	11988
930.685	11885
930.79	11767
930.894	11771
930.998	11729
931.103	11840
931.207	11501
931.311	11410
931.415	11307
931.519	11075
931.623	11181
