Data from test_V78500241_1412.txt Node
Date: Fri Mar 25 15:19:41 CST 2022
User: usil
Spectrometer: V785-0024
Trigger mode: 0
Integration Time (sec): 4.000000E-1
Scans to average: 1
Nonlinearity correction enabled: false
Boxcar width: 0
Storing dark spectrum: false
XAxis mode: Wavelengths
Number of Pixels in Spectrum: 1024
>>>>>Begin Spectral Data<<<<<
801.071	28128
801.214	28090
801.356	27785
801.499	27857
801.641	27785
801.783	27637
801.926	27804
802.068	27747
802.211	27785
802.353	27614
802.496	27488
802.638	27420
802.78	27348
802.923	27332
803.065	27214
803.208	27199
803.35	27260
803.492	27603
803.635	27462
803.777	27477
803.919	27660
804.061	27922
804.204	27663
804.346	27690
804.488	27534
804.63	27587
804.773	27583
804.915	27629
805.057	27739
805.199	27583
805.341	27595
805.483	27686
805.626	27690
805.768	27652
805.91	27747
806.052	27679
806.194	27671
806.336	27880
806.478	27804
806.62	27633
806.762	27880
806.904	28013
807.046	28207
807.188	28204
807.33	28112
807.472	28204
807.614	28166
807.756	28139
807.898	28192
808.04	28006
808.182	27956
808.324	28116
808.465	28036
808.607	28287
808.749	28375
808.891	28519
809.033	28577
809.174	28500
809.316	28314
809.458	28344
809.6	28333
809.741	28348
809.883	28527
810.025	28675
810.166	28774
810.308	28824
810.45	28607
810.591	28630
810.733	28436
810.875	28386
811.016	28306
811.158	28348
811.299	28386
811.441	28459
811.582	28588
811.724	28508
811.865	28512
812.007	28599
812.148	28386
812.29	28375
812.431	28535
812.573	28896
812.714	28911
812.855	28858
812.997	28934
813.138	29239
813.279	29105
813.421	28949
813.562	28908
813.703	28733
813.845	28615
813.986	28485
814.127	28169
814.268	28150
814.41	28109
814.551	28059
814.692	28265
814.833	28044
814.974	28120
815.115	28147
815.256	27926
815.397	27941
815.539	27994
815.68	27953
815.821	27960
815.962	27899
816.103	27960
816.244	27876
816.385	27717
816.526	27580
816.666	27454
816.807	27530
816.948	27355
817.089	27507
817.23	27534
817.371	27481
817.512	27473
817.653	27424
817.793	27344
817.934	27450
818.075	27367
818.216	27393
818.356	27374
818.497	27268
818.638	27142
818.778	27051
818.919	27245
819.06	27260
819.2	27447
819.341	27420
819.481	27408
819.622	27656
819.762	27808
819.903	27686
820.043	27564
820.184	27572
820.324	27488
820.465	27614
820.605	27523
820.746	27408
820.886	27310
821.026	27462
821.167	27420
821.307	27450
821.447	27519
821.588	27405
821.728	27260
821.868	26982
822.008	26864
822.149	26925
822.289	26998
822.429	26682
822.569	26579
822.709	26549
822.849	26465
822.99	26408
823.13	26400
823.27	26282
823.41	26134
823.55	26210
823.69	26278
823.83	26229
823.97	26172
824.11	25928
824.25	26001
824.389	26005
824.529	26168
824.669	26153
824.809	26111
824.949	26153
825.089	26206
825.228	26111
825.368	25860
825.508	25894
825.648	26058
825.787	26054
825.927	26016
826.067	25826
826.206	25852
826.346	25879
826.485	26024
826.625	25959
826.765	25997
826.904	25963
827.044	25708
827.183	25670
827.323	25620
827.462	25719
827.601	25689
827.741	25544
827.88	25670
828.02	25575
828.159	25578
828.298	25784
828.437	25704
828.577	25575
828.716	25700
828.855	25495
828.994	25289
829.134	25270
829.273	25369
829.412	25335
829.551	25221
829.69	25304
829.829	25373
829.968	25388
830.107	25533
830.246	25343
830.385	25240
830.524	25202
830.663	25012
830.802	24970
830.941	24894
831.08	24840
831.219	24981
831.357	25148
831.496	25076
831.635	24814
831.774	24856
831.913	24814
832.051	24623
832.19	24734
832.329	24688
832.467	24635
832.606	24578
832.744	24620
832.883	24608
833.022	24635
833.16	24658
833.299	24597
833.437	24593
833.576	24703
833.714	24673
833.852	24654
833.991	24669
834.129	24760
834.267	24821
834.406	24555
834.544	24741
834.682	24631
834.821	24559
834.959	24798
835.097	24688
835.235	24779
835.373	24707
835.511	24688
835.65	24505
835.788	24589
835.926	24376
836.064	24285
836.202	24311
836.34	24467
836.478	24498
836.615	24403
836.753	24585
836.891	24479
837.029	24388
837.167	24277
837.305	24369
837.443	24315
837.58	24319
837.718	24247
837.856	24254
837.993	24159
838.131	24285
838.269	24129
838.406	24281
838.544	24079
838.681	23866
838.819	24060
838.956	23714
839.094	23885
839.231	23855
839.369	23802
839.506	24197
839.643	23977
839.781	23794
839.918	23710
840.055	23703
840.193	23760
840.33	23611
840.467	23718
840.604	23710
840.742	24133
840.879	23608
841.016	23665
841.153	23554
841.29	23904
841.427	23756
841.564	23592
841.701	23592
841.838	23729
841.975	23634
842.112	23589
842.249	23554
842.385	23463
842.522	23585
842.659	23448
842.796	23497
842.933	23421
843.069	23414
843.206	23379
843.343	23360
843.479	23501
843.616	23444
843.752	23216
843.889	23166
844.025	23398
844.162	23124
844.298	23277
844.435	23235
844.571	23140
844.708	23299
844.844	23482
844.98	23383
845.117	23284
845.253	23147
845.389	23242
845.525	23124
845.661	23025
845.798	22934
845.934	23102
846.07	22850
846.206	22908
846.342	23044
846.478	22942
846.614	22752
846.75	22721
846.886	22653
847.022	22660
847.158	22729
847.294	22687
847.429	22835
847.565	22729
847.701	22869
847.837	22428
847.972	22363
848.108	22489
848.244	22512
848.379	22341
848.515	22303
848.65	22276
848.786	22135
848.921	22265
849.057	22394
849.192	22185
849.328	22253
849.463	22303
849.598	22318
849.734	22124
849.869	22177
850.004	22059
850.14	22017
850.275	22032
850.41	21873
850.545	21888
850.68	21918
850.815	22097
850.95	22017
851.085	22200
851.22	22200
851.355	22044
851.49	22070
851.625	22036
851.76	22029
851.895	21998
852.03	21884
852.165	21979
852.299	22021
852.434	22135
852.569	22147
852.703	22036
852.838	22048
852.973	22181
853.107	22196
853.242	22006
853.376	21865
853.511	21747
853.645	21876
853.78	21991
853.914	21770
854.048	21808
854.183	21937
854.317	21926
854.451	22055
854.585	21823
854.72	21804
854.854	21816
854.988	21857
855.122	21994
855.256	21770
855.39	21861
855.524	21846
855.658	21918
855.792	21873
855.926	21915
856.06	21816
856.194	21880
856.327	21785
856.461	21838
856.595	21690
856.729	21869
856.862	21819
856.996	21899
857.13	21808
857.263	22150
857.397	21907
857.53	21876
857.664	21850
857.797	21964
857.931	21945
858.064	21789
858.197	22036
858.331	21846
858.464	21759
858.597	21694
858.731	21804
858.864	21854
858.997	21747
859.13	21842
859.263	21819
859.396	21945
859.529	21781
859.662	21713
859.795	21793
859.928	21857
860.061	21895
860.194	21975
860.327	21831
860.46	21816
860.592	21953
860.725	22006
860.858	21934
860.99	21850
861.123	21736
861.256	21941
861.388	21895
861.521	22451
861.653	21781
861.786	21572
861.918	21698
862.05	21785
862.183	21644
862.315	21728
862.447	21781
862.58	21747
862.712	21576
862.844	21511
862.976	21675
863.108	21599
863.24	21869
863.372	21557
863.504	21553
863.636	21443
863.768	21557
863.9	21447
864.032	21538
864.164	21458
864.296	21652
864.428	21587
864.559	21603
864.691	21564
864.823	21538
864.954	21386
865.086	21443
865.217	21477
865.349	21317
865.48	21389
865.612	21523
865.743	21576
865.875	21538
866.006	21405
866.137	21473
866.269	21401
866.4	21454
866.531	21389
866.662	21310
866.793	21420
866.924	21504
867.055	21329
867.186	21431
867.317	21306
867.448	21283
867.579	21367
867.71	21329
867.841	21222
867.972	21378
868.103	21351
868.233	21382
868.364	21382
868.495	21363
868.625	21622
868.756	21667
868.886	21606
869.017	21663
869.147	21831
869.278	21759
869.408	21549
869.539	21557
869.669	21762
869.799	21660
869.929	21656
870.06	21739
870.19	21975
870.32	21930
870.45	22036
870.58	22044
870.71	22044
870.84	22048
870.97	22090
871.1	22040
871.23	22200
871.36	22139
871.489	22223
871.619	22207
871.749	22268
871.879	22249
872.008	22249
872.138	22299
872.267	22257
872.397	22097
872.526	22093
872.656	22029
872.785	22048
872.915	22230
873.044	22272
873.173	22154
873.303	22261
873.432	22310
873.561	22276
873.69	22348
873.819	22192
873.948	22303
874.077	22207
874.206	22230
874.335	22234
874.464	22455
874.593	22459
874.722	22459
874.851	22432
874.979	22516
875.108	22413
875.237	22295
875.365	22306
875.494	22344
875.623	22485
875.751	22310
875.88	22443
876.008	22500
876.136	22527
876.265	22881
876.393	22942
876.521	22824
876.65	22847
876.778	22805
876.906	22683
877.034	22881
877.162	22763
877.29	22790
877.418	22774
877.546	22824
877.674	22847
877.802	22831
877.93	22763
878.058	22664
878.185	22489
878.313	22675
878.441	22828
878.568	22538
878.696	22691
878.824	22812
878.951	22835
879.079	22927
879.206	23083
879.333	22900
879.461	22721
879.588	22854
879.715	22889
879.842	23014
879.97	22835
880.097	22603
880.224	22679
880.351	22592
880.478	22569
880.605	22573
880.732	22588
880.859	22866
880.986	22607
881.112	22668
881.239	22466
881.366	22314
881.493	22200
881.619	22192
881.746	22284
881.872	22086
881.999	22120
882.125	22036
882.252	22238
882.378	22078
882.505	22135
882.631	22006
882.757	21774
882.883	21918
883.01	21808
883.136	21732
883.262	21778
883.388	21686
883.514	21930
883.64	21892
883.766	21781
883.892	21652
884.018	21667
884.143	21827
884.269	21956
884.395	21519
884.52	21549
884.646	21519
884.772	21530
884.897	21321
885.023	21606
885.148	21534
885.274	21614
885.399	21561
885.524	21321
885.65	21606
885.775	21405
885.9	21488
886.025	21462
886.15	21614
886.275	21466
886.4	21351
886.525	21443
886.65	21488
886.775	21329
886.9	21743
887.025	21766
887.149	21469
887.274	21298
887.399	21192
887.523	21192
887.648	21302
887.773	21161
887.897	21428
888.021	21340
888.146	21283
888.27	21420
888.395	21325
888.519	21195
888.643	21214
888.767	21382
888.891	21188
889.015	21020
889.139	21100
889.263	21104
889.387	21074
889.511	21249
889.635	21131
889.759	21024
889.883	20960
890.006	21013
890.13	21218
890.254	21036
890.377	20941
890.501	20906
890.624	20674
890.748	20746
890.871	20697
890.995	20598
891.118	20503
891.241	20670
891.364	20613
891.488	20686
891.611	20549
891.734	20549
891.857	20678
891.98	20606
892.103	20621
892.226	20655
892.349	20541
892.471	20358
892.594	20518
892.717	20552
892.839	20442
892.962	20560
893.085	20450
893.207	20556
893.33	20385
893.452	20545
893.575	20583
893.697	20625
893.819	20659
893.941	20720
894.064	20678
894.186	20408
894.308	20442
894.43	20522
894.552	20701
894.674	20571
894.796	20385
894.918	20526
895.04	20412
895.161	20484
895.283	20560
895.405	20457
895.526	20507
895.648	20400
895.769	20537
895.891	20640
896.012	20579
896.134	20484
896.255	20469
896.376	20556
896.498	20488
896.619	20571
896.74	20514
896.861	20549
896.982	20697
897.103	20883
897.224	20834
897.345	20781
897.466	20678
897.587	20750
897.708	20815
897.828	20811
897.949	20682
898.07	20560
898.19	20598
898.311	20788
898.431	20609
898.552	20769
898.672	20712
898.792	20701
898.913	20689
899.033	20583
899.153	20473
899.273	20374
899.393	20514
899.513	20431
899.633	20545
899.753	20533
899.873	20248
899.993	20374
900.113	20343
900.232	20377
900.352	20366
900.472	20229
900.591	20244
900.711	20381
900.83	20240
900.95	20309
901.069	20336
901.189	20031
901.308	19932
901.427	19776
901.546	19845
901.665	19689
901.784	19731
901.904	19715
902.023	19510
902.141	19339
902.26	19335
902.379	19320
902.498	19308
902.617	19327
902.735	19362
902.854	19289
902.973	19232
903.091	18951
903.21	19012
903.328	19084
903.446	18951
903.565	18768
903.683	18772
903.801	18715
903.919	18757
904.038	18711
904.156	18517
904.274	18715
904.392	18445
904.51	18422
904.627	18547
904.745	18528
904.863	18578
904.981	18437
905.098	18209
905.216	18262
905.334	18232
905.451	18251
905.569	18235
905.686	18178
905.803	18353
905.921	17866
906.038	18228
906.155	17950
906.272	17866
906.389	17882
906.506	17691
906.623	17718
906.74	17691
906.857	17646
906.974	17600
907.091	17813
907.208	17802
907.324	17733
907.441	17615
907.557	17478
907.674	17292
907.79	17417
907.907	17414
908.023	17417
908.139	17474
908.256	17360
908.372	17433
908.488	17265
908.604	17204
908.72	17162
908.836	17212
908.952	17079
909.068	17220
909.184	17220
909.3	17223
909.415	17151
909.531	17083
909.647	16976
909.762	16908
909.878	16847
909.993	16828
910.108	16900
910.224	16755
910.339	16877
910.454	16755
910.57	16793
910.685	16573
910.8	16782
910.915	16839
911.03	16702
911.145	16443
911.259	16512
911.374	16512
911.489	16409
911.604	16325
911.718	16185
911.833	16223
911.947	16044
912.062	16006
912.176	16143
912.291	16188
912.405	16223
912.519	16284
912.633	16352
912.748	16268
912.862	16173
912.976	15922
913.09	15941
913.204	16017
913.318	16086
913.431	16188
913.545	16082
913.659	16143
913.772	15918
913.886	15838
914	15728
914.113	15789
914.226	15934
914.34	15888
914.453	15808
914.566	15850
914.68	15633
914.793	15614
914.906	15443
915.019	15416
915.132	15363
915.245	15408
915.358	15431
915.47	15447
915.583	15416
915.696	15469
915.809	15469
915.921	15561
916.034	15378
916.146	15336
916.259	15249
916.371	15405
916.483	15374
916.595	15154
916.708	15233
916.82	15302
916.932	15195
917.044	15112
917.156	15081
917.268	15100
917.38	15077
917.491	15074
917.603	15146
917.715	15135
917.826	15093
917.938	14963
918.049	14891
918.161	15043
918.272	15150
918.384	15039
918.495	14952
918.606	14834
918.717	14765
918.828	14811
918.939	14853
919.05	14686
919.161	14769
919.272	14610
919.383	14678
919.494	14826
919.604	14963
919.715	14727
919.826	14743
919.936	14769
920.047	14845
920.157	14788
920.267	14952
920.378	14777
920.488	14682
920.598	14929
920.708	15085
920.818	14838
920.928	14891
921.038	15112
921.148	14975
921.258	14670
921.368	14667
921.477	14583
921.587	14473
921.697	14374
921.806	14480
921.916	14374
922.025	14153
922.134	14073
922.244	14164
922.353	14168
922.462	14012
922.571	13894
922.68	13799
922.789	13765
922.898	13746
923.007	13757
923.116	13712
923.224	13681
923.333	13689
923.442	13578
923.55	13586
923.659	13666
923.767	13639
923.876	13628
923.984	13597
924.092	13483
924.201	13514
924.309	13567
924.417	13590
924.525	13468
924.633	13400
924.741	14214
924.849	13263
924.956	13343
925.064	13202
925.172	13194
925.279	13118
925.387	13221
925.494	13103
925.602	13251
925.709	13206
925.816	13103
925.924	13156
926.031	13206
926.138	13019
926.245	13137
926.352	13053
926.459	13069
926.566	13091
926.673	13080
926.779	12935
926.886	12882
926.993	12833
927.099	12741
927.206	12757
927.312	12711
927.419	12745
927.525	12696
927.631	12795
927.737	12711
927.843	12574
927.95	12460
928.056	12536
928.162	12563
928.267	12597
928.373	13217
928.479	12574
928.585	12407
928.69	12414
928.796	12563
928.901	12399
929.007	12311
929.112	12353
929.218	12273
929.323	12247
929.428	12243
929.533	12410
929.638	12213
929.743	12300
929.848	12190
929.953	12277
930.058	12053
930.163	11992
930.267	11977
930.372	12072
930.477	11923
930.581	12121
930.685	12015
930.79	11866
930.894	11863
930.998	11802
931.103	11916
931.207	11634
931.311	11520
931.415	11421
931.519	11223
931.623	11258
