Data from test_V78500241_877.txt Node
Date: Fri Mar 25 15:15:57 CST 2022
User: usil
Spectrometer: V785-0024
Trigger mode: 0
Integration Time (sec): 4.000000E-1
Scans to average: 1
Nonlinearity correction enabled: false
Boxcar width: 0
Storing dark spectrum: false
XAxis mode: Wavelengths
Number of Pixels in Spectrum: 1024
>>>>>Begin Spectral Data<<<<<
801.071	28048
801.214	27972
801.356	27667
801.499	27625
801.641	27576
801.783	27538
801.926	27549
802.068	27488
802.211	27443
802.353	27329
802.496	27218
802.638	27252
802.78	27184
802.923	27363
803.065	27001
803.208	27112
803.35	27176
803.492	27135
803.635	27302
803.777	27260
803.919	27412
804.061	27606
804.204	27256
804.346	27306
804.488	27207
804.63	27306
804.773	27127
804.915	27424
805.057	27618
805.199	27386
805.341	27473
805.483	27576
805.626	27515
805.768	27473
805.91	27405
806.052	27564
806.194	27473
806.336	27701
806.478	27572
806.62	27618
806.762	27644
806.904	27812
807.046	28287
807.188	27808
807.33	27918
807.472	27953
807.614	27895
807.756	27831
807.898	27861
808.04	27766
808.182	27945
808.324	27869
808.465	27903
808.607	27994
808.749	28070
808.891	28181
809.033	28280
809.174	28223
809.316	28158
809.458	28318
809.6	28200
809.741	28428
809.883	28272
810.025	28519
810.166	28470
810.308	28538
810.45	28466
810.591	28413
810.733	28318
810.875	28070
811.016	28192
811.158	28097
811.299	28204
811.441	28333
811.582	28215
811.724	28185
811.865	28036
812.007	28101
812.148	28112
812.29	28238
812.431	28424
812.573	28603
812.714	28603
812.855	28736
812.997	28930
813.138	28908
813.279	28820
813.421	28805
813.562	28755
813.703	28516
813.845	28519
813.986	28051
814.127	27994
814.268	27914
814.41	27903
814.551	27892
814.692	27968
814.833	27762
814.974	27869
815.115	27991
815.256	27854
815.397	27774
815.539	27759
815.68	27747
815.821	27561
815.962	27713
816.103	27709
816.244	27526
816.385	27477
816.526	27473
816.666	27302
816.807	27256
816.948	27249
817.089	27374
817.23	27214
817.371	27154
817.512	27310
817.653	27112
817.793	27173
817.934	27119
818.075	27173
818.216	27264
818.356	27176
818.497	27089
818.638	26910
818.778	26994
818.919	26975
819.06	27077
819.2	27218
819.341	27264
819.481	27241
819.622	27165
819.762	27500
819.903	27625
820.043	27291
820.184	27439
820.324	27157
820.465	27291
820.605	27127
820.746	27355
820.886	27241
821.026	27218
821.167	27275
821.307	27374
821.447	27192
821.588	27127
821.728	26963
821.868	26807
822.008	26735
822.149	26651
822.289	26632
822.429	26320
822.569	26347
822.709	26453
822.849	26358
822.99	26210
823.13	26069
823.27	26126
823.41	25776
823.55	25894
823.69	25951
823.83	26202
823.97	25902
824.11	25715
824.25	25761
824.389	25826
824.529	25841
824.669	25883
824.809	25966
824.949	26024
825.089	25921
825.228	25723
825.368	25715
825.508	25613
825.648	25784
825.787	25841
825.927	25753
826.067	25655
826.206	25704
826.346	25734
826.485	25753
826.625	25677
826.765	25811
826.904	25776
827.044	25506
827.183	25499
827.323	25354
827.462	25403
827.601	25483
827.741	25396
827.88	25495
828.02	25331
828.159	25502
828.298	25419
828.437	25495
828.577	25476
828.716	25483
828.855	25377
828.994	25187
829.134	25129
829.273	25080
829.412	25061
829.551	25080
829.69	25133
829.829	25285
829.968	25183
830.107	25232
830.246	25084
830.385	25050
830.524	25057
830.663	24981
830.802	25057
830.941	24772
831.08	24730
831.219	24753
831.357	24791
831.496	24947
831.635	24760
831.774	24722
831.913	24646
832.051	24475
832.19	24422
832.329	24604
832.467	24448
832.606	24365
832.744	24403
832.883	24418
833.022	24456
833.16	24426
833.299	24494
833.437	24334
833.576	24642
833.714	24528
833.852	24669
833.991	24502
834.129	24601
834.267	24521
834.406	24486
834.544	24601
834.682	24490
834.821	24521
834.959	24700
835.097	24426
835.235	24585
835.373	24315
835.511	24479
835.65	24258
835.788	24429
835.926	24197
836.064	24171
836.202	24186
836.34	24266
836.478	24350
836.615	24308
836.753	24315
836.891	24475
837.029	24323
837.167	24254
837.305	24270
837.443	24178
837.58	24292
837.718	24273
837.856	24273
837.993	24136
838.131	24133
838.269	24076
838.406	24095
838.544	23965
838.681	23794
838.819	23802
838.956	23634
839.094	23604
839.231	23687
839.369	23817
839.506	23958
839.643	23748
839.781	23642
839.918	23573
840.055	23596
840.193	23661
840.33	23566
840.467	23478
840.604	23376
840.742	23733
840.879	23345
841.016	23638
841.153	23379
841.29	23524
841.427	23501
841.564	23596
841.701	23383
841.838	23524
841.975	23452
842.112	23395
842.249	23322
842.385	23254
842.522	23524
842.659	23292
842.796	23299
842.933	23360
843.069	23258
843.206	23322
843.343	23414
843.479	23296
843.616	23269
843.752	23136
843.889	23136
844.025	23227
844.162	23143
844.298	23132
844.435	23033
844.571	23056
844.708	23143
844.844	23288
844.98	23128
845.117	23212
845.253	22980
845.389	22923
845.525	22942
845.661	23010
845.798	22778
845.934	22869
846.07	22793
846.206	22976
846.342	23003
846.478	22843
846.614	22721
846.75	22474
846.886	22504
847.022	22588
847.158	22618
847.294	22630
847.429	22565
847.565	22508
847.701	22782
847.837	22310
847.972	22223
848.108	22367
848.244	22352
848.379	22074
848.515	22226
848.65	22215
848.786	22173
848.921	22150
849.057	22291
849.192	22234
849.328	22169
849.463	22169
849.598	22196
849.734	22082
849.869	21964
850.004	21804
850.14	21861
850.275	21922
850.41	21838
850.545	21778
850.68	21759
850.815	21876
850.95	21861
851.085	21998
851.22	22067
851.355	21922
851.49	21903
851.625	21804
851.76	21960
851.895	21747
852.03	21835
852.165	21819
852.299	21865
852.434	21972
852.569	21857
852.703	21804
852.838	21926
852.973	21930
853.107	22074
853.242	21755
853.376	21774
853.511	21644
853.645	21660
853.78	21915
853.914	21663
854.048	21599
854.183	21644
854.317	21808
854.451	21937
854.585	21641
854.72	21698
854.854	21911
854.988	21652
855.122	21694
855.256	21591
855.39	21641
855.524	21682
855.658	21831
855.792	21804
855.926	21884
856.06	21755
856.194	21804
856.327	21690
856.461	21732
856.595	21781
856.729	21728
856.862	21823
856.996	21667
857.13	21774
857.263	21812
857.397	21785
857.53	21774
857.664	21690
857.797	21728
857.931	21808
858.064	21800
858.197	21682
858.331	21629
858.464	21701
858.597	21561
858.731	21644
858.864	21523
858.997	21545
859.13	21568
859.263	21736
859.396	21781
859.529	21713
859.662	21709
859.795	21701
859.928	21686
860.061	21846
860.194	21846
860.327	21736
860.46	21778
860.592	21827
860.725	21911
860.858	21789
860.99	21599
861.123	21641
861.256	21542
861.388	21804
861.521	22497
861.653	21599
861.786	21500
861.918	21625
862.05	21690
862.183	21690
862.315	21644
862.447	21526
862.58	21553
862.712	21504
862.844	21359
862.976	21496
863.108	21606
863.24	21827
863.372	21416
863.504	21401
863.636	21401
863.768	21488
863.9	21420
864.032	21298
864.164	21329
864.296	21428
864.428	21469
864.559	21469
864.691	21447
864.823	21310
864.954	21500
865.086	21310
865.217	21283
865.349	21332
865.48	21306
865.612	21294
865.743	21397
865.875	21287
866.006	21226
866.137	21355
866.269	21317
866.4	21226
866.531	21104
866.662	21150
866.793	21268
866.924	21184
867.055	21260
867.186	21306
867.317	21169
867.448	21135
867.579	21230
867.71	21131
867.841	21104
867.972	21233
868.103	21093
868.233	21268
868.364	21199
868.495	21237
868.625	21367
868.756	21614
868.886	21420
869.017	21466
869.147	21542
869.278	21538
869.408	21435
869.539	21500
869.669	21682
869.799	21530
869.929	21549
870.06	21603
870.19	21625
870.32	21770
870.45	21842
870.58	21876
870.71	21945
870.84	21945
870.97	21812
871.1	21846
871.23	21960
871.36	21922
871.489	21907
871.619	22040
871.749	22070
871.879	22048
872.008	22169
872.138	22101
872.267	22017
872.397	21964
872.526	21827
872.656	21846
872.785	21937
872.915	22017
873.044	22082
873.173	22070
873.303	22040
873.432	22143
873.561	22093
873.69	22063
873.819	21994
873.948	22090
874.077	21998
874.206	22139
874.335	21979
874.464	22131
874.593	22333
874.722	22329
874.851	22246
874.979	22371
875.108	22318
875.237	22234
875.365	22166
875.494	22105
875.623	22356
875.751	22162
875.88	22386
876.008	22474
876.136	22379
876.265	22660
876.393	22824
876.521	22725
876.65	22603
876.778	22645
876.906	22603
877.034	22694
877.162	22656
877.29	22622
877.418	22710
877.546	22675
877.674	22611
877.802	22622
877.93	22569
878.058	22577
878.185	22523
878.313	22527
878.441	22733
878.568	22527
878.696	22637
878.824	22565
878.951	22828
879.079	22908
879.206	22946
879.333	22930
879.461	22847
879.588	22748
879.715	22801
879.842	22889
879.97	22615
880.097	22535
880.224	22512
880.351	22459
880.478	22443
880.605	22398
880.732	22394
880.859	22668
880.986	22413
881.112	22489
881.239	22337
881.366	22150
881.493	22162
881.619	22131
881.746	22139
881.872	22120
881.999	21979
882.125	22029
882.252	22090
882.378	22051
882.505	22086
882.631	21880
882.757	21663
882.883	21937
883.01	21694
883.136	21709
883.262	21686
883.388	21534
883.514	21736
883.64	21698
883.766	21755
883.892	21477
884.018	21454
884.143	21701
884.269	21804
884.395	21389
884.52	21344
884.646	21169
884.772	21336
884.897	21275
885.023	21485
885.148	21355
885.274	21416
885.399	21397
885.524	21302
885.65	21317
885.775	21359
885.9	21378
886.025	21477
886.15	21401
886.275	21374
886.4	21249
886.525	21424
886.65	21245
886.775	21252
886.9	21378
887.025	21545
887.149	21283
887.274	21085
887.399	21062
887.523	21074
887.648	21066
887.773	20986
887.897	21291
888.021	21085
888.146	21081
888.27	21161
888.395	21268
888.519	21146
888.643	21272
888.767	21074
888.891	20948
889.015	20876
889.139	20948
889.263	20823
889.387	21070
889.511	21135
889.635	21108
889.759	20994
889.883	20834
890.006	20902
890.13	21089
890.254	20849
890.377	20918
890.501	20727
890.624	20670
890.748	20590
890.871	20617
890.995	20461
891.118	20362
891.241	20552
891.364	20606
891.488	20678
891.611	20503
891.734	20476
891.857	20488
891.98	20488
892.103	20507
892.226	20454
892.349	20362
892.471	20271
892.594	20431
892.717	20377
892.839	20389
892.962	20374
893.085	20446
893.207	20434
893.33	20339
893.452	20294
893.575	20328
893.697	20415
893.819	20465
893.941	20579
894.064	20438
894.186	20473
894.308	20282
894.43	20484
894.552	20431
894.674	20480
894.796	20305
894.918	20336
895.04	20309
895.161	20351
895.283	20450
895.405	20298
895.526	20370
895.648	20286
895.769	20374
895.891	20434
896.012	20488
896.134	20320
896.255	20298
896.376	20305
896.498	20393
896.619	20423
896.74	20488
896.861	20400
896.982	20731
897.103	20834
897.224	20716
897.345	20648
897.466	20446
897.587	20594
897.708	20705
897.828	20602
897.949	20541
898.07	20450
898.19	20556
898.311	20632
898.431	20503
898.552	20511
898.672	20632
898.792	20606
898.913	20511
899.033	20419
899.153	20438
899.273	20267
899.393	20252
899.513	20298
899.633	20393
899.753	20313
899.873	20336
899.993	20400
900.113	20172
900.232	20408
900.352	20214
900.472	20119
900.591	20161
900.711	20119
900.83	20100
900.95	20256
901.069	20157
901.189	20016
901.308	19655
901.427	19662
901.546	19700
901.665	19738
901.784	19712
901.904	19575
902.023	19521
902.141	19244
902.26	19301
902.379	19350
902.498	19335
902.617	19183
902.735	19183
902.854	19152
902.973	19148
903.091	18852
903.21	18798
903.328	18745
903.446	18738
903.565	18696
903.683	18650
903.801	18483
903.919	18631
904.038	18585
904.156	18498
904.274	18513
904.392	18384
904.51	18327
904.627	18338
904.745	18426
904.863	18498
904.981	18152
905.098	18079
905.216	18114
905.334	18121
905.451	18034
905.569	18110
905.686	18266
905.803	18144
905.921	17885
906.038	18003
906.155	17950
906.272	17901
906.389	17863
906.506	17703
906.623	17665
906.74	17638
906.857	17532
906.974	17539
907.091	17809
907.208	17733
907.324	17562
907.441	17520
907.557	17425
907.674	17341
907.79	17303
907.907	17277
908.023	17296
908.139	17303
908.256	17395
908.372	17231
908.488	17254
908.604	17033
908.72	16995
908.836	17056
908.952	17052
909.068	17109
909.184	17045
909.3	17037
909.415	17105
909.531	17056
909.647	16828
909.762	16847
909.878	16702
909.993	16877
910.108	16763
910.224	16710
910.339	16786
910.454	16763
910.57	16588
910.685	16500
910.8	16824
910.915	16733
911.03	16588
911.145	16451
911.259	16390
911.374	16287
911.489	16284
911.604	16276
911.718	16230
911.833	16124
911.947	16017
912.062	15934
912.176	16051
912.291	16059
912.405	16036
912.519	16265
912.633	16261
912.748	16181
912.862	16071
912.976	15876
913.09	15888
913.204	15892
913.318	15960
913.431	15964
913.545	15895
913.659	16002
913.772	15899
913.886	15804
914	15743
914.113	15869
914.226	15930
914.34	15785
914.453	15652
914.566	15671
914.68	15637
914.793	15603
914.906	15393
915.019	15264
915.132	15233
915.245	15382
915.358	15336
915.47	15332
915.583	15283
915.696	15359
915.809	15367
915.921	15496
916.034	15230
916.146	15256
916.259	15180
916.371	15180
916.483	15275
916.595	15249
916.708	15116
916.82	15123
916.932	15142
917.044	15074
917.156	15138
917.268	14979
917.38	15013
917.491	15028
917.603	14921
917.715	15039
917.826	15055
917.938	14925
918.049	14765
918.161	14975
918.272	15058
918.384	15020
918.495	14819
918.606	14861
918.717	14667
918.828	14663
918.939	14746
919.05	14606
919.161	14788
919.272	14454
919.383	14686
919.494	14834
919.604	14952
919.715	14682
919.826	14549
919.936	14716
920.047	14750
920.157	14739
920.267	14800
920.378	14678
920.488	14613
920.598	14823
920.708	15055
920.818	14815
920.928	14758
921.038	14918
921.148	14883
921.258	14632
921.368	14549
921.477	14419
921.587	14400
921.697	14313
921.806	14431
921.916	14259
922.025	14084
922.134	14123
922.244	14008
922.353	14130
922.462	13928
922.571	13769
922.68	13727
922.789	13544
922.898	13670
923.007	13700
923.116	13662
923.224	13708
923.333	13693
923.442	13468
923.55	13544
923.659	13499
923.767	13643
923.876	13544
923.984	13537
924.092	13403
924.201	13384
924.309	13457
924.417	13384
924.525	13259
924.633	13346
924.741	14183
924.849	13194
924.956	13339
925.064	13110
925.172	13019
925.279	13053
925.387	13190
925.494	13004
925.602	13232
925.709	13069
925.816	12989
925.924	13042
926.031	13187
926.138	12966
926.245	13072
926.352	12928
926.459	13046
926.566	13057
926.673	12993
926.779	12802
926.886	12802
926.993	12726
927.099	12684
927.206	12642
927.312	12654
927.419	12715
927.525	12669
927.631	12665
927.737	12525
927.843	12521
927.95	12365
928.056	12475
928.162	12536
928.267	12601
928.373	13072
928.479	12528
928.585	12330
928.69	12467
928.796	12502
928.901	12372
929.007	12068
929.112	12365
929.218	12281
929.323	12205
929.428	12209
929.533	12395
929.638	12114
929.743	12076
929.848	12213
929.953	12182
930.058	12068
930.163	11878
930.267	11851
930.372	11969
930.477	11821
930.581	12079
930.685	11847
930.79	11764
930.894	11771
930.998	11756
931.103	11847
931.207	11452
931.311	11501
931.415	11356
931.519	11159
931.623	11128
