Data from test_V78500241_1924.txt Node
Date: Fri Mar 25 15:23:15 CST 2022
User: usil
Spectrometer: V785-0024
Trigger mode: 0
Integration Time (sec): 4.000000E-1
Scans to average: 1
Nonlinearity correction enabled: false
Boxcar width: 0
Storing dark spectrum: false
XAxis mode: Wavelengths
Number of Pixels in Spectrum: 1024
>>>>>Begin Spectral Data<<<<<
801.071	27785
801.214	27656
801.356	27401
801.499	27431
801.641	27348
801.783	27355
801.926	27382
802.068	27173
802.211	27142
802.353	27222
802.496	26921
802.638	26956
802.78	26994
802.923	26815
803.065	26872
803.208	26819
803.35	27051
803.492	27150
803.635	27036
803.777	26975
803.919	27230
804.061	27462
804.204	27150
804.346	27096
804.488	27024
804.63	26929
804.773	27020
804.915	27036
805.057	27192
805.199	27013
805.341	27032
805.483	27138
805.626	27420
805.768	27146
805.91	27207
806.052	27252
806.194	27207
806.336	27462
806.478	27237
806.62	27199
806.762	27252
806.904	27458
807.046	27652
807.188	27698
807.33	27812
807.472	27682
807.614	27496
807.756	27625
807.898	27564
808.04	27393
808.182	27549
808.324	27530
808.465	27694
808.607	27857
808.749	27865
808.891	27968
809.033	28048
809.174	28006
809.316	27751
809.458	27895
809.6	27876
809.741	27987
809.883	27873
810.025	28215
810.166	28246
810.308	28219
810.45	28074
810.591	28051
810.733	27899
810.875	27800
811.016	27675
811.158	27766
811.299	27888
811.441	27983
811.582	27975
811.724	27800
811.865	27831
812.007	27804
812.148	27903
812.29	27911
812.431	28059
812.573	28147
812.714	28333
812.855	28424
812.997	28398
813.138	28733
813.279	28440
813.421	28386
813.562	28413
813.703	28207
813.845	28025
813.986	27823
814.127	27694
814.268	27530
814.41	27553
814.551	27667
814.692	27694
814.833	27576
814.974	27519
815.115	27557
815.256	27473
815.397	27401
815.539	27458
815.68	27454
815.821	27275
815.962	27291
816.103	27226
816.244	27173
816.385	27116
816.526	27123
816.666	26906
816.807	26727
816.948	26895
817.089	26899
817.23	26819
817.371	26792
817.512	26845
817.653	26758
817.793	26701
817.934	26861
818.075	26853
818.216	26796
818.356	26670
818.497	26758
818.638	26560
818.778	26701
818.919	26689
819.06	26636
819.2	26670
819.341	26765
819.481	26899
819.622	26929
819.762	27112
819.903	26952
820.043	27062
820.184	26967
820.324	26979
820.465	27017
820.605	26952
820.746	26921
820.886	26708
821.026	26899
821.167	26796
821.307	26952
821.447	26667
821.588	26746
821.728	26503
821.868	26412
822.008	26225
822.149	26446
822.289	26233
822.429	25974
822.569	25993
822.709	25921
822.849	25799
822.99	25898
823.13	25864
823.27	25677
823.41	25708
823.55	25556
823.69	25635
823.83	25757
823.97	25415
824.11	25358
824.25	25354
824.389	25434
824.529	25487
824.669	25422
824.809	25563
824.949	25419
825.089	25506
825.228	25597
825.368	25228
825.508	25350
825.648	25350
825.787	25415
825.927	25335
826.067	25327
826.206	25297
826.346	25388
826.485	25282
826.625	25373
826.765	25419
826.904	25457
827.044	25034
827.183	25034
827.323	24970
827.462	24992
827.601	25034
827.741	25027
827.88	24989
828.02	24943
828.159	24920
828.298	24951
828.437	25061
828.577	24943
828.716	25129
828.855	24894
828.994	24673
829.134	24620
829.273	24703
829.412	24604
829.551	24764
829.69	24726
829.829	24791
829.968	24897
830.107	24897
830.246	24768
830.385	24726
830.524	24559
830.663	24642
830.802	24365
830.941	24399
831.08	24243
831.219	24517
831.357	24547
831.496	24589
831.635	24277
831.774	24228
831.913	24220
832.051	24266
832.19	24140
832.329	24095
832.467	24087
832.606	24079
832.744	23988
832.883	23973
833.022	23980
833.16	24087
833.299	24076
833.437	24003
833.576	24190
833.714	24026
833.852	24186
833.991	24068
834.129	24114
834.267	24327
834.406	24057
834.544	24178
834.682	24205
834.821	24102
834.959	24323
835.097	24030
835.235	24049
835.373	24011
835.511	24064
835.65	23984
835.788	23942
835.926	23889
836.064	23676
836.202	23745
836.34	23885
836.478	23958
836.615	23885
836.753	23904
836.891	24018
837.029	23908
837.167	23821
837.305	23874
837.443	23851
837.58	23714
837.718	23756
837.856	23828
837.993	23695
838.131	23840
838.269	23657
838.406	23581
838.544	23505
838.681	23421
838.819	23356
838.956	23254
839.094	23254
839.231	23383
839.369	23360
839.506	23630
839.643	23573
839.781	23368
839.918	23083
840.055	23242
840.193	23235
840.33	23189
840.467	23185
840.604	23128
840.742	23356
840.879	23250
841.016	23105
841.153	23048
841.29	23318
841.427	23235
841.564	23204
841.701	23098
841.838	23140
841.975	23151
842.112	23151
842.249	23105
842.385	22896
842.522	23098
842.659	23014
842.796	22889
842.933	22824
843.069	22850
843.206	22805
843.343	23090
843.479	22858
843.616	22984
843.752	22793
843.889	22725
844.025	22915
844.162	22687
844.298	22812
844.435	22596
844.571	22645
844.708	22755
844.844	22736
844.98	22831
845.117	22873
845.253	22656
845.389	22611
845.525	22561
845.661	22497
845.798	22546
845.934	22565
846.07	22402
846.206	22481
846.342	22500
846.478	22360
846.614	22303
846.75	22188
846.886	22211
847.022	22306
847.158	22150
847.294	22185
847.429	22272
847.565	22173
847.701	22352
847.837	21876
847.972	21827
848.108	21968
848.244	21953
848.379	21595
848.515	21785
848.65	21797
848.786	21774
848.921	21774
849.057	21835
849.192	21850
849.328	21766
849.463	21698
849.598	21694
849.734	21713
849.869	21553
850.004	21660
850.14	21580
850.275	21603
850.41	21450
850.545	21481
850.68	21568
850.815	21504
850.95	21481
851.085	21656
851.22	21610
851.355	21587
851.49	21557
851.625	21454
851.76	21549
851.895	21401
852.03	21355
852.165	21534
852.299	21408
852.434	21526
852.569	21431
852.703	21564
852.838	21530
852.973	21800
853.107	21580
853.242	21561
853.376	21443
853.511	21336
853.645	21298
853.78	21405
853.914	21325
854.048	21291
854.183	21180
854.317	21359
854.451	21557
854.585	21249
854.72	21317
854.854	21473
854.988	21272
855.122	21340
855.256	21104
855.39	21378
855.524	21401
855.658	21351
855.792	21332
855.926	21420
856.06	21405
856.194	21355
856.327	21329
856.461	21275
856.595	21241
856.729	21317
856.862	21424
856.996	21397
857.13	21389
857.263	21435
857.397	21237
857.53	21374
857.664	21302
857.797	21317
857.931	21420
858.064	21310
858.197	21386
858.331	21268
858.464	21207
858.597	21218
858.731	21195
858.864	21222
858.997	21355
859.13	21374
859.263	21325
859.396	21420
859.529	21351
859.662	21241
859.795	21203
859.928	21351
860.061	21382
860.194	21576
860.327	21428
860.46	21386
860.592	21450
860.725	21431
860.858	21439
860.99	21348
861.123	21241
861.256	21256
861.388	21310
861.521	22059
861.653	21237
861.786	21188
861.918	21150
862.05	21222
862.183	21192
862.315	21176
862.447	21275
862.58	21230
862.712	21157
862.844	21028
862.976	21116
863.108	21066
863.24	21439
863.372	21051
863.504	21047
863.636	21146
863.768	21119
863.9	21001
864.032	21058
864.164	21024
864.296	20986
864.428	21013
864.559	21116
864.691	21039
864.823	21127
864.954	21150
865.086	21039
865.217	21001
865.349	20929
865.48	20986
865.612	21009
865.743	21036
865.875	20861
866.006	20948
866.137	20944
866.269	20811
866.4	20864
866.531	20826
866.662	20876
866.793	20921
866.924	20785
867.055	20880
867.186	20880
867.317	20807
867.448	20800
867.579	20921
867.71	20689
867.841	20769
867.972	20933
868.103	20804
868.233	21001
868.364	20785
868.495	20902
868.625	20937
868.756	21161
868.886	21150
869.017	21093
869.147	21146
869.278	21226
869.408	21131
869.539	21055
869.669	21237
869.799	21275
869.929	21313
870.06	21154
870.19	21401
870.32	21428
870.45	21405
870.58	21564
870.71	21648
870.84	21667
870.97	21572
871.1	21477
871.23	21656
871.36	21682
871.489	21663
871.619	21633
871.749	21583
871.879	21618
872.008	21861
872.138	21633
872.267	21739
872.397	21549
872.526	21462
872.656	21614
872.785	21500
872.915	21686
873.044	21793
873.173	21793
873.303	21759
873.432	21663
873.561	21899
873.69	21812
873.819	21641
873.948	21850
874.077	21774
874.206	21747
874.335	21679
874.464	21876
874.593	21994
874.722	21880
874.851	22032
874.979	21907
875.108	21991
875.237	21819
875.365	21861
875.494	21934
875.623	21987
875.751	21857
875.88	22048
876.008	21991
876.136	22185
876.265	22417
876.393	22500
876.521	22478
876.65	22459
876.778	22405
876.906	22344
877.034	22265
877.162	22287
877.29	22314
877.418	22318
877.546	22344
877.674	22306
877.802	22192
877.93	22295
878.058	22306
878.185	22177
878.313	22204
878.441	22360
878.568	22067
878.696	22276
878.824	22398
878.951	22363
879.079	22447
879.206	22485
879.333	22424
879.461	22390
879.588	22459
879.715	22462
879.842	22630
879.97	22478
880.097	22154
880.224	22143
880.351	22162
880.478	22173
880.605	22078
880.732	22128
880.859	22440
880.986	22158
881.112	22177
881.239	22048
881.366	21869
881.493	21804
881.619	21694
881.746	21713
881.872	21736
881.999	21599
882.125	21739
882.252	21812
882.378	21595
882.505	21827
882.631	21618
882.757	21488
882.883	21515
883.01	21443
883.136	21355
883.262	21287
883.388	21192
883.514	21443
883.64	21408
883.766	21313
883.892	21119
884.018	21260
884.143	21325
884.269	21530
884.395	21173
884.52	21165
884.646	21116
884.772	21066
884.897	20956
885.023	21161
885.148	21074
885.274	21233
885.399	21104
885.524	21058
885.65	21074
885.775	21051
885.9	21093
886.025	21192
886.15	21142
886.275	21017
886.4	20960
886.525	21020
886.65	21024
886.775	20967
886.9	21150
887.025	21237
887.149	21055
887.274	20914
887.399	20823
887.523	20842
887.648	20845
887.773	20708
887.897	20864
888.021	20929
888.146	20735
888.27	21005
888.395	20845
888.519	20941
888.643	20891
888.767	20838
888.891	20701
889.015	20629
889.139	20800
889.263	20636
889.387	20804
889.511	20845
889.635	20872
889.759	20667
889.883	20575
890.006	20575
890.13	20781
890.254	20522
890.377	20514
890.501	20461
890.624	20495
890.748	20393
890.871	20240
890.995	20301
891.118	20191
891.241	20233
891.364	20168
891.488	20332
891.611	20339
891.734	20202
891.857	20271
891.98	20195
892.103	20244
892.226	20187
892.349	20221
892.471	20050
892.594	20145
892.717	20039
892.839	20168
892.962	20092
893.085	20145
893.207	20202
893.33	20050
893.452	19982
893.575	20195
893.697	20161
893.819	20309
893.941	20278
894.064	20221
894.186	20107
894.308	19986
894.43	20187
894.552	20336
894.674	20119
894.796	20039
894.918	20164
895.04	20069
895.161	20225
895.283	20111
895.405	20103
895.526	20024
895.648	19986
895.769	20161
895.891	20077
896.012	20248
896.134	20225
896.255	20077
896.376	20126
896.498	20130
896.619	20145
896.74	20077
896.861	20122
896.982	20514
897.103	20499
897.224	20336
897.345	20271
897.466	20393
897.587	20259
897.708	20503
897.828	20317
897.949	20183
898.07	20218
898.19	20358
898.311	20385
898.431	20324
898.552	20343
898.672	20442
898.792	20438
898.913	20358
899.033	20145
899.153	20138
899.273	20001
899.393	20187
899.513	20183
899.633	20077
899.753	20130
899.873	19963
899.993	20031
900.113	19944
900.232	20077
900.352	20008
900.472	19970
900.591	19818
900.711	19769
900.83	19734
900.95	19978
901.069	19936
901.189	19833
901.308	19476
901.427	19415
901.546	19449
901.665	19514
901.784	19559
901.904	19354
902.023	19156
902.141	18973
902.26	19050
902.379	19069
902.498	18954
902.617	18897
902.735	18985
902.854	18924
902.973	18909
903.091	18627
903.21	18589
903.328	18612
903.446	18460
903.565	18452
903.683	18327
903.801	18369
903.919	18471
904.038	18403
904.156	18178
904.274	18152
904.392	18239
904.51	18091
904.627	18182
904.745	18243
904.863	18262
904.981	18011
905.098	17882
905.216	17977
905.334	17840
905.451	17954
905.569	17832
905.686	17878
905.803	17859
905.921	17592
906.038	17752
906.155	17634
906.272	17611
906.389	17573
906.506	17539
906.623	17391
906.74	17360
906.857	17242
906.974	17273
907.091	17482
907.208	17524
907.324	17482
907.441	17318
907.557	17166
907.674	17162
907.79	17060
907.907	17025
908.023	17197
908.139	17132
908.256	17014
908.372	16889
908.488	16984
908.604	16965
908.72	16831
908.836	16805
908.952	16759
909.068	16927
909.184	16843
909.3	16835
909.415	16809
909.531	16774
909.647	16596
909.762	16584
909.878	16500
909.993	16573
910.108	16497
910.224	16527
910.339	16569
910.454	16424
910.57	16337
910.685	16287
910.8	16577
910.915	16424
911.03	16356
911.145	16135
911.259	16166
911.374	16135
911.489	16063
911.604	16017
911.718	15987
911.833	15884
911.947	15701
912.062	15679
912.176	15778
912.291	15854
912.405	15876
912.519	16006
912.633	16036
912.748	15968
912.862	15918
912.976	15732
913.09	15595
913.204	15561
913.318	15690
913.431	15823
913.545	15819
913.659	15816
913.772	15667
913.886	15466
914	15454
914.113	15576
914.226	15671
914.34	15576
914.453	15420
914.566	15530
914.68	15291
914.793	15264
914.906	15203
915.019	15180
915.132	15043
915.245	14998
915.358	15135
915.47	15135
915.583	15085
915.696	15116
915.809	15252
915.921	15195
916.034	15108
916.146	14971
916.259	15009
916.371	15097
916.483	15047
916.595	14887
916.708	14998
916.82	14960
916.932	14883
917.044	14902
917.156	14849
917.268	14724
917.38	14899
917.491	14674
917.603	14883
917.715	14773
917.826	14883
917.938	14682
918.049	14579
918.161	14735
918.272	14864
918.384	14785
918.495	14613
918.606	14454
918.717	14514
918.828	14549
918.939	14518
919.05	14503
919.161	14499
919.272	14309
919.383	14412
919.494	14533
919.604	14731
919.715	14499
919.826	14427
919.936	14450
920.047	14518
920.157	14541
920.267	14705
920.378	14503
920.488	14290
920.598	14693
920.708	14823
920.818	14549
920.928	14556
921.038	14743
921.148	14701
921.258	14511
921.368	14309
921.477	14210
921.587	14195
921.697	14069
921.806	14263
921.916	14130
922.025	14001
922.134	13906
922.244	13742
922.353	13917
922.462	13742
922.571	13643
922.68	13438
922.789	13426
922.898	13464
923.007	13525
923.116	13540
923.224	13518
923.333	13514
923.442	13369
923.55	13415
923.659	13282
923.767	13377
923.876	13213
923.984	13384
924.092	13263
924.201	13335
924.309	13335
924.417	13225
924.525	13091
924.633	13160
924.741	14043
924.849	12973
924.956	13110
925.064	12962
925.172	12848
925.279	12821
925.387	12954
925.494	12886
925.602	13031
925.709	12962
925.816	12848
925.924	12791
926.031	12894
926.138	12894
926.245	12825
926.352	12821
926.459	12867
926.566	12943
926.673	12844
926.779	12669
926.886	12627
926.993	12536
927.099	12506
927.206	12384
927.312	12452
927.419	12525
927.525	12490
927.631	12517
927.737	12380
927.843	12285
927.95	12251
928.056	12281
928.162	12330
928.267	12323
928.373	12760
928.479	12437
928.585	12095
928.69	12254
928.796	12308
928.901	12102
929.007	12083
929.112	12209
929.218	12209
929.323	12087
929.428	12038
929.533	12175
929.638	12011
929.743	11904
929.848	12045
929.953	11882
930.058	11847
930.163	11634
930.267	11737
930.372	11897
930.477	11665
930.581	11832
930.685	11798
930.79	11558
930.894	11676
930.998	11596
931.103	11729
931.207	11337
931.311	11296
931.415	11242
931.519	10949
931.623	10942
