Data from test_V78500241_2004.txt Node
Date: Fri Mar 25 15:23:48 CST 2022
User: usil
Spectrometer: V785-0024
Trigger mode: 0
Integration Time (sec): 4.000000E-1
Scans to average: 1
Nonlinearity correction enabled: false
Boxcar width: 0
Storing dark spectrum: false
XAxis mode: Wavelengths
Number of Pixels in Spectrum: 1024
>>>>>Begin Spectral Data<<<<<
801.071	27709
801.214	27557
801.356	27329
801.499	27245
801.641	27245
801.783	27146
801.926	27230
802.068	27150
802.211	27108
802.353	27039
802.496	26834
802.638	26739
802.78	26720
802.923	26746
803.065	26788
803.208	26849
803.35	26830
803.492	26990
803.635	27119
803.777	26880
803.919	27028
804.061	27161
804.204	26998
804.346	26933
804.488	26986
804.63	26952
804.773	26906
804.915	27089
805.057	26944
805.199	26998
805.341	27058
805.483	27150
805.626	27070
805.768	26845
805.91	27001
806.052	27039
806.194	27070
806.336	27230
806.478	27051
806.62	27230
806.762	27370
806.904	27424
807.046	27583
807.188	27603
807.33	27583
807.472	27538
807.614	27504
807.756	27523
807.898	27306
808.04	27336
808.182	27386
808.324	27454
808.465	27378
808.607	27603
808.749	27812
808.891	27827
809.033	27819
809.174	27880
809.316	27736
809.458	27690
809.6	27766
809.741	27827
809.883	27736
810.025	28025
810.166	28055
810.308	28013
810.45	27842
810.591	27766
810.733	27876
810.875	27667
811.016	27705
811.158	27530
811.299	27880
811.441	27827
811.582	27842
811.724	27732
811.865	27724
812.007	27667
812.148	27755
812.29	27888
812.431	27964
812.573	28059
812.714	28158
812.855	28280
812.997	28261
813.138	28466
813.279	28348
813.421	28257
813.562	28291
813.703	28154
813.845	28116
813.986	27682
814.127	27530
814.268	27538
814.41	27595
814.551	27500
814.692	27420
814.833	27397
814.974	27382
815.115	27481
815.256	27325
815.397	27230
815.539	27313
815.68	27245
815.821	27142
815.962	27302
816.103	27127
816.244	27081
816.385	27070
816.526	27028
816.666	26838
816.807	26705
816.948	26788
817.089	26811
817.23	26754
817.371	26712
817.512	26674
817.653	26773
817.793	26575
817.934	26921
818.075	26670
818.216	26598
818.356	26613
818.497	26621
818.638	26427
818.778	26393
818.919	26343
819.06	26473
819.2	26640
819.341	26716
819.481	26689
819.622	26716
819.762	27062
819.903	26929
820.043	26975
820.184	26986
820.324	26891
820.465	26940
820.605	26823
820.746	26705
820.886	26697
821.026	26762
821.167	26587
821.307	26800
821.447	26625
821.588	26667
821.728	26396
821.868	26267
822.008	26187
822.149	26240
822.289	26187
822.429	25818
822.569	25776
822.709	25966
822.849	25761
822.99	25655
823.13	25719
823.27	25719
823.41	25582
823.55	25377
823.69	25441
823.83	25445
823.97	25563
824.11	25263
824.25	25232
824.389	25213
824.529	25388
824.669	25358
824.809	25464
824.949	25320
825.089	25388
825.228	25301
825.368	25095
825.508	25118
825.648	25137
825.787	25137
825.927	25228
826.067	25206
826.206	25152
826.346	25270
826.485	25156
826.625	25069
826.765	25209
826.904	25179
827.044	25042
827.183	24867
827.323	24821
827.462	24863
827.601	24821
827.741	24833
827.88	24905
828.02	24734
828.159	24875
828.298	24825
828.437	24859
828.577	24768
828.716	24992
828.855	24905
828.994	24688
829.134	24525
829.273	24734
829.412	24460
829.551	24521
829.69	24532
829.829	24593
829.968	24677
830.107	24776
830.246	24517
830.385	24578
830.524	24585
830.663	24235
830.802	24292
830.941	24186
831.08	24076
831.219	24186
831.357	24273
831.496	24483
831.635	24190
831.774	24117
831.913	24106
832.051	23965
832.19	24041
832.329	24079
832.467	23939
832.606	23843
832.744	23821
832.883	23977
833.022	23931
833.16	23939
833.299	23961
833.437	23912
833.576	23920
833.714	23942
833.852	23935
833.991	23965
834.129	24049
834.267	23942
834.406	24041
834.544	23980
834.682	23859
834.821	23923
834.959	24095
835.097	23836
835.235	23996
835.373	23961
835.511	23946
835.65	23866
835.788	23889
835.926	23619
836.064	23703
836.202	23649
836.34	23661
836.478	23840
836.615	23809
836.753	23836
836.891	23741
837.029	23790
837.167	23748
837.305	23638
837.443	23676
837.58	23535
837.718	23649
837.856	23653
837.993	23589
838.131	23657
838.269	23436
838.406	23531
838.544	23558
838.681	23318
838.819	23356
838.956	23105
839.094	23098
839.231	23208
839.369	23284
839.506	23406
839.643	23421
839.781	23071
839.918	22976
840.055	22957
840.193	23029
840.33	22999
840.467	23037
840.604	22980
840.742	23292
840.879	22873
841.016	22889
841.153	22900
841.29	23090
841.427	23044
841.564	22987
841.701	23052
841.838	22938
841.975	22877
842.112	22869
842.249	22771
842.385	22672
842.522	22915
842.659	22733
842.796	22763
842.933	22812
843.069	22752
843.206	22752
843.343	22672
843.479	22626
843.616	22816
843.752	22672
843.889	22493
844.025	22641
844.162	22538
844.298	22683
844.435	22508
844.571	22493
844.708	22508
844.844	22691
844.98	22588
845.117	22523
845.253	22607
845.389	22417
845.525	22363
845.661	22249
845.798	22173
845.934	22306
846.07	22322
846.206	22246
846.342	22443
846.478	22242
846.614	22116
846.75	21895
846.886	21934
847.022	22059
847.158	21968
847.294	22040
847.429	22029
847.565	21953
847.701	22310
847.837	21797
847.972	21747
848.108	22017
848.244	21778
848.379	21736
848.515	21561
848.65	21603
848.786	21492
848.921	21629
849.057	21606
849.192	21724
849.328	21641
849.463	21553
849.598	21553
849.734	21462
849.869	21443
850.004	21283
850.14	21488
850.275	21401
850.41	21283
850.545	21466
850.68	21359
850.815	21359
850.95	21287
851.085	21511
851.22	21469
851.355	21306
851.49	21393
851.625	21233
851.76	21310
851.895	21370
852.03	21199
852.165	21310
852.299	21283
852.434	21488
852.569	21359
852.703	21447
852.838	21393
852.973	21500
853.107	21473
853.242	21264
853.376	21150
853.511	21154
853.645	21154
853.78	21325
853.914	21150
854.048	21161
854.183	21211
854.317	21294
854.451	21454
854.585	21218
854.72	21218
854.854	21298
854.988	21169
855.122	21169
855.256	21005
855.39	21146
855.524	21199
855.658	21184
855.792	21291
855.926	21180
856.06	21203
856.194	21222
856.327	21237
856.461	21154
856.595	21032
856.729	21195
856.862	21180
856.996	21108
857.13	21218
857.263	21306
857.397	21287
857.53	21195
857.664	21268
857.797	21241
857.931	21321
858.064	21192
858.197	21252
858.331	21222
858.464	21112
858.597	21199
858.731	21241
858.864	21203
858.997	21100
859.13	21142
859.263	21176
859.396	21272
859.529	21074
859.662	21195
859.795	21135
859.928	21192
860.061	21431
860.194	21363
860.327	21294
860.46	21298
860.592	21264
860.725	21351
860.858	21260
860.99	21222
861.123	21176
861.256	21169
861.388	21157
861.521	21842
861.653	21051
861.786	21028
861.918	21036
862.05	21116
862.183	21321
862.315	21154
862.447	21150
862.58	21074
862.712	20918
862.844	21058
862.976	20902
863.108	20971
863.24	21439
863.372	20914
863.504	21047
863.636	20956
863.768	20975
863.9	20963
864.032	20941
864.164	20838
864.296	21020
864.428	21142
864.559	21036
864.691	21024
864.823	20830
864.954	20876
865.086	20994
865.217	20944
865.349	20701
865.48	20899
865.612	20861
865.743	21062
865.875	20781
866.006	20823
866.137	20857
866.269	20807
866.4	20750
866.531	20750
866.662	20712
866.793	20724
866.924	20792
867.055	20663
867.186	20701
867.317	20769
867.448	20781
867.579	20785
867.71	20602
867.841	20648
867.972	20727
868.103	20651
868.233	20663
868.364	20754
868.495	20823
868.625	20849
868.756	21173
868.886	20929
869.017	21005
869.147	21169
869.278	21085
869.408	21001
869.539	21077
869.669	20998
869.799	20986
869.929	21207
870.06	21039
870.19	21218
870.32	21268
870.45	21298
870.58	21428
870.71	21564
870.84	21462
870.97	21416
871.1	21420
871.23	21500
871.36	21625
871.489	21466
871.619	21515
871.749	21660
871.879	21614
872.008	21724
872.138	21656
872.267	21724
872.397	21447
872.526	21336
872.656	21412
872.785	21447
872.915	21549
873.044	21747
873.173	21572
873.303	21671
873.432	21561
873.561	21747
873.69	21644
873.819	21709
873.948	21717
874.077	21713
874.206	21625
874.335	21671
874.464	21797
874.593	21724
874.722	21797
874.851	21869
874.979	21759
875.108	21880
875.237	21831
875.365	21800
875.494	21899
875.623	21922
875.751	21865
875.88	21869
876.008	21991
876.136	21880
876.265	22253
876.393	22535
876.521	22257
876.65	22325
876.778	22268
876.906	22067
877.034	22169
877.162	22147
877.29	22162
877.418	22188
877.546	22181
877.674	22082
877.802	22223
877.93	22215
878.058	22166
878.185	22105
878.313	22120
878.441	22120
878.568	21949
878.696	22177
878.824	22265
878.951	22185
879.079	22417
879.206	22493
879.333	22356
879.461	22223
879.588	22246
879.715	22356
879.842	22367
879.97	22280
880.097	22040
880.224	22010
880.351	21983
880.478	22025
880.605	21979
880.732	21937
880.859	22135
880.986	22063
881.112	22002
881.239	21876
881.366	21800
881.493	21724
881.619	21637
881.746	21561
881.872	21644
881.999	21492
882.125	21466
882.252	21610
882.378	21564
882.505	21610
882.631	21359
882.757	21348
882.883	21405
883.01	21211
883.136	21256
883.262	21150
883.388	21184
883.514	21268
883.64	21424
883.766	21268
883.892	21081
884.018	21093
884.143	21150
884.269	21283
884.395	20902
884.52	20857
884.646	20975
884.772	20975
884.897	20883
885.023	21001
885.148	21138
885.274	21127
885.399	21074
885.524	20933
885.65	21013
885.775	20880
885.9	20918
886.025	21108
886.15	21089
886.275	20895
886.4	20781
886.525	20906
886.65	20796
886.775	20876
886.9	20952
887.025	21150
887.149	20925
887.274	20655
887.399	20716
887.523	20579
887.648	20644
887.773	20533
887.897	20781
888.021	20765
888.146	20575
888.27	20686
888.395	20796
888.519	20758
888.643	20689
888.767	20792
888.891	20663
889.015	20476
889.139	20617
889.263	20393
889.387	20625
889.511	20629
889.635	20552
889.759	20370
889.883	20442
890.006	20427
890.13	20587
890.254	20343
890.377	20347
890.501	20286
890.624	20119
890.748	20374
890.871	20069
890.995	20096
891.118	19997
891.241	20088
891.364	20039
891.488	20225
891.611	20115
891.734	20027
891.857	20039
891.98	20126
892.103	20081
892.226	20092
892.349	20039
892.471	19890
892.594	19974
892.717	20012
892.839	20005
892.962	19925
893.085	19986
893.207	19963
893.33	19822
893.452	19826
893.575	19993
893.697	19894
893.819	20149
893.941	20309
894.064	20062
894.186	19894
894.308	19921
894.43	20130
894.552	20126
894.674	20092
894.796	19852
894.918	19997
895.04	20046
895.161	20088
895.283	20073
895.405	19833
895.526	20020
895.648	20058
895.769	19947
895.891	20005
896.012	20031
896.134	19963
896.255	19970
896.376	19967
896.498	19852
896.619	20027
896.74	19883
896.861	20054
896.982	20370
897.103	20423
897.224	20240
897.345	20164
897.466	20107
897.587	20069
897.708	20256
897.828	20263
897.949	20145
898.07	20084
898.19	20103
898.311	20298
898.431	20229
898.552	20263
898.672	20202
898.792	20252
898.913	20244
899.033	20039
899.153	20001
899.273	19852
899.393	20020
899.513	19947
899.633	20001
899.753	20092
899.873	19917
899.993	20039
900.113	19849
900.232	19807
900.352	19928
900.472	19784
900.591	19635
900.711	19746
900.83	19670
900.95	19746
901.069	19898
901.189	19666
901.308	19449
901.427	19384
901.546	19266
901.665	19400
901.784	19304
901.904	19160
902.023	19065
902.141	18802
902.26	18795
902.379	18935
902.498	18901
902.617	18741
902.735	18973
902.854	18802
902.973	18623
903.091	18509
903.21	18578
903.328	18563
903.446	18536
903.565	18281
903.683	18292
903.801	18182
903.919	18258
904.038	18285
904.156	18060
904.274	18140
904.392	18045
904.51	18053
904.627	18041
904.745	18205
904.863	18117
904.981	17863
905.098	17726
905.216	17638
905.334	17775
905.451	17863
905.569	17710
905.686	17790
905.803	17741
905.921	17505
906.038	17680
906.155	17627
906.272	17433
906.389	17322
906.506	17242
906.623	17326
906.74	17284
906.857	17113
906.974	17185
907.091	17284
907.208	17448
907.324	17368
907.441	17132
907.557	17113
907.674	17052
907.79	16972
907.907	17006
908.023	17075
908.139	16976
908.256	16980
908.372	16869
908.488	16889
908.604	16759
908.72	16767
908.836	16717
908.952	16622
909.068	16698
909.184	16771
909.3	16755
909.415	16755
909.531	16725
909.647	16519
909.762	16424
909.878	16360
909.993	16432
910.108	16402
910.224	16440
910.339	16367
910.454	16234
910.57	16257
910.685	16101
910.8	16398
910.915	16325
911.03	16230
911.145	16101
911.259	16040
911.374	16040
911.489	16002
911.604	15907
911.718	15774
911.833	15690
911.947	15667
912.062	15679
912.176	15717
912.291	15698
912.405	15717
912.519	15949
912.633	15892
912.748	15808
912.862	15774
912.976	15504
913.09	15545
913.204	15660
913.318	15557
913.431	15625
913.545	15622
913.659	15606
913.772	15564
913.886	15416
914	15401
914.113	15466
914.226	15408
914.34	15405
914.453	15359
914.566	15424
914.68	15321
914.793	15348
914.906	15055
915.019	15024
915.132	14857
915.245	14994
915.358	14952
915.47	15085
915.583	14960
915.696	15104
915.809	15157
915.921	15180
916.034	14937
916.146	14902
916.259	14941
916.371	15062
916.483	14956
916.595	14834
916.708	14902
916.82	14842
916.932	14830
917.044	14743
917.156	14686
917.268	14625
917.38	14610
917.491	14697
917.603	14670
917.715	14724
917.826	14663
917.938	14629
918.049	14594
918.161	14568
918.272	14773
918.384	14667
918.495	14571
918.606	14549
918.717	14343
918.828	14400
918.939	14488
919.05	14305
919.161	14438
919.272	14172
919.383	14286
919.494	14461
919.604	14602
919.715	14385
919.826	14294
919.936	14351
920.047	14503
920.157	14343
920.267	14587
920.378	14446
920.488	14240
920.598	14560
920.708	14670
920.818	14499
920.928	14545
921.038	14648
921.148	14613
921.258	14275
921.368	14282
921.477	14130
921.587	14168
921.697	13955
921.806	14164
921.916	13955
922.025	13845
922.134	13795
922.244	13712
922.353	13719
922.462	13624
922.571	13540
922.68	13453
922.789	13346
922.898	13339
923.007	13343
923.116	13400
923.224	13449
923.333	13331
923.442	13236
923.55	13232
923.659	13301
923.767	13301
923.876	13236
923.984	13312
924.092	13156
924.201	13175
924.309	13129
924.417	13183
924.525	13061
924.633	13072
924.741	13814
924.849	12905
924.956	12989
925.064	12837
925.172	12772
925.279	12707
925.387	12897
925.494	12840
925.602	13057
925.709	12878
925.816	12692
925.924	12791
926.031	12897
926.138	12863
926.245	12760
926.352	12669
926.459	12757
926.566	12913
926.673	12646
926.779	12540
926.886	12658
926.993	12475
927.099	12418
927.206	12372
927.312	12433
927.419	12407
927.525	12445
927.631	12441
927.737	12296
927.843	12296
927.95	12163
928.056	12247
928.162	12270
928.267	12292
928.373	12814
928.479	12311
928.585	12098
928.69	12171
928.796	12285
928.901	12194
929.007	12026
929.112	12117
929.218	12144
929.323	11961
929.428	11946
929.533	12098
929.638	11912
929.743	11977
929.848	11965
929.953	11843
930.058	11809
930.163	11718
930.267	11665
930.372	11668
930.477	11604
930.581	11885
930.685	11714
930.79	11551
930.894	11592
930.998	11535
931.103	11684
931.207	11315
931.311	11273
931.415	11159
931.519	10900
931.623	10873
