Data from test_V78500241_2851.txt Node
Date: Fri Mar 25 15:29:42 CST 2022
User: usil
Spectrometer: V785-0024
Trigger mode: 0
Integration Time (sec): 4.000000E-1
Scans to average: 1
Nonlinearity correction enabled: false
Boxcar width: 0
Storing dark spectrum: false
XAxis mode: Wavelengths
Number of Pixels in Spectrum: 1024
>>>>>Begin Spectral Data<<<<<
801.071	27119
801.214	27237
801.356	27005
801.499	26956
801.641	26864
801.783	26720
801.926	26887
802.068	26902
802.211	26777
802.353	26735
802.496	26457
802.638	26594
802.78	26499
802.923	26377
803.065	26423
803.208	26438
803.35	26450
803.492	26644
803.635	26651
803.777	26457
803.919	26762
804.061	26906
804.204	26754
804.346	26495
804.488	26613
804.63	26609
804.773	26495
804.915	26587
805.057	26682
805.199	26522
805.341	26590
805.483	26758
805.626	26739
805.768	26602
805.91	26590
806.052	26815
806.194	26682
806.336	26864
806.478	26746
806.62	26689
806.762	26899
806.904	26979
807.046	27252
807.188	27275
807.33	27192
807.472	27283
807.614	27070
807.756	27203
807.898	26948
808.04	26944
808.182	26956
808.324	27093
808.465	27085
808.607	27093
808.749	27310
808.891	27481
809.033	27462
809.174	27344
809.316	27427
809.458	27268
809.6	27329
809.741	27447
809.883	27424
810.025	27564
810.166	27637
810.308	27618
810.45	27572
810.591	27603
810.733	27370
810.875	27363
811.016	27272
811.158	27226
811.299	27405
811.441	27523
811.582	27511
811.724	27481
811.865	27439
812.007	27363
812.148	27161
812.29	27405
812.431	27580
812.573	27682
812.714	27713
812.855	27804
812.997	27975
813.138	28109
813.279	27937
813.421	27785
813.562	27960
813.703	27648
813.845	27553
813.986	27218
814.127	27184
814.268	27154
814.41	27047
814.551	27058
814.692	26960
814.833	26971
814.974	26998
815.115	27005
815.256	26891
815.397	26910
815.539	26971
815.68	26754
815.821	26720
815.962	26739
816.103	26769
816.244	26583
816.385	26473
816.526	26431
816.666	26389
816.807	26134
816.948	26218
817.089	26324
817.23	26244
817.371	26290
817.512	26187
817.653	26317
817.793	26153
817.934	26290
818.075	26218
818.216	26259
818.356	26248
818.497	26073
818.638	26035
818.778	26065
818.919	26043
819.06	26130
819.2	26278
819.341	26301
819.481	26275
819.622	26374
819.762	26632
819.903	26541
820.043	26518
820.184	26328
820.324	26263
820.465	26438
820.605	26362
820.746	26336
820.886	26275
821.026	26370
821.167	26393
821.307	26423
821.447	26229
821.588	26092
821.728	25993
821.868	25902
822.008	25689
822.149	25753
822.289	25704
822.429	25449
822.569	25312
822.709	25426
822.849	25244
822.99	25126
823.13	25278
823.27	25137
823.41	25023
823.55	24924
823.69	25114
823.83	25069
823.97	24992
824.11	24760
824.25	24783
824.389	24802
824.529	24966
824.669	24772
824.809	24871
824.949	24909
825.089	24932
825.228	24821
825.368	24700
825.508	24783
825.648	24696
825.787	24722
825.927	24913
826.067	24669
826.206	24715
826.346	24829
826.485	24753
826.625	24871
826.765	24840
826.904	24814
827.044	24422
827.183	24547
827.323	24452
827.462	24593
827.601	24471
827.741	24346
827.88	24426
828.02	24209
828.159	24346
828.298	24395
828.437	24445
828.577	24213
828.716	24323
828.855	24292
828.994	24053
829.134	24083
829.273	24114
829.412	24003
829.551	24003
829.69	24034
829.829	24098
829.968	24281
830.107	24136
830.246	24148
830.385	24003
830.524	23855
830.663	23977
830.802	23901
830.941	23665
831.08	23619
831.219	23843
831.357	23882
831.496	24015
831.635	23699
831.774	23661
831.913	23577
832.051	23471
832.19	23528
832.329	23634
832.467	23592
832.606	23334
832.744	23368
832.883	23280
833.022	23303
833.16	23318
833.299	23444
833.437	23356
833.576	23497
833.714	23505
833.852	23455
833.991	23501
834.129	23554
834.267	23493
834.406	23410
834.544	23547
834.682	23425
834.821	23395
834.959	23589
835.097	23463
835.235	23509
835.373	23531
835.511	23566
835.65	23429
835.788	23349
835.926	23246
836.064	23105
836.202	23143
836.34	23208
836.478	23208
836.615	23303
836.753	23216
836.891	23395
837.029	23273
837.167	23273
837.305	23079
837.443	23193
837.58	23121
837.718	23277
837.856	23223
837.993	23079
838.131	23033
838.269	22987
838.406	22991
838.544	22965
838.681	22729
838.819	22710
838.956	22599
839.094	22527
839.231	22683
839.369	22805
839.506	23022
839.643	22835
839.781	22569
839.918	22497
840.055	22717
840.193	22527
840.33	22379
840.467	22523
840.604	22569
840.742	22812
840.879	22367
841.016	22489
841.153	22421
841.29	22618
841.427	22599
841.564	22527
841.701	22554
841.838	22470
841.975	22493
842.112	22436
842.249	22394
842.385	22341
842.522	22599
842.659	22337
842.796	22329
842.933	22299
843.069	22276
843.206	22101
843.343	22169
843.479	22268
843.616	22398
843.752	21987
843.889	22013
844.025	22169
844.162	22055
844.298	22055
844.435	22006
844.571	22044
844.708	22181
844.844	22139
844.98	22070
845.117	22158
845.253	21991
845.389	21934
845.525	21895
845.661	21937
845.798	21728
845.934	21918
846.07	21747
846.206	21850
846.342	21876
846.478	21857
846.614	21682
846.75	21526
846.886	21538
847.022	21656
847.158	21564
847.294	21682
847.429	21641
847.565	21439
847.701	21720
847.837	21313
847.972	21260
848.108	21412
848.244	21287
848.379	21165
848.515	21169
848.65	21157
848.786	21112
848.921	21138
849.057	21222
849.192	21150
849.328	21119
849.463	21131
849.598	21131
849.734	20982
849.869	20918
850.004	20880
850.14	20944
850.275	20952
850.41	20781
850.545	20929
850.68	20796
850.815	20902
850.95	20944
851.085	21051
851.22	21020
851.355	20857
851.49	20834
851.625	20921
851.76	20804
851.895	20781
852.03	20739
852.165	20994
852.299	20899
852.434	20990
852.569	21005
852.703	20857
852.838	20857
852.973	21043
853.107	20975
853.242	20807
853.376	20655
853.511	20579
853.645	20613
853.78	20842
853.914	20720
854.048	20533
854.183	20792
854.317	20750
854.451	20876
854.585	20636
854.72	20921
854.854	20838
854.988	20579
855.122	20705
855.256	20598
855.39	20609
855.524	20689
855.658	20746
855.792	20876
855.926	20762
856.06	20838
856.194	20823
856.327	20564
856.461	20587
856.595	20727
856.729	20659
856.862	20804
856.996	20667
857.13	20682
857.263	20754
857.397	20834
857.53	20731
857.664	20583
857.797	20743
857.931	20811
858.064	20762
858.197	20868
858.331	20705
858.464	20606
858.597	20727
858.731	20708
858.864	20663
858.997	20682
859.13	20712
859.263	20651
859.396	20746
859.529	20686
859.662	20533
859.795	20697
859.928	20644
860.061	20697
860.194	20853
860.327	20883
860.46	20754
860.592	20834
860.725	20826
860.858	20902
860.99	20754
861.123	20564
861.256	20598
861.388	20796
861.521	21359
861.653	20625
861.786	20564
861.918	20514
862.05	20507
862.183	20598
862.315	20693
862.447	20705
862.58	20583
862.712	20488
862.844	20286
862.976	20526
863.108	20495
863.24	20857
863.372	20343
863.504	20469
863.636	20385
863.768	20507
863.9	20442
864.032	20374
864.164	20355
864.296	20461
864.428	20514
864.559	20495
864.691	20480
864.823	20355
864.954	20427
865.086	20400
865.217	20374
865.349	20210
865.48	20404
865.612	20294
865.743	20320
865.875	20313
866.006	20244
866.137	20275
866.269	20343
866.4	20301
866.531	20240
866.662	20271
866.793	20339
866.924	20290
867.055	20275
867.186	20267
867.317	20210
867.448	20320
867.579	20332
867.71	20180
867.841	20138
867.972	20199
868.103	20187
868.233	20240
868.364	20259
868.495	20320
868.625	20412
868.756	20511
868.886	20454
869.017	20552
869.147	20663
869.278	20663
869.408	20537
869.539	20476
869.669	20571
869.799	20511
869.929	20571
870.06	20598
870.19	20807
870.32	20750
870.45	20800
870.58	20834
870.71	21001
870.84	20990
870.97	21009
871.1	20811
871.23	21085
871.36	21020
871.489	20944
871.619	21077
871.749	21005
871.879	21233
872.008	21260
872.138	21047
872.267	21142
872.397	21013
872.526	20857
872.656	20929
872.785	20887
872.915	21070
873.044	21252
873.173	21127
873.303	21169
873.432	21173
873.561	21287
873.69	21150
873.819	21154
873.948	21313
874.077	21123
874.206	21036
874.335	21096
874.464	21203
874.593	21348
874.722	21313
874.851	21458
874.979	21450
875.108	21363
875.237	21275
875.365	21207
875.494	21222
875.623	21401
875.751	21340
875.88	21363
876.008	21348
876.136	21420
876.265	21713
876.393	21861
876.521	21835
876.65	21850
876.778	21660
876.906	21713
877.034	21728
877.162	21789
877.29	21812
877.418	21751
877.546	21766
877.674	21694
877.802	21682
877.93	21629
878.058	21698
878.185	21671
878.313	21660
878.441	21705
878.568	21488
878.696	21713
878.824	21694
878.951	21808
879.079	21960
879.206	21983
879.333	21915
879.461	21747
879.588	21865
879.715	21846
879.842	21994
879.97	21797
880.097	21610
880.224	21576
880.351	21534
880.478	21534
880.605	21431
880.732	21583
880.859	21819
880.986	21549
881.112	21625
881.239	21397
881.366	21291
881.493	21313
881.619	21104
881.746	21218
881.872	21188
881.999	21039
882.125	21051
882.252	21161
882.378	21077
882.505	21298
882.631	20956
882.757	20906
882.883	20971
883.01	20868
883.136	20712
883.262	20746
883.388	20750
883.514	20918
883.64	20861
883.766	20663
883.892	20590
884.018	20674
884.143	20925
884.269	20910
884.395	20632
884.52	20473
884.646	20434
884.772	20594
884.897	20366
885.023	20400
885.148	20583
885.274	20629
885.399	20579
885.524	20648
885.65	20461
885.775	20488
885.9	20488
886.025	20659
886.15	20579
886.275	20408
886.4	20476
886.525	20530
886.65	20423
886.775	20358
886.9	20594
887.025	20746
887.149	20541
887.274	20248
887.399	20305
887.523	20259
887.648	20172
887.773	20187
887.897	20332
888.021	20362
888.146	20309
888.27	20396
888.395	20351
888.519	20351
888.643	20389
888.767	20199
888.891	20153
889.015	20134
889.139	20142
889.263	20096
889.387	20187
889.511	20324
889.635	20161
889.759	20012
889.883	20081
890.006	20149
890.13	20126
890.254	19959
890.377	20012
890.501	19879
890.624	19826
890.748	19826
890.871	19795
890.995	19594
891.118	19518
891.241	19689
891.364	19719
891.488	19780
891.611	19685
891.734	19715
891.857	19761
891.98	19753
892.103	19693
892.226	19613
892.349	19605
892.471	19400
892.594	19590
892.717	19700
892.839	19510
892.962	19563
893.085	19750
893.207	19548
893.33	19453
893.452	19533
893.575	19609
893.697	19544
893.819	19791
893.941	19731
894.064	19765
894.186	19533
894.308	19487
894.43	19708
894.552	19776
894.674	19662
894.796	19434
894.918	19575
895.04	19533
895.161	19727
895.283	19590
895.405	19597
895.526	19582
895.648	19556
895.769	19578
895.891	19723
896.012	19708
896.134	19723
896.255	19586
896.376	19556
896.498	19548
896.619	19727
896.74	19628
896.861	19662
896.982	20016
897.103	20073
897.224	19871
897.345	19871
897.466	19826
897.587	19757
897.708	19925
897.828	19837
897.949	19761
898.07	19693
898.19	19723
898.311	19826
898.431	19761
898.552	19864
898.672	19913
898.792	19814
898.913	19772
899.033	19799
899.153	19643
899.273	19460
899.393	19601
899.513	19761
899.633	19700
899.753	19681
899.873	19662
899.993	19632
900.113	19552
900.232	19556
900.352	19472
900.472	19358
900.591	19263
900.711	19392
900.83	19419
900.95	19457
901.069	19499
901.189	19297
901.308	19050
901.427	19042
901.546	18985
901.665	19042
901.784	19038
901.904	18798
902.023	18753
902.141	18635
902.26	18479
902.379	18601
902.498	18521
902.617	18483
902.735	18597
902.854	18585
902.973	18380
903.091	18190
903.21	18129
903.328	18148
903.446	18152
903.565	18095
903.683	17984
903.801	17893
903.919	17832
904.038	17885
904.156	17691
904.274	17939
904.392	17771
904.51	17676
904.627	17786
904.745	17813
904.863	17745
904.981	17516
905.098	17326
905.216	17330
905.334	17372
905.451	17395
905.569	17356
905.686	17509
905.803	17452
905.921	17231
906.038	17296
906.155	17269
906.272	17159
906.389	17064
906.506	17067
906.623	16946
906.74	16957
906.857	16774
906.974	16919
907.091	16896
907.208	17090
907.324	16995
907.441	16847
907.557	16771
907.674	16653
907.79	16592
907.907	16580
908.023	16850
908.139	16668
908.256	16672
908.372	16565
908.488	16508
908.604	16508
908.72	16398
908.836	16371
908.952	16382
909.068	16398
909.184	16493
909.3	16398
909.415	16523
909.531	16356
909.647	16067
909.762	16177
909.878	16063
909.993	16173
910.108	16124
910.224	15975
910.339	16044
910.454	15865
910.57	16055
910.685	15854
910.8	16181
910.915	16071
911.03	16063
911.145	15774
911.259	15720
911.374	15732
911.489	15614
911.604	15584
911.718	15504
911.833	15439
911.947	15329
912.062	15420
912.176	15450
912.291	15519
912.405	15511
912.519	15736
912.633	15656
912.748	15485
912.862	15473
912.976	15264
913.09	15222
913.204	15302
913.318	15291
913.431	15378
913.545	15329
913.659	15336
913.772	15173
913.886	15142
914	15119
914.113	15142
914.226	15287
914.34	15161
914.453	14880
914.566	15104
914.68	14925
914.793	15024
914.906	14830
915.019	14754
915.132	14693
915.245	14651
915.358	14724
915.47	14735
915.583	14800
915.696	14651
915.809	14765
915.921	14845
916.034	14629
916.146	14598
916.259	14556
916.371	14594
916.483	14632
916.595	14594
916.708	14545
916.82	14568
916.932	14530
917.044	14461
917.156	14377
917.268	14347
917.38	14400
917.491	14366
917.603	14412
917.715	14488
917.826	14446
917.938	14332
918.049	14176
918.161	14278
918.272	14427
918.384	14385
918.495	14362
918.606	14199
918.717	14058
918.828	14214
918.939	14195
919.05	14035
919.161	14153
919.272	13917
919.383	13978
919.494	14145
919.604	14358
919.715	14100
919.826	13967
919.936	14043
920.047	14153
920.157	14195
920.267	14305
920.378	14103
920.488	14100
920.598	14164
920.708	14366
920.818	14237
920.928	14275
921.038	14393
921.148	14290
921.258	14062
921.368	13868
921.477	13883
921.587	13814
921.697	13704
921.806	13894
921.916	13674
922.025	13578
922.134	13563
922.244	13502
922.353	13518
922.462	13362
922.571	13247
922.68	13266
922.789	13133
922.898	13187
923.007	13152
923.116	13122
923.224	13175
923.333	13122
923.442	13008
923.55	12970
923.659	12993
923.767	13015
923.876	12977
923.984	13061
924.092	12760
924.201	12859
924.309	12890
924.417	12970
924.525	12905
924.633	12871
924.741	13662
924.849	12662
924.956	12791
925.064	12677
925.172	12506
925.279	12532
925.387	12612
925.494	12608
925.602	12707
925.709	12665
925.816	12414
925.924	12532
926.031	12566
926.138	12604
926.245	12582
926.352	12456
926.459	12608
926.566	12585
926.673	12445
926.779	12399
926.886	12308
926.993	12205
927.099	12175
927.206	12053
927.312	12133
927.419	12152
927.525	12182
927.631	12117
927.737	12060
927.843	12049
927.95	11855
928.056	11969
928.162	11901
928.267	12038
928.373	12578
928.479	11980
928.585	11920
928.69	12022
928.796	11996
928.901	11916
929.007	11672
929.112	11821
929.218	11866
929.323	11733
929.428	11729
929.533	11946
929.638	11714
929.743	11707
929.848	11699
929.953	11615
930.058	11619
930.163	11425
930.267	11459
930.372	11589
930.477	11376
930.581	11630
930.685	11444
930.79	11372
930.894	11349
930.998	11315
931.103	11497
931.207	11014
931.311	11033
931.415	10839
931.519	10710
931.623	10744
