Data from test_V78500241_1164.txt Node
Date: Fri Mar 25 15:17:57 CST 2022
User: usil
Spectrometer: V785-0024
Trigger mode: 0
Integration Time (sec): 4.000000E-1
Scans to average: 1
Nonlinearity correction enabled: false
Boxcar width: 0
Storing dark spectrum: false
XAxis mode: Wavelengths
Number of Pixels in Spectrum: 1024
>>>>>Begin Spectral Data<<<<<
801.071	28459
801.214	28299
801.356	27983
801.499	28048
801.641	28006
801.783	27937
801.926	27922
802.068	27926
802.211	27823
802.353	27842
802.496	27587
802.638	27561
802.78	27625
802.923	27587
803.065	27610
803.208	27526
803.35	27641
803.492	27713
803.635	27705
803.777	27637
803.919	27930
804.061	28040
804.204	27850
804.346	27728
804.488	27694
804.63	27918
804.773	27743
804.915	27975
805.057	27812
805.199	27831
805.341	28013
805.483	28002
805.626	28032
805.768	27770
805.91	28082
806.052	27926
806.194	27937
806.336	28249
806.478	28090
806.62	27949
806.762	28135
806.904	28306
807.046	28504
807.188	28348
807.33	28447
807.472	28519
807.614	28344
807.756	28382
807.898	28394
808.04	28363
808.182	28135
808.324	28371
808.465	28173
808.607	28508
808.749	28561
808.891	28694
809.033	28843
809.174	28797
809.316	28603
809.458	28672
809.6	28634
809.741	28911
809.883	28847
810.025	29014
810.166	28999
810.308	28984
810.45	28816
810.591	28881
810.733	28599
810.875	28675
811.016	28519
811.158	28584
811.299	28767
811.441	28748
811.582	28862
811.724	28660
811.865	28660
812.007	28733
812.148	28691
812.29	28774
812.431	28812
812.573	29128
812.714	29086
812.855	29162
812.997	29299
813.138	29512
813.279	29330
813.421	29326
813.562	29128
813.703	29261
813.845	28957
813.986	28816
814.127	28565
814.268	28379
814.41	28447
814.551	28405
814.692	28535
814.833	28322
814.974	28257
815.115	28344
815.256	28261
815.397	28287
815.539	28181
815.68	28135
815.821	28192
815.962	28280
816.103	28040
816.244	28078
816.385	28032
816.526	28063
816.666	27774
816.807	27770
816.948	27686
817.089	27838
817.23	27854
817.371	27690
817.512	27751
817.653	27694
817.793	27671
817.934	27747
818.075	27599
818.216	27755
818.356	27717
818.497	27561
818.638	27519
818.778	27542
818.919	27458
819.06	27568
819.2	27629
819.341	27804
819.481	27785
819.622	27914
819.762	27953
819.903	27972
820.043	27937
820.184	27808
820.324	27842
820.465	27846
820.605	27888
820.746	27831
820.886	27819
821.026	27854
821.167	27690
821.307	27759
821.447	27641
821.588	27595
821.728	27568
821.868	27469
822.008	27123
822.149	27287
822.289	27192
822.429	26921
822.569	26982
822.709	26872
822.849	26739
822.99	26769
823.13	26640
823.27	26598
823.41	26488
823.55	26465
823.69	26507
823.83	26453
823.97	26328
824.11	26309
824.25	26381
824.389	26286
824.529	26503
824.669	26305
824.809	26537
824.949	26526
825.089	26514
825.228	26499
825.368	26278
825.508	26252
825.648	26206
825.787	26309
825.927	26320
826.067	26084
826.206	26168
826.346	26473
826.485	26256
826.625	26191
826.765	26252
826.904	26221
827.044	25970
827.183	26005
827.323	26035
827.462	25986
827.601	25902
827.741	26027
827.88	26073
828.02	25940
828.159	25959
828.298	26001
828.437	25947
828.577	25974
828.716	26054
828.855	25818
828.994	25685
829.134	25670
829.273	25765
829.412	25712
829.551	25540
829.69	25723
829.829	25616
829.968	25544
830.107	25674
830.246	25708
830.385	25578
830.524	25521
830.663	25430
830.802	25449
830.941	25179
831.08	25339
831.219	25354
831.357	25343
831.496	25400
831.635	25247
831.774	25266
831.913	25141
832.051	25095
832.19	25152
832.329	25015
832.467	24962
832.606	24825
832.744	24848
832.883	25019
833.022	24875
833.16	24947
833.299	25046
833.437	25057
833.576	25004
833.714	25000
833.852	25000
833.991	25129
834.129	25141
834.267	25126
834.406	24867
834.544	25217
834.682	24962
834.821	24985
834.959	25327
835.097	24905
835.235	24996
835.373	25076
835.511	25080
835.65	24875
835.788	24852
835.926	24814
836.064	24646
836.202	24745
836.34	24863
836.478	25042
836.615	24810
836.753	24932
836.891	24958
837.029	24795
837.167	24833
837.305	24684
837.443	24848
837.58	24779
837.718	24741
837.856	24738
837.993	24654
838.131	24722
838.269	24646
838.406	24623
838.544	24471
838.681	24441
838.819	24300
838.956	24038
839.094	24125
839.231	24232
839.369	24460
839.506	24582
839.643	24505
839.781	24072
839.918	24049
840.055	24186
840.193	24102
840.33	24068
840.467	24106
840.604	24178
840.742	24300
840.879	23904
841.016	24068
841.153	23961
841.29	24026
841.427	24133
841.564	24121
841.701	24026
841.838	23946
841.975	23939
842.112	23958
842.249	23980
842.385	23783
842.522	24133
842.659	23859
842.796	23821
842.933	23805
843.069	23843
843.206	23878
843.343	23870
843.479	23882
843.616	23821
843.752	23611
843.889	23680
844.025	23851
844.162	23638
844.298	23817
844.435	23512
844.571	23531
844.708	23642
844.844	23802
844.98	23866
845.117	23756
845.253	23600
845.389	23391
845.525	23581
845.661	23493
845.798	23345
845.934	23452
846.07	23376
846.206	23349
846.342	23372
846.478	23315
846.614	23185
846.75	22968
846.886	23025
847.022	23143
847.158	23052
847.294	22995
847.429	23025
847.565	23060
847.701	23299
847.837	22828
847.972	22759
848.108	22881
848.244	22793
848.379	22782
848.515	22653
848.65	22683
848.786	22771
848.921	22599
849.057	22782
849.192	22767
849.328	22740
849.463	22702
849.598	22615
849.734	22527
849.869	22569
850.004	22500
850.14	22489
850.275	22432
850.41	22352
850.545	22356
850.68	22386
850.815	22523
850.95	22398
851.085	22580
851.22	22497
851.355	22409
851.49	22417
851.625	22363
851.76	22424
851.895	22314
852.03	22341
852.165	22291
852.299	22402
852.434	22512
852.569	22405
852.703	22432
852.838	22717
852.973	22504
853.107	22557
853.242	22455
853.376	22352
853.511	22219
853.645	22131
853.78	22398
853.914	22306
854.048	22207
854.183	22204
854.317	22242
854.451	22489
854.585	22207
854.72	22139
854.854	22207
854.988	22166
855.122	22276
855.256	22166
855.39	22230
855.524	22242
855.658	22341
855.792	22185
855.926	22261
856.06	22211
856.194	22287
856.327	22211
856.461	22207
856.595	22322
856.729	22257
856.862	22310
856.996	22287
857.13	22390
857.263	22280
857.397	22367
857.53	22207
857.664	22265
857.797	22295
857.931	22379
858.064	22249
858.197	22417
858.331	22192
858.464	22158
858.597	22116
858.731	22124
858.864	22234
858.997	22219
859.13	22276
859.263	22116
859.396	22337
859.529	22253
859.662	22230
859.795	22200
859.928	22230
860.061	22375
860.194	22428
860.327	22341
860.46	22280
860.592	22428
860.725	22394
860.858	22459
860.99	22295
861.123	22074
861.256	22158
861.388	22219
861.521	23071
861.653	22093
861.786	21968
861.918	22086
862.05	22006
862.183	22135
862.315	22177
862.447	22234
862.58	22093
862.712	21953
862.844	21941
862.976	22017
863.108	21892
863.24	22268
863.372	21941
863.504	21892
863.636	21972
863.768	22025
863.9	21956
864.032	21793
864.164	21865
864.296	21949
864.428	22097
864.559	21972
864.691	21953
864.823	22010
864.954	21983
865.086	21842
865.217	21884
865.349	21831
865.48	21964
865.612	21819
865.743	21846
865.875	21911
866.006	21850
866.137	21949
866.269	21823
866.4	21610
866.531	21682
866.662	21736
866.793	21781
866.924	21797
867.055	21667
867.186	21736
867.317	21705
867.448	21720
867.579	21705
867.71	21568
867.841	21671
867.972	21644
868.103	21622
868.233	21759
868.364	21618
868.495	21747
868.625	22036
868.756	22234
868.886	21835
869.017	22013
869.147	22067
869.278	22036
869.408	22074
869.539	22051
869.669	22021
869.799	21987
869.929	22166
870.06	22112
870.19	22173
870.32	22272
870.45	22314
870.58	22386
870.71	22466
870.84	22470
870.97	22504
871.1	22398
871.23	22535
871.36	22497
871.489	22519
871.619	22542
871.749	22538
871.879	22554
872.008	22596
872.138	22542
872.267	22664
872.397	22421
872.526	22481
872.656	22363
872.785	22478
872.915	22550
873.044	22740
873.173	22599
873.303	22561
873.432	22557
873.561	22698
873.69	22626
873.819	22542
873.948	22710
874.077	22554
874.206	22588
874.335	22611
874.464	22812
874.593	22831
874.722	22801
874.851	22831
874.979	22820
875.108	22938
875.237	22706
875.365	22782
875.494	22755
875.623	22984
875.751	22740
875.88	22831
876.008	22889
876.136	22911
876.265	23181
876.393	23288
876.521	23303
876.65	23280
876.778	23284
876.906	23025
877.034	23094
877.162	23044
877.29	23056
877.418	23121
877.546	23083
877.674	23200
877.802	23075
877.93	23090
878.058	23006
878.185	23041
878.313	23060
878.441	23185
878.568	23025
878.696	23132
878.824	23162
878.951	23239
879.079	23223
879.206	23554
879.333	23242
879.461	23197
879.588	23223
879.715	23208
879.842	23520
879.97	23117
880.097	22881
880.224	23025
880.351	23033
880.478	23003
880.605	22911
880.732	23006
880.859	23193
880.986	22927
881.112	22968
881.239	22816
881.366	22736
881.493	22603
881.619	22440
881.746	22592
881.872	22474
881.999	22557
882.125	22405
882.252	22573
882.378	22440
882.505	22580
882.631	22413
882.757	22223
882.883	22185
883.01	22215
883.136	22158
883.262	22120
883.388	22093
883.514	22185
883.64	22280
883.766	22215
883.892	21945
884.018	21945
884.143	22116
884.269	22166
884.395	22067
884.52	21838
884.646	21861
884.772	21789
884.897	21720
885.023	21899
885.148	21937
885.274	22006
885.399	21846
885.524	21800
885.65	21819
885.775	21850
885.9	21956
886.025	22032
886.15	22002
886.275	21808
886.4	21827
886.525	21816
886.65	21816
886.775	21781
886.9	22029
887.025	22006
887.149	21937
887.274	21739
887.399	21671
887.523	21599
887.648	21572
887.773	21553
887.897	21751
888.021	21739
888.146	21648
888.27	21679
888.395	21694
888.519	21675
888.643	21629
888.767	21629
888.891	21568
889.015	21450
889.139	21523
889.263	21473
889.387	21507
889.511	21568
889.635	21481
889.759	21447
889.883	21435
890.006	21336
890.13	21420
890.254	21382
890.377	21302
890.501	21195
890.624	21146
890.748	21264
890.871	21043
890.995	20933
891.118	20906
891.241	21100
891.364	20910
891.488	21093
891.611	21051
891.734	20994
891.857	21081
891.98	20994
892.103	20883
892.226	21047
892.349	20944
892.471	20746
892.594	20899
892.717	20952
892.839	20956
892.962	20880
893.085	20963
893.207	20910
893.33	20823
893.452	20826
893.575	20811
893.697	20826
893.819	21039
893.941	21009
894.064	21051
894.186	20796
894.308	20815
894.43	20975
894.552	21047
894.674	20925
894.796	20712
894.918	20804
895.04	20762
895.161	20925
895.283	20834
895.405	20785
895.526	20845
895.648	20804
895.769	20849
895.891	20891
896.012	21001
896.134	20823
896.255	20769
896.376	20788
896.498	20739
896.619	20979
896.74	20830
896.861	21028
896.982	21123
897.103	21256
897.224	21047
897.345	21116
897.466	21005
897.587	21070
897.708	21195
897.828	21096
897.949	20941
898.07	20872
898.19	20952
898.311	20975
898.431	20994
898.552	21165
898.672	21142
898.792	21043
898.913	21028
899.033	20891
899.153	20815
899.273	20720
899.393	20807
899.513	20899
899.633	20937
899.753	20868
899.873	20689
899.993	20952
900.113	20667
900.232	20731
900.352	20545
900.472	20621
900.591	20518
900.711	20587
900.83	20457
900.95	20716
901.069	20575
901.189	20473
901.308	20199
901.427	20031
901.546	20088
901.665	20103
901.784	20046
901.904	20008
902.023	19879
902.141	19704
902.26	19670
902.379	19689
902.498	19647
902.617	19563
902.735	19571
902.854	19548
902.973	19472
903.091	19339
903.21	19316
903.328	19171
903.446	19244
903.565	19175
903.683	19084
903.801	18954
903.919	18981
904.038	18954
904.156	18852
904.274	19031
904.392	18764
904.51	19012
904.627	18795
904.745	18867
904.863	18954
904.981	18589
905.098	18441
905.216	18597
905.334	18566
905.451	18479
905.569	18464
905.686	18570
905.803	18479
905.921	18304
906.038	18445
906.155	18304
906.272	18209
906.389	18155
906.506	18076
906.623	18133
906.74	18038
906.857	17920
906.974	18015
907.091	18155
907.208	18152
907.324	18079
907.441	17904
907.557	17893
907.674	17859
907.79	17646
907.907	17756
908.023	17745
908.139	17786
908.256	17638
908.372	17623
908.488	17615
908.604	17417
908.72	17448
908.836	17429
908.952	17452
909.068	17478
909.184	17630
909.3	17535
909.415	17440
909.531	17501
909.647	17315
909.762	17231
909.878	17147
909.993	17094
910.108	17216
910.224	17151
910.339	17136
910.454	17029
910.57	17029
910.685	16987
910.8	17147
910.915	17098
911.03	16915
911.145	16752
911.259	16767
911.374	16725
911.489	16733
911.604	16630
911.718	16417
911.833	16451
911.947	16481
912.062	16246
912.176	16512
912.291	16558
912.405	16512
912.519	16641
912.633	16577
912.748	16588
912.862	16550
912.976	16394
913.09	16166
913.204	16211
913.318	16333
913.431	16402
913.545	16318
913.659	16367
913.772	16242
913.886	16158
914	16124
914.113	16204
914.226	16226
914.34	16112
914.453	15953
914.566	16124
914.68	16078
914.793	15953
914.906	15774
915.019	15759
915.132	15682
915.245	15724
915.358	15648
915.47	15682
915.583	15698
915.696	15778
915.809	15747
915.921	15835
916.034	15599
916.146	15622
916.259	15603
916.371	15766
916.483	15576
916.595	15488
916.708	15580
916.82	15488
916.932	15424
917.044	15393
917.156	15355
917.268	15313
917.38	15241
917.491	15359
917.603	15252
917.715	15458
917.826	15401
917.938	15264
918.049	15260
918.161	15294
918.272	15420
918.384	15374
918.495	15226
918.606	15085
918.717	14986
918.828	15051
918.939	15081
919.05	15009
919.161	14994
919.272	14838
919.383	14891
919.494	15131
919.604	15195
919.715	14998
919.826	14933
919.936	15066
920.047	15100
920.157	15100
920.267	15199
920.378	14963
920.488	15062
920.598	15142
920.708	15306
920.818	15157
920.928	15207
921.038	15272
921.148	15222
921.258	14979
921.368	14902
921.477	14739
921.587	14815
921.697	14583
921.806	14765
921.916	14541
922.025	14465
922.134	14309
922.244	14332
922.353	14495
922.462	14206
922.571	14157
922.68	14088
922.789	13959
922.898	14183
923.007	13963
923.116	14016
923.224	13978
923.333	13921
923.442	13944
923.55	13879
923.659	13875
923.767	13890
923.876	13750
923.984	13780
924.092	13742
924.201	13807
924.309	13772
924.417	13814
924.525	13712
924.633	13658
924.741	14549
924.849	13559
924.956	13609
925.064	13495
925.172	13312
925.279	13411
925.387	13369
925.494	13365
925.602	13548
925.709	13548
925.816	13293
925.924	13293
926.031	13365
926.138	13282
926.245	13365
926.352	13247
926.459	13415
926.566	13316
926.673	13232
926.779	13129
926.886	13156
926.993	13019
927.099	13012
927.206	12901
927.312	12894
927.419	12920
927.525	12977
927.631	13019
927.737	12741
927.843	12787
927.95	12658
928.056	12802
928.162	12726
928.267	12825
928.373	13266
928.479	12840
928.585	12612
928.69	12684
928.796	12734
928.901	12604
929.007	12460
929.112	12688
929.218	12623
929.323	12566
929.428	12433
929.533	12555
929.638	12414
929.743	12460
929.848	12498
929.953	12372
930.058	12304
930.163	12224
930.267	12220
930.372	12281
930.477	12087
930.581	12296
930.685	12201
930.79	11977
930.894	12057
930.998	12045
931.103	12205
931.207	11828
931.311	11707
931.415	11634
931.519	11433
931.623	11421
