Data from test_V78500241_2590.txt Node
Date: Fri Mar 25 15:27:53 CST 2022
User: usil
Spectrometer: V785-0024
Trigger mode: 0
Integration Time (sec): 4.000000E-1
Scans to average: 1
Nonlinearity correction enabled: false
Boxcar width: 0
Storing dark spectrum: false
XAxis mode: Wavelengths
Number of Pixels in Spectrum: 1024
>>>>>Begin Spectral Data<<<<<
801.071	27142
801.214	26998
801.356	26811
801.499	26743
801.641	26541
801.783	26617
801.926	26708
802.068	26644
802.211	26579
802.353	26423
802.496	26187
802.638	26142
802.78	26119
802.923	26157
803.065	26020
803.208	26221
803.35	26183
803.492	26282
803.635	26427
803.777	26358
803.919	26377
804.061	26727
804.204	26492
804.346	26214
804.488	26366
804.63	26370
804.773	26263
804.915	26431
805.057	26408
805.199	26351
805.341	26461
805.483	26533
805.626	26465
805.768	26457
805.91	26450
806.052	26495
806.194	26453
806.336	26609
806.478	26518
806.62	26450
806.762	26632
806.904	26773
807.046	26952
807.188	26845
807.33	26872
807.472	26967
807.614	26853
807.756	26891
807.898	26811
808.04	26746
808.182	26648
808.324	26651
808.465	26765
808.607	26891
808.749	27104
808.891	27096
809.033	27203
809.174	27100
809.316	27058
809.458	26986
809.6	27047
809.741	27245
809.883	27207
810.025	27393
810.166	27340
810.308	27363
810.45	27355
810.591	27329
810.733	27116
810.875	27005
811.016	27009
811.158	27066
811.299	27241
811.441	27310
811.582	27203
811.724	26933
811.865	27028
812.007	26899
812.148	26990
812.29	27093
812.431	27131
812.573	27294
812.714	27534
812.855	27420
812.997	27724
813.138	27656
813.279	27652
813.421	27545
813.562	27576
813.703	27431
813.845	27218
813.986	26861
814.127	26899
814.268	26758
814.41	26925
814.551	26602
814.692	26800
814.833	26739
814.974	26667
815.115	26788
815.256	26541
815.397	26571
815.539	26571
815.68	26526
815.821	26438
815.962	26404
816.103	26583
816.244	26385
816.385	26248
816.526	26176
816.666	26145
816.807	25917
816.948	26043
817.089	26122
817.23	26001
817.371	25982
817.512	25970
817.653	25909
817.793	25940
817.934	25959
818.075	25959
818.216	26073
818.356	25852
818.497	25780
818.638	25643
818.778	25734
818.919	25769
819.06	25753
819.2	25849
819.341	25959
819.481	26126
819.622	26092
819.762	26317
819.903	26142
820.043	26134
820.184	26149
820.324	26027
820.465	26050
820.605	26187
820.746	26024
820.886	25982
821.026	26119
821.167	26035
821.307	26088
821.447	25989
821.588	25864
821.728	25852
821.868	25563
822.008	25479
822.149	25506
822.289	25468
822.429	25183
822.569	25133
822.709	25099
822.849	24966
822.99	24943
823.13	24890
823.27	24886
823.41	24779
823.55	24684
823.69	24741
823.83	24825
823.97	24696
824.11	24620
824.25	24623
824.389	24665
824.529	24623
824.669	24707
824.809	24814
824.949	24711
825.089	24658
825.228	24597
825.368	24494
825.508	24407
825.648	24426
825.787	24479
825.927	24448
826.067	24456
826.206	24460
826.346	24479
826.485	24429
826.625	24452
826.765	24597
826.904	24452
827.044	24239
827.183	24213
827.323	24262
827.462	24155
827.601	24281
827.741	24186
827.88	24182
828.02	24057
828.159	24106
828.298	24129
828.437	24285
828.577	24087
828.716	24220
828.855	24060
828.994	23878
829.134	23992
829.273	23954
829.412	23920
829.551	23824
829.69	23904
829.829	23973
829.968	23996
830.107	24049
830.246	23866
830.385	23707
830.524	23802
830.663	23676
830.802	23676
830.941	23478
831.08	23402
831.219	23531
831.357	23455
831.496	23741
831.635	23585
831.774	23368
831.913	23315
832.051	23307
832.19	23132
832.329	23220
832.467	23216
832.606	23208
832.744	23227
832.883	23208
833.022	23109
833.16	23269
833.299	23208
833.437	23181
833.576	23284
833.714	23364
833.852	23307
833.991	23269
834.129	23356
834.267	23376
834.406	23227
834.544	23383
834.682	23231
834.821	23200
834.959	23391
835.097	23216
835.235	23269
835.373	23261
835.511	23170
835.65	23117
835.788	23121
835.926	22991
836.064	22938
836.202	22927
836.34	23060
836.478	23227
836.615	23014
836.753	23128
836.891	23185
837.029	23189
837.167	23094
837.305	23052
837.443	23003
837.58	22900
837.718	23071
837.856	23086
837.993	22949
838.131	22961
838.269	22828
838.406	22828
838.544	22816
838.681	22618
838.819	22660
838.956	22432
839.094	22360
839.231	22455
839.369	22557
839.506	22809
839.643	22577
839.781	22413
839.918	22409
840.055	22371
840.193	22519
840.33	22417
840.467	22363
840.604	22478
840.742	22672
840.879	22200
841.016	22481
841.153	22287
841.29	22550
841.427	22337
841.564	22344
841.701	22287
841.838	22291
841.975	22284
842.112	22249
842.249	22238
842.385	22067
842.522	22466
842.659	22150
842.796	22055
842.933	22093
843.069	22139
843.206	22261
843.343	22196
843.479	22101
843.616	22154
843.752	21884
843.889	21838
844.025	22048
844.162	21846
844.298	21937
844.435	21994
844.571	21766
844.708	21915
844.844	22101
844.98	22097
845.117	21960
845.253	21926
845.389	21842
845.525	21816
845.661	21743
845.798	21663
845.934	21644
846.07	21587
846.206	21622
846.342	21686
846.478	21671
846.614	21504
846.75	21382
846.886	21477
847.022	21530
847.158	21458
847.294	21408
847.429	21473
847.565	21291
847.701	21747
847.837	21024
847.972	21070
848.108	21218
848.244	21252
848.379	21024
848.515	21055
848.65	21077
848.786	21096
848.921	20956
849.057	21089
849.192	21096
849.328	21032
849.463	20899
849.598	20925
849.734	20845
849.869	20705
850.004	20777
850.14	20872
850.275	20743
850.41	20651
850.545	20686
850.68	20705
850.815	20727
850.95	20602
851.085	20914
851.22	20724
851.355	20731
851.49	20689
851.625	20651
851.76	20800
851.895	20708
852.03	20651
852.165	20708
852.299	20872
852.434	20830
852.569	20674
852.703	20804
852.838	20804
852.973	20811
853.107	20781
853.242	20731
853.376	20651
853.511	20377
853.645	20473
853.78	20674
853.914	20602
854.048	20594
854.183	20545
854.317	20617
854.451	20785
854.585	20617
854.72	20590
854.854	20629
854.988	20495
855.122	20568
855.256	20571
855.39	20541
855.524	20674
855.658	20602
855.792	20492
855.926	20663
856.06	20743
856.194	20689
856.327	20625
856.461	20446
856.595	20473
856.729	20552
856.862	20743
856.996	20533
857.13	20655
857.263	20636
857.397	20686
857.53	20507
857.664	20655
857.797	20556
857.931	20731
858.064	20598
858.197	20743
858.331	20670
858.464	20552
858.597	20423
858.731	20613
858.864	20537
858.997	20488
859.13	20480
859.263	20667
859.396	20720
859.529	20431
859.662	20606
859.795	20530
859.928	20556
860.061	20727
860.194	20788
860.327	20602
860.46	20587
860.592	20743
860.725	20762
860.858	20651
860.99	20541
861.123	20613
861.256	20465
861.388	20579
861.521	21340
861.653	20412
861.786	20400
861.918	20431
862.05	20427
862.183	20492
862.315	20480
862.447	20575
862.58	20396
862.712	20355
862.844	20221
862.976	20347
863.108	20343
863.24	20807
863.372	20362
863.504	20408
863.636	20301
863.768	20507
863.9	20362
864.032	20180
864.164	20248
864.296	20282
864.428	20339
864.559	20332
864.691	20423
864.823	20377
864.954	20233
865.086	20275
865.217	20180
865.349	20111
865.48	20259
865.612	20164
865.743	20347
865.875	20248
866.006	20122
866.137	20275
866.269	20187
866.4	20153
866.531	20214
866.662	20119
866.793	20191
866.924	20202
867.055	20145
867.186	20229
867.317	20172
867.448	20084
867.579	20111
867.71	20119
867.841	20111
867.972	20100
868.103	20122
868.233	20187
868.364	20153
868.495	20252
868.625	20328
868.756	20499
868.886	20309
869.017	20461
869.147	20473
869.278	20469
869.408	20385
869.539	20503
869.669	20438
869.799	20507
869.929	20571
870.06	20537
870.19	20636
870.32	20701
870.45	20678
870.58	20739
870.71	20807
870.84	20891
870.97	20921
871.1	20796
871.23	20941
871.36	20902
871.489	21047
871.619	20963
871.749	21036
871.879	21100
872.008	21074
872.138	21005
872.267	21009
872.397	20895
872.526	20838
872.656	20735
872.785	20891
872.915	20902
873.044	21135
873.173	20941
873.303	20982
873.432	21047
873.561	21077
873.69	21055
873.819	21051
873.948	21112
874.077	21039
874.206	20849
874.335	21051
874.464	21161
874.593	21382
874.722	21226
874.851	21348
874.979	21355
875.108	21237
875.237	21180
875.365	21176
875.494	21241
875.623	21424
875.751	21199
875.88	21408
876.008	21310
876.136	21511
876.265	21713
876.393	21686
876.521	21709
876.65	21835
876.778	21675
876.906	21660
877.034	21644
877.162	21667
877.29	21618
877.418	21606
877.546	21709
877.674	21637
877.802	21739
877.93	21629
878.058	21580
878.185	21504
878.313	21572
878.441	21564
878.568	21515
878.696	21549
878.824	21641
878.951	21778
879.079	21869
879.206	21953
879.333	21686
879.461	21690
879.588	21682
879.715	21728
879.842	21865
879.97	21739
880.097	21599
880.224	21488
880.351	21466
880.478	21359
880.605	21557
880.732	21500
880.859	21641
880.986	21336
881.112	21435
881.239	21241
881.366	21207
881.493	21112
881.619	20971
881.746	21089
881.872	21020
881.999	20937
882.125	20979
882.252	21047
882.378	20975
882.505	21104
882.631	20975
882.757	20701
882.883	20834
883.01	20697
883.136	20689
883.262	20644
883.388	20545
883.514	20804
883.64	20720
883.766	20663
883.892	20537
884.018	20438
884.143	20686
884.269	20682
884.395	20537
884.52	20374
884.646	20404
884.772	20427
884.897	20263
885.023	20351
885.148	20514
885.274	20461
885.399	20522
885.524	20404
885.65	20446
885.775	20374
885.9	20377
886.025	20454
886.15	20465
886.275	20256
886.4	20199
886.525	20377
886.65	20313
886.775	20191
886.9	20488
887.025	20720
887.149	20202
887.274	20142
887.399	20180
887.523	20206
887.648	20054
887.773	20039
887.897	20248
888.021	20191
888.146	19989
888.27	20324
888.395	20240
888.519	20161
888.643	20240
888.767	20199
888.891	20043
889.015	20012
889.139	20031
889.263	19993
889.387	20115
889.511	20092
889.635	19997
889.759	19913
889.883	19978
890.006	20027
890.13	20069
890.254	19852
890.377	19890
890.501	19712
890.624	19731
890.748	19803
890.871	19639
890.995	19571
891.118	19449
891.241	19521
891.364	19567
891.488	19662
891.611	19616
891.734	19540
891.857	19651
891.98	19616
892.103	19582
892.226	19495
892.349	19518
892.471	19453
892.594	19407
892.717	19533
892.839	19483
892.962	19540
893.085	19472
893.207	19369
893.33	19365
893.452	19426
893.575	19495
893.697	19365
893.819	19624
893.941	19742
894.064	19620
894.186	19384
894.308	19392
894.43	19533
894.552	19605
894.674	19582
894.796	19377
894.918	19358
895.04	19358
895.161	19472
895.283	19521
895.405	19331
895.526	19472
895.648	19438
895.769	19514
895.891	19460
896.012	19590
896.134	19518
896.255	19571
896.376	19491
896.498	19502
896.619	19388
896.74	19434
896.861	19609
896.982	19852
897.103	19849
897.224	19856
897.345	19601
897.466	19605
897.587	19719
897.708	19868
897.828	19685
897.949	19696
898.07	19457
898.19	19700
898.311	19814
898.431	19677
898.552	19666
898.672	19738
898.792	19772
898.913	19537
899.033	19655
899.153	19495
899.273	19377
899.393	19476
899.513	19472
899.633	19491
899.753	19457
899.873	19381
899.993	19495
900.113	19457
900.232	19415
900.352	19358
900.472	19285
900.591	19187
900.711	19266
900.83	19183
900.95	19221
901.069	19236
901.189	19053
901.308	19080
901.427	18882
901.546	18783
901.665	18840
901.784	18768
901.904	18688
902.023	18612
902.141	18460
902.26	18407
902.379	18403
902.498	18437
902.617	18243
902.735	18437
902.854	18342
902.973	18262
903.091	18083
903.21	18091
903.328	17999
903.446	17878
903.565	17965
903.683	17828
903.801	17722
903.919	17840
904.038	17699
904.156	17665
904.274	17767
904.392	17592
904.51	17532
904.627	17543
904.745	17638
904.863	17577
904.981	17425
905.098	17307
905.216	17292
905.334	17322
905.451	17258
905.569	17200
905.686	17337
905.803	17334
905.921	17052
906.038	17147
906.155	17113
906.272	17071
906.389	17006
906.506	16869
906.623	16869
906.74	16748
906.857	16752
906.974	16843
907.091	16976
907.208	16984
907.324	16934
907.441	16752
907.557	16565
907.674	16565
907.79	16504
907.907	16577
908.023	16527
908.139	16531
908.256	16497
908.372	16447
908.488	16421
908.604	16360
908.72	16253
908.836	16329
908.952	16253
909.068	16226
909.184	16459
909.3	16242
909.415	16246
909.531	16173
909.647	15998
909.762	16029
909.878	15926
909.993	15968
910.108	16139
910.224	15945
910.339	15964
910.454	15831
910.57	15736
910.685	15694
910.8	15979
910.915	15987
911.03	15728
911.145	15747
911.259	15652
911.374	15553
911.489	15519
911.604	15412
911.718	15393
911.833	15401
911.947	15272
912.062	15298
912.176	15397
912.291	15443
912.405	15431
912.519	15629
912.633	15603
912.748	15386
912.862	15348
912.976	15195
913.09	15169
913.204	15226
913.318	15260
913.431	15283
913.545	15294
913.659	15260
913.772	15093
913.886	15043
914	15032
914.113	15024
914.226	15066
914.34	15013
914.453	14883
914.566	14967
914.68	14906
914.793	14838
914.906	14632
915.019	14602
915.132	14465
915.245	14587
915.358	14575
915.47	14617
915.583	14552
915.696	14625
915.809	14640
915.921	14750
916.034	14564
916.146	14495
916.259	14450
916.371	14530
916.483	14492
916.595	14366
916.708	14355
916.82	14492
916.932	14412
917.044	14370
917.156	14362
917.268	14252
917.38	14339
917.491	14248
917.603	14278
917.715	14294
917.826	14442
917.938	14305
918.049	14084
918.161	14168
918.272	14415
918.384	14381
918.495	14149
918.606	14096
918.717	14008
918.828	14084
918.939	14092
919.05	14016
919.161	14077
919.272	13833
919.383	13883
919.494	14058
919.604	14176
919.715	14062
919.826	13967
919.936	13970
920.047	14111
920.157	14020
920.267	14202
920.378	14069
920.488	14039
920.598	14157
920.708	14305
920.818	14100
920.928	14123
921.038	14278
921.148	14267
921.258	14005
921.368	13890
921.477	13769
921.587	13803
921.697	13643
921.806	13772
921.916	13601
922.025	13491
922.134	13445
922.244	13472
922.353	13529
922.462	13289
922.571	13225
922.68	13122
922.789	13095
922.898	13084
923.007	13000
923.116	13099
923.224	13061
923.333	13019
923.442	12920
923.55	12935
923.659	12890
923.767	12962
923.876	12875
923.984	12890
924.092	12814
924.201	12802
924.309	12757
924.417	12779
924.525	12772
924.633	12791
924.741	13704
924.849	12662
924.956	12635
925.064	12627
925.172	12464
925.279	12407
925.387	12608
925.494	12525
925.602	12589
925.709	12563
925.816	12471
925.924	12471
926.031	12521
926.138	12498
926.245	12536
926.352	12384
926.459	12521
926.566	12593
926.673	12353
926.779	12258
926.886	12277
926.993	12098
927.099	12057
927.206	12098
927.312	11961
927.419	12159
927.525	12095
927.631	12110
927.737	12030
927.843	11897
927.95	11824
928.056	11889
928.162	11912
928.267	11939
928.373	12509
928.479	12007
928.585	11756
928.69	11870
928.796	11870
928.901	11790
929.007	11653
929.112	11737
929.218	11760
929.323	11710
929.428	11691
929.533	11798
929.638	11623
929.743	11638
929.848	11623
929.953	11592
930.058	11497
930.163	11326
930.267	11372
930.372	11452
930.477	11227
930.581	11589
930.685	11364
930.79	11220
930.894	11166
930.998	11216
931.103	11330
931.207	10965
931.311	10885
931.415	10923
931.519	10725
931.623	10607
