Data from test_V78500241_1511.txt Node
Date: Fri Mar 25 15:20:22 CST 2022
User: usil
Spectrometer: V785-0024
Trigger mode: 0
Integration Time (sec): 4.000000E-1
Scans to average: 1
Nonlinearity correction enabled: false
Boxcar width: 0
Storing dark spectrum: false
XAxis mode: Wavelengths
Number of Pixels in Spectrum: 1024
>>>>>Begin Spectral Data<<<<<
801.071	28139
801.214	27892
801.356	27671
801.499	27557
801.641	27542
801.783	27583
801.926	27416
802.068	27450
802.211	27481
802.353	27298
802.496	27252
802.638	27077
802.78	27203
802.923	27161
803.065	26944
803.208	27074
803.35	27032
803.492	27093
803.635	27382
803.777	27252
803.919	27306
804.061	27629
804.204	27443
804.346	27355
804.488	27237
804.63	27363
804.773	27150
804.915	27370
805.057	27439
805.199	27214
805.341	27401
805.483	27447
805.626	27462
805.768	27332
805.91	27469
806.052	27439
806.194	27431
806.336	27663
806.478	27416
806.62	27431
806.762	27671
806.904	27831
807.046	27975
807.188	27800
807.33	27838
807.472	27960
807.614	27876
807.756	27709
807.898	27800
808.04	27701
808.182	27762
808.324	27732
808.465	27759
808.607	27865
808.749	28070
808.891	28207
809.033	28268
809.174	28021
809.316	27953
809.458	28021
809.6	28086
809.741	28169
809.883	28105
810.025	28493
810.166	28474
810.308	28348
810.45	28325
810.591	28181
810.733	28162
810.875	28051
811.016	27937
811.158	27937
811.299	28101
811.441	28314
811.582	28101
811.724	28082
811.865	28090
812.007	28040
812.148	28154
812.29	28112
812.431	28257
812.573	28569
812.714	28577
812.855	28641
812.997	28683
813.138	28938
813.279	28873
813.421	28554
813.562	28527
813.703	28367
813.845	28329
813.986	28093
814.127	27808
814.268	27869
814.41	27827
814.551	27743
814.692	27861
814.833	27728
814.974	27781
815.115	27720
815.256	27682
815.397	27747
815.539	27637
815.68	27481
815.821	27557
815.962	27671
816.103	27576
816.244	27595
816.385	27336
816.526	27321
816.666	27214
816.807	27096
816.948	27112
817.089	27104
817.23	27089
817.371	27055
817.512	27146
817.653	27123
817.793	26986
817.934	27108
818.075	26990
818.216	27077
818.356	27028
818.497	26990
818.638	26773
818.778	26826
818.919	26708
819.06	26785
819.2	26990
819.341	27218
819.481	27005
819.622	27135
819.762	27256
819.903	27329
820.043	27310
820.184	27154
820.324	27195
820.465	27157
820.605	27241
820.746	27214
820.886	27116
821.026	27119
821.167	27108
821.307	27260
821.447	27131
821.588	26842
821.728	26823
821.868	26606
822.008	26537
822.149	26389
822.289	26385
822.429	26275
822.569	25966
822.709	26278
822.849	25997
822.99	25997
823.13	26039
823.27	25966
823.41	25906
823.55	25742
823.69	25913
823.83	25970
823.97	25784
824.11	25742
824.25	25693
824.389	25708
824.529	25822
824.669	25647
824.809	25757
824.949	25765
825.089	25715
825.228	25750
825.368	25491
825.508	25518
825.648	25575
825.787	25662
825.927	25662
826.067	25438
826.206	25582
826.346	25559
826.485	25506
826.625	25628
826.765	25605
826.904	25537
827.044	25396
827.183	25384
827.323	25145
827.462	25339
827.601	25365
827.741	25183
827.88	25327
828.02	25122
828.159	25209
828.298	25282
828.437	25316
828.577	25202
828.716	25278
828.855	25164
828.994	25019
829.134	24985
829.273	24958
829.412	24894
829.551	24863
829.69	24943
829.829	25008
829.968	24992
830.107	24977
830.246	24916
830.385	24810
830.524	24783
830.663	24795
830.802	24684
830.941	24547
831.08	24479
831.219	24585
831.357	24502
831.496	24840
831.635	24620
831.774	24448
831.913	24384
832.051	24410
832.19	24388
832.329	24323
832.467	24205
832.606	24289
832.744	24190
832.883	24182
833.022	24285
833.16	24251
833.299	24251
833.437	24251
833.576	24308
833.714	24266
833.852	24422
833.991	24327
834.129	24327
834.267	24376
834.406	24292
834.544	24258
834.682	24235
834.821	24270
834.959	24445
835.097	24247
835.235	24292
835.373	24155
835.511	24266
835.65	24239
835.788	24186
835.926	23961
836.064	24011
836.202	23939
836.34	24098
836.478	24197
836.615	23992
836.753	24114
836.891	24213
837.029	24087
837.167	23988
837.305	23999
837.443	23923
837.58	24034
837.718	23980
837.856	23984
837.993	23870
838.131	23767
838.269	23767
838.406	23927
838.544	23805
838.681	23684
838.819	23676
838.956	23349
839.094	23391
839.231	23463
839.369	23596
839.506	23870
839.643	23573
839.781	23345
839.918	23315
840.055	23395
840.193	23398
840.33	23239
840.467	23402
840.604	23356
840.742	23714
840.879	23124
841.016	23277
841.153	23204
841.29	23433
841.427	23322
841.564	23410
841.701	23307
841.838	23315
841.975	23220
842.112	23212
842.249	23170
842.385	23098
842.522	23303
842.659	23124
842.796	23064
842.933	23105
843.069	23113
843.206	23105
843.343	23098
843.479	23067
843.616	23102
843.752	22835
843.889	22850
844.025	23132
844.162	22710
844.298	23037
844.435	22862
844.571	22835
844.708	22812
844.844	23037
844.98	23006
845.117	22942
845.253	22755
845.389	22801
845.525	22656
845.661	22653
845.798	22588
845.934	22573
846.07	22478
846.206	22630
846.342	22641
846.478	22519
846.614	22440
846.75	22314
846.886	22287
847.022	22360
847.158	22356
847.294	22333
847.429	22386
847.565	22386
847.701	22478
847.837	22025
847.972	22032
848.108	22097
848.244	22120
848.379	22013
848.515	21842
848.65	21892
848.786	21838
848.921	21903
849.057	21892
849.192	22029
849.328	22006
849.463	21956
849.598	21945
849.734	21865
849.869	21751
850.004	21660
850.14	21690
850.275	21618
850.41	21549
850.545	21530
850.68	21698
850.815	21759
850.95	21846
851.085	21728
851.22	21789
851.355	21637
851.49	21774
851.625	21595
851.76	21538
851.895	21576
852.03	21542
852.165	21618
852.299	21595
852.434	21766
852.569	21717
852.703	21637
852.838	21694
852.973	21698
853.107	21774
853.242	21686
853.376	21439
853.511	21405
853.645	21500
853.78	21583
853.914	21523
854.048	21507
854.183	21519
854.317	21397
854.451	21641
854.585	21416
854.72	21496
854.854	21564
854.988	21374
855.122	21511
855.256	21367
855.39	21329
855.524	21572
855.658	21447
855.792	21496
855.926	21462
856.06	21492
856.194	21424
856.327	21492
856.461	21439
856.595	21507
856.729	21534
856.862	21519
856.996	21523
857.13	21496
857.263	21553
857.397	21629
857.53	21519
857.664	21564
857.797	21564
857.931	21610
858.064	21549
858.197	21557
858.331	21481
858.464	21416
858.597	21306
858.731	21523
858.864	21492
858.997	21370
859.13	21454
859.263	21538
859.396	21644
859.529	21351
859.662	21367
859.795	21405
859.928	21557
860.061	21519
860.194	21644
860.327	21466
860.46	21553
860.592	21511
860.725	21606
860.858	21564
860.99	21466
861.123	21336
861.256	21431
861.388	21469
861.521	21991
861.653	21302
861.786	21310
861.918	21291
862.05	21332
862.183	21294
862.315	21401
862.447	21401
862.58	21359
862.712	21275
862.844	21081
862.976	21287
863.108	21256
863.24	21682
863.372	21104
863.504	21116
863.636	21074
863.768	21195
863.9	21211
864.032	21157
864.164	21039
864.296	21150
864.428	21317
864.559	21100
864.691	21241
864.823	21188
864.954	21154
865.086	21116
865.217	21036
865.349	21100
865.48	21066
865.612	21093
865.743	21237
865.875	21184
866.006	21043
866.137	21180
866.269	21104
866.4	21135
866.531	21062
866.662	20986
866.793	20944
866.924	20986
867.055	20990
867.186	21074
867.317	20967
867.448	20921
867.579	20982
867.71	20880
867.841	20937
867.972	21013
868.103	21047
868.233	21013
868.364	21001
868.495	21226
868.625	21146
868.756	21329
868.886	21195
869.017	21245
869.147	21458
869.278	21542
869.408	21317
869.539	21195
869.669	21351
869.799	21279
869.929	21363
870.06	21321
870.19	21660
870.32	21534
870.45	21576
870.58	21633
870.71	21781
870.84	21739
870.97	21667
871.1	21625
871.23	21793
871.36	21911
871.489	21785
871.619	21637
871.749	21793
871.879	21888
872.008	21915
872.138	21838
872.267	21880
872.397	21793
872.526	21686
872.656	21698
872.785	21698
872.915	21930
873.044	21953
873.173	21743
873.303	21895
873.432	21876
873.561	22048
873.69	21850
873.819	21797
873.948	21831
874.077	21808
874.206	21823
874.335	21949
874.464	21994
874.593	22097
874.722	22188
874.851	22044
874.979	22063
875.108	22177
875.237	22040
875.365	21987
875.494	22101
875.623	22223
875.751	22006
875.88	22112
876.008	22238
876.136	22280
876.265	22443
876.393	22588
876.521	22516
876.65	22577
876.778	22485
876.906	22436
877.034	22360
877.162	22485
877.29	22493
877.418	22409
877.546	22371
877.674	22512
877.802	22554
877.93	22489
878.058	22417
878.185	22325
878.313	22428
878.441	22481
878.568	22322
878.696	22287
878.824	22466
878.951	22615
879.079	22550
879.206	22755
879.333	22611
879.461	22485
879.588	22592
879.715	22691
879.842	22736
879.97	22611
880.097	22265
880.224	22291
880.351	22398
880.478	22303
880.605	22303
880.732	22310
880.859	22375
880.986	22299
881.112	22337
881.239	22226
881.366	21930
881.493	22021
881.619	21854
881.746	21937
881.872	21895
881.999	21854
882.125	21819
882.252	21854
882.378	21918
882.505	21998
882.631	21641
882.757	21542
882.883	21599
883.01	21652
883.136	21428
883.262	21370
883.388	21481
883.514	21557
883.64	21504
883.766	21469
883.892	21348
884.018	21462
884.143	21462
884.269	21488
884.395	21180
884.52	21142
884.646	21237
884.772	21230
884.897	21089
885.023	21207
885.148	21386
885.274	21275
885.399	21241
885.524	21188
885.65	21116
885.775	21157
885.9	21199
886.025	21283
886.15	21237
886.275	20979
886.4	21085
886.525	21055
886.65	21077
886.775	21017
886.9	21256
887.025	21374
887.149	21264
887.274	21017
887.399	21043
887.523	21104
887.648	20899
887.773	20842
887.897	20994
888.021	21032
888.146	20967
888.27	21081
888.395	21119
888.519	20956
888.643	20956
888.767	20963
888.891	20842
889.015	20788
889.139	20853
889.263	20693
889.387	20895
889.511	20902
889.635	20914
889.759	20686
889.883	20746
890.006	20746
890.13	20792
890.254	20693
890.377	20552
890.501	20579
890.624	20560
890.748	20454
890.871	20427
890.995	20298
891.118	20187
891.241	20370
891.364	20381
891.488	20347
891.611	20271
891.734	20332
891.857	20374
891.98	20199
892.103	20259
892.226	20358
892.349	20355
892.471	20092
892.594	20244
892.717	20210
892.839	20240
892.962	20240
893.085	20191
893.207	20233
893.33	20176
893.452	20149
893.575	20324
893.697	20054
893.819	20237
893.941	20419
894.064	20374
894.186	20206
894.308	20050
894.43	20271
894.552	20408
894.674	20389
894.796	20142
894.918	20244
895.04	20088
895.161	20377
895.283	20282
895.405	20210
895.526	20244
895.648	20183
895.769	20400
895.891	20298
896.012	20366
896.134	20214
896.255	20164
896.376	20183
896.498	20191
896.619	20218
896.74	20195
896.861	20172
896.982	20530
897.103	20625
897.224	20594
897.345	20495
897.466	20358
897.587	20377
897.708	20488
897.828	20358
897.949	20374
898.07	20355
898.19	20248
898.311	20434
898.431	20298
898.552	20427
898.672	20480
898.792	20549
898.913	20484
899.033	20404
899.153	20244
899.273	20130
899.393	20343
899.513	20180
899.633	20252
899.753	20240
899.873	20054
899.993	20142
900.113	20039
900.232	20145
900.352	20176
900.472	20065
900.591	19951
900.711	19845
900.83	19921
900.95	19997
901.069	19982
901.189	19913
901.308	19563
901.427	19563
901.546	19601
901.665	19525
901.784	19495
901.904	19403
902.023	19335
902.141	19209
902.26	19171
902.379	19053
902.498	19046
902.617	19000
902.735	19122
902.854	19061
902.973	18947
903.091	18734
903.21	18749
903.328	18681
903.446	18627
903.565	18601
903.683	18563
903.801	18369
903.919	18376
904.038	18547
904.156	18369
904.274	18353
904.392	18254
904.51	18388
904.627	18292
904.745	18410
904.863	18380
904.981	18098
905.098	17961
905.216	17996
905.334	17992
905.451	17946
905.569	17996
905.686	17999
905.803	17878
905.921	17847
906.038	17847
906.155	17805
906.272	17608
906.389	17558
906.506	17638
906.623	17467
906.74	17558
906.857	17505
906.974	17429
907.091	17425
907.208	17680
907.324	17547
907.441	17433
907.557	17277
907.674	17258
907.79	17162
907.907	17246
908.023	17227
908.139	17223
908.256	17162
908.372	17045
908.488	17056
908.604	16991
908.72	16801
908.836	16976
908.952	16938
909.068	16892
909.184	16984
909.3	16923
909.415	16991
909.531	16934
909.647	16702
909.762	16660
909.878	16596
909.993	16649
910.108	16580
910.224	16577
910.339	16561
910.454	16516
910.57	16462
910.685	16398
910.8	16649
910.915	16565
911.03	16386
911.145	16322
911.259	16234
911.374	16185
911.489	16185
911.604	16147
911.718	15991
911.833	15994
911.947	15854
912.062	15819
912.176	15922
912.291	15888
912.405	15876
912.519	16101
912.633	16143
912.748	16021
912.862	15831
912.976	15861
913.09	15648
913.204	15701
913.318	15823
913.431	15903
913.545	15785
913.659	15972
913.772	15694
913.886	15629
914	15553
914.113	15739
914.226	15698
914.34	15629
914.453	15534
914.566	15618
914.68	15450
914.793	15473
914.906	15252
915.019	15214
915.132	15123
915.245	15268
915.358	15157
915.47	15226
915.583	15298
915.696	15272
915.809	15313
915.921	15283
916.034	15085
916.146	15127
916.259	15058
916.371	15199
916.483	15203
916.595	15055
916.708	15058
916.82	15020
916.932	15047
917.044	14960
917.156	14963
917.268	14921
917.38	14868
917.491	14804
917.603	14800
917.715	14834
917.826	14933
917.938	14883
918.049	14632
918.161	14754
918.272	14941
918.384	14864
918.495	14708
918.606	14663
918.717	14473
918.828	14598
918.939	14590
919.05	14484
919.161	14522
919.272	14488
919.383	14324
919.494	14625
919.604	14705
919.715	14590
919.826	14492
919.936	14530
920.047	14606
920.157	14549
920.267	14750
920.378	14560
920.488	14488
920.598	14682
920.708	14762
920.818	14693
920.928	14716
921.038	14693
921.148	14838
921.258	14541
921.368	14412
921.477	14286
921.587	14343
921.697	14199
921.806	14278
921.916	14168
922.025	13993
922.134	13940
922.244	13860
922.353	13955
922.462	13822
922.571	13715
922.68	13624
922.789	13502
922.898	13586
923.007	13556
923.116	13590
923.224	13582
923.333	13571
923.442	13430
923.55	13426
923.659	13514
923.767	13480
923.876	13407
923.984	13495
924.092	13358
924.201	13400
924.309	13331
924.417	13373
924.525	13190
924.633	13129
924.741	13875
924.849	12981
924.956	13217
925.064	13065
925.172	13008
925.279	12958
925.387	13015
925.494	13004
925.602	13110
925.709	13095
925.816	12913
925.924	12943
926.031	13027
926.138	12943
926.245	13053
926.352	12901
926.459	12981
926.566	12939
926.673	12939
926.779	12776
926.886	12654
926.993	12601
927.099	12494
927.206	12471
927.312	12540
927.419	12642
927.525	12486
927.631	12540
927.737	12471
927.843	12395
927.95	12308
928.056	12365
928.162	12426
928.267	12376
928.373	13012
928.479	12422
928.585	12281
928.69	12353
928.796	12357
928.901	12232
929.007	12068
929.112	12213
929.218	12216
929.323	12197
929.428	12083
929.533	12186
929.638	12083
929.743	12003
929.848	12133
929.953	12076
930.058	11912
930.163	11756
930.267	11745
930.372	11946
930.477	11756
930.581	11973
930.685	11798
930.79	11615
930.894	11676
930.998	11604
931.103	11779
931.207	11402
931.311	11395
931.415	11216
931.519	11094
931.623	11056
