Data from test_V78500241_461.txt Node
Date: Fri Mar 25 15:13:04 CST 2022
User: usil
Spectrometer: V785-0024
Trigger mode: 0
Integration Time (sec): 4.000000E-1
Scans to average: 1
Nonlinearity correction enabled: false
Boxcar width: 0
Storing dark spectrum: false
XAxis mode: Wavelengths
Number of Pixels in Spectrum: 1024
>>>>>Begin Spectral Data<<<<<
801.071	27302
801.214	27310
801.356	27135
801.499	27055
801.641	26883
801.783	26895
801.926	27005
802.068	26819
802.211	26842
802.353	26697
802.496	26697
802.638	26606
802.78	26590
802.923	26503
803.065	26537
803.208	26434
803.35	26438
803.492	26716
803.635	26739
803.777	26583
803.919	26693
804.061	26975
804.204	26754
804.346	26545
804.488	26564
804.63	26750
804.773	26644
804.915	26746
805.057	26853
805.199	26697
805.341	26823
805.483	26773
805.626	26762
805.768	26644
805.91	26739
806.052	26823
806.194	26697
806.336	26868
806.478	26834
806.62	26754
806.762	27001
806.904	27245
807.046	27336
807.188	27241
807.33	27203
807.472	27233
807.614	27116
807.756	27135
807.898	27066
808.04	27070
808.182	27176
808.324	27001
808.465	27138
808.607	27306
808.749	27397
808.891	27675
809.033	27587
809.174	27523
809.316	27424
809.458	27443
809.6	27344
809.741	27462
809.883	27507
810.025	27728
810.166	27720
810.308	27743
810.45	27603
810.591	27591
810.733	27644
810.875	27370
811.016	27367
811.158	27397
811.299	27561
811.441	27622
811.582	27549
811.724	27329
811.865	27336
812.007	27416
812.148	27298
812.29	27462
812.431	27625
812.573	27720
812.714	27770
812.855	28040
812.997	28074
813.138	28162
813.279	28025
813.421	28017
813.562	27865
813.703	27854
813.845	27755
813.986	27424
814.127	27188
814.268	27055
814.41	27089
814.551	27127
814.692	27096
814.833	27173
814.974	27116
815.115	27104
815.256	26971
815.397	26963
815.539	26891
815.68	26921
815.821	26758
815.962	26986
816.103	26868
816.244	26834
816.385	26682
816.526	26530
816.666	26537
816.807	26457
816.948	26423
817.089	26526
817.23	26385
817.371	26358
817.512	26457
817.653	26320
817.793	26263
817.934	26419
818.075	26324
818.216	26408
818.356	26415
818.497	26370
818.638	26035
818.778	26119
818.919	26039
819.06	26157
819.2	26240
819.341	26389
819.481	26396
819.622	26541
819.762	26826
819.903	26564
820.043	26575
820.184	26476
820.324	26442
820.465	26651
820.605	26545
820.746	26594
820.886	26461
821.026	26419
821.167	26427
821.307	26552
821.447	26347
821.588	26362
821.728	26221
821.868	26016
822.008	25883
822.149	25875
822.289	25830
822.429	25438
822.569	25529
822.709	25468
822.849	25468
822.99	25362
823.13	25301
823.27	25358
823.41	25164
823.55	25076
823.69	25225
823.83	25145
823.97	25160
824.11	25012
824.25	25038
824.389	24992
824.529	25084
824.669	25088
824.809	25061
824.949	25145
825.089	25133
825.228	24943
825.368	24856
825.508	24901
825.648	24943
825.787	24848
825.927	24909
826.067	24745
826.206	24783
826.346	24760
826.485	24806
826.625	24665
826.765	25019
826.904	24859
827.044	24711
827.183	24696
827.323	24582
827.462	24642
827.601	24608
827.741	24437
827.88	24585
828.02	24505
828.159	24547
828.298	24635
828.437	24532
828.577	24555
828.716	24559
828.855	24505
828.994	24209
829.134	24254
829.273	24281
829.412	24239
829.551	24201
829.69	24239
829.829	24292
829.968	24399
830.107	24319
830.246	24197
830.385	24266
830.524	24102
830.663	24167
830.802	24022
830.941	23821
831.08	23775
831.219	23996
831.357	23920
831.496	24117
831.635	23935
831.774	23824
831.913	23790
832.051	23547
832.19	23680
832.329	23596
832.467	23573
832.606	23554
832.744	23501
832.883	23539
833.022	23551
833.16	23512
833.299	23638
833.437	23524
833.576	23600
833.714	23604
833.852	23699
833.991	23752
834.129	23771
834.267	23634
834.406	23752
834.544	23585
834.682	23680
834.821	23623
834.959	23794
835.097	23547
835.235	23680
835.373	23642
835.511	23661
835.65	23600
835.788	23406
835.926	23391
836.064	23417
836.202	23311
836.34	23547
836.478	23444
836.615	23425
836.753	23307
836.891	23573
837.029	23589
837.167	23459
837.305	23364
837.443	23387
837.58	23376
837.718	23402
837.856	23356
837.993	23212
838.131	23292
838.269	23242
838.406	23216
838.544	23113
838.681	22999
838.819	22949
838.956	22797
839.094	22790
839.231	22919
839.369	22930
839.506	23121
839.643	23022
839.781	22889
839.918	22717
840.055	22854
840.193	22828
840.33	22801
840.467	22786
840.604	22740
840.742	23048
840.879	22577
841.016	22626
841.153	22580
841.29	22862
841.427	22672
841.564	22649
841.701	22793
841.838	22736
841.975	22630
842.112	22653
842.249	22653
842.385	22451
842.522	22736
842.659	22630
842.796	22474
842.933	22615
843.069	22459
843.206	22402
843.343	22523
843.479	22637
843.616	22432
843.752	22291
843.889	22303
844.025	22504
844.162	22238
844.298	22348
844.435	22261
844.571	22188
844.708	22314
844.844	22440
844.98	22348
845.117	22337
845.253	22188
845.389	22215
845.525	22128
845.661	22162
845.798	22044
845.934	22196
846.07	22010
846.206	22112
846.342	22128
846.478	22070
846.614	21888
846.75	21797
846.886	21679
847.022	21812
847.158	21823
847.294	21720
847.429	21736
847.565	21648
847.701	22010
847.837	21553
847.972	21458
848.108	21450
848.244	21641
848.379	21492
848.515	21363
848.65	21287
848.786	21355
848.921	21298
849.057	21408
849.192	21511
849.328	21447
849.463	21439
849.598	21298
849.734	21218
849.869	21275
850.004	21161
850.14	21108
850.275	21192
850.41	21001
850.545	21108
850.68	20921
850.815	21112
850.95	21119
851.085	21393
851.22	21047
851.355	21051
851.49	21055
851.625	21150
851.76	21112
851.895	20941
852.03	21013
852.165	21085
852.299	21142
852.434	21154
852.569	21093
852.703	21123
852.838	21039
852.973	21275
853.107	21260
853.242	21062
853.376	20952
853.511	20838
853.645	20944
853.78	21036
853.914	20960
854.048	20933
854.183	20819
854.317	20883
854.451	21062
854.585	21001
854.72	20944
854.854	20944
854.988	20891
855.122	20948
855.256	20781
855.39	20933
855.524	20986
855.658	20944
855.792	21013
855.926	20895
856.06	20906
856.194	20826
856.327	20830
856.461	20815
856.595	20849
856.729	20861
856.862	21039
856.996	20925
857.13	20986
857.263	21036
857.397	21055
857.53	20941
857.664	20963
857.797	21119
857.931	21226
858.064	20921
858.197	20918
858.331	20906
858.464	20880
858.597	20743
858.731	20941
858.864	20937
858.997	20921
859.13	20842
859.263	20971
859.396	20963
859.529	20914
859.662	20967
859.795	20918
859.928	20899
860.061	21165
860.194	21123
860.327	20986
860.46	20906
860.592	21058
860.725	20975
860.858	21009
860.99	21017
861.123	20876
861.256	20815
861.388	20868
861.521	21633
861.653	20899
861.786	20545
861.918	20853
862.05	20807
862.183	20960
862.315	20921
862.447	20842
862.58	20868
862.712	20621
862.844	20598
862.976	20864
863.108	20773
863.24	21192
863.372	20583
863.504	20693
863.636	20552
863.768	20689
863.9	20549
864.032	20541
864.164	20629
864.296	20598
864.428	20773
864.559	20594
864.691	20686
864.823	20712
864.954	20667
865.086	20587
865.217	20484
865.349	20427
865.48	20469
865.612	20450
865.743	20670
865.875	20522
866.006	20564
866.137	20530
866.269	20606
866.4	20552
866.531	20518
866.662	20374
866.793	20465
866.924	20541
867.055	20492
867.186	20480
867.317	20358
867.448	20305
867.579	20499
867.71	20419
867.841	20469
867.972	20457
868.103	20514
868.233	20476
868.364	20514
868.495	20579
868.625	20773
868.756	20773
868.886	20655
869.017	20708
869.147	20872
869.278	20807
869.408	20659
869.539	20693
869.669	20796
869.799	20727
869.929	20796
870.06	20857
870.19	20948
870.32	21001
870.45	21024
870.58	21112
870.71	21218
870.84	21184
870.97	21173
871.1	21165
871.23	21359
871.36	21264
871.489	21123
871.619	21325
871.749	21359
871.879	21294
872.008	21587
872.138	21439
872.267	21245
872.397	21116
872.526	21154
872.656	21192
872.785	21093
872.915	21287
873.044	21469
873.173	21256
873.303	21310
873.432	21424
873.561	21348
873.69	21329
873.819	21469
873.948	21405
874.077	21275
874.206	21359
874.335	21298
874.464	21454
874.593	21549
874.722	21629
874.851	21682
874.979	21705
875.108	21618
875.237	21576
875.365	21294
875.494	21492
875.623	21698
875.751	21675
875.88	21648
876.008	21660
876.136	21831
876.265	22002
876.393	22093
876.521	21907
876.65	21975
876.778	21964
876.906	21918
877.034	21827
877.162	21869
877.29	21911
877.418	21907
877.546	21956
877.674	21949
877.802	21983
877.93	21755
878.058	21941
878.185	21766
878.313	21808
878.441	21895
878.568	21759
878.696	21869
878.824	21975
878.951	22006
879.079	22101
879.206	22177
879.333	21934
879.461	22025
879.588	22097
879.715	22048
879.842	22219
879.97	21903
880.097	21816
880.224	21781
880.351	21755
880.478	21808
880.605	21732
880.732	21827
880.859	21956
880.986	21724
881.112	21732
881.239	21633
881.366	21511
881.493	21405
881.619	21306
881.746	21591
881.872	21401
881.999	21367
882.125	21325
882.252	21351
882.378	21302
882.505	21397
882.631	21233
882.757	21055
882.883	21146
883.01	20944
883.136	21001
883.262	20929
883.388	20792
883.514	21009
883.64	21074
883.766	20956
883.892	20743
884.018	20796
884.143	21081
884.269	21024
884.395	20891
884.52	20560
884.646	20773
884.772	20659
884.897	20712
885.023	20682
885.148	20765
885.274	20804
885.399	20758
885.524	20625
885.65	20678
885.775	20663
885.9	20781
886.025	20648
886.15	20621
886.275	20609
886.4	20613
886.525	20667
886.65	20571
886.775	20575
886.9	20902
887.025	20842
887.149	20613
887.274	20476
887.399	20431
887.523	20461
887.648	20404
887.773	20313
887.897	20530
888.021	20522
888.146	20385
888.27	20549
888.395	20446
888.519	20533
888.643	20549
888.767	20549
888.891	20450
889.015	20336
889.139	20427
889.263	20180
889.387	20522
889.511	20480
889.635	20317
889.759	20298
889.883	20210
890.006	20191
890.13	20298
890.254	20286
890.377	20263
890.501	19963
890.624	19936
890.748	20054
890.871	19799
890.995	19871
891.118	19803
891.241	19776
891.364	19826
891.488	19944
891.611	19776
891.734	19826
891.857	19963
891.98	19757
892.103	19959
892.226	19769
892.349	19727
892.471	19632
892.594	19837
892.717	19837
892.839	19742
892.962	19780
893.085	19879
893.207	19734
893.33	19757
893.452	19670
893.575	19708
893.697	19704
893.819	19906
893.941	19883
894.064	19833
894.186	19734
894.308	19529
894.43	19822
894.552	19909
894.674	19807
894.796	19632
894.918	19582
895.04	19704
895.161	19837
895.283	19715
895.405	19685
895.526	19750
895.648	19723
895.769	19765
895.891	19849
896.012	19833
896.134	19841
896.255	19753
896.376	19731
896.498	19753
896.619	19769
896.74	19727
896.861	19814
896.982	20100
897.103	20225
897.224	20172
897.345	19906
897.466	19982
897.587	19982
897.708	20172
897.828	19902
897.949	19921
898.07	19795
898.19	19788
898.311	20050
898.431	19807
898.552	20145
898.672	20046
898.792	20050
898.913	19963
899.033	19849
899.153	19784
899.273	19616
899.393	19734
899.513	19696
899.633	19624
899.753	19818
899.873	19704
899.993	19696
900.113	19731
900.232	19670
900.352	19662
900.472	19422
900.591	19559
900.711	19521
900.83	19521
900.95	19571
901.069	19445
901.189	19396
901.308	19202
901.427	19114
901.546	19133
901.665	19110
901.784	19145
901.904	18924
902.023	18875
902.141	18646
902.26	18540
902.379	18696
902.498	18612
902.617	18509
902.735	18673
902.854	18574
902.973	18555
903.091	18235
903.21	18125
903.328	18308
903.446	18197
903.565	18011
903.683	18076
903.801	17965
903.919	18007
904.038	17969
904.156	17771
904.274	18019
904.392	17988
904.51	17961
904.627	17874
904.745	17805
904.863	17897
904.981	17634
905.098	17558
905.216	17535
905.334	17573
905.451	17501
905.569	17505
905.686	17554
905.803	17547
905.921	17292
906.038	17452
906.155	17265
906.272	17258
906.389	17299
906.506	17121
906.623	17102
906.74	17189
906.857	16968
906.974	16968
907.091	17052
907.208	17185
907.324	17147
907.441	16957
907.557	16801
907.674	16801
907.79	16698
907.907	16725
908.023	16782
908.139	16858
908.256	16706
908.372	16721
908.488	16653
908.604	16611
908.72	16474
908.836	16451
908.952	16474
909.068	16531
909.184	16573
909.3	16550
909.415	16455
909.531	16462
909.647	16325
909.762	16314
909.878	16196
909.993	16162
910.108	16253
910.224	16223
910.339	16394
910.454	16139
910.57	16017
910.685	15937
910.8	16265
910.915	16246
911.03	16086
911.145	15903
911.259	15861
911.374	15857
911.489	15747
911.604	15743
911.718	15534
911.833	15648
911.947	15481
912.062	15492
912.176	15538
912.291	15561
912.405	15545
912.519	15751
912.633	15652
912.748	15610
912.862	15534
912.976	15424
913.09	15222
913.204	15370
913.318	15443
913.431	15397
913.545	15488
913.659	15534
913.772	15310
913.886	15264
914	15154
914.113	15310
914.226	15302
914.34	15203
914.453	15013
914.566	15207
914.68	15154
914.793	15081
914.906	14807
915.019	14754
915.132	14750
915.245	14781
915.358	14864
915.47	14781
915.583	14853
915.696	14864
915.809	14876
915.921	14986
916.034	14777
916.146	14644
916.259	14739
916.371	14716
916.483	14739
916.595	14640
916.708	14644
916.82	14644
916.932	14579
917.044	14602
917.156	14629
917.268	14537
917.38	14560
917.491	14480
917.603	14526
917.715	14473
917.826	14598
917.938	14495
918.049	14282
918.161	14396
918.272	14587
918.384	14610
918.495	14396
918.606	14434
918.717	14123
918.828	14244
918.939	14290
919.05	14180
919.161	14404
919.272	14024
919.383	14065
919.494	14240
919.604	14423
919.715	14233
919.826	14138
919.936	14107
920.047	14286
920.157	14229
920.267	14328
920.378	14206
920.488	14164
920.598	14309
920.708	14526
920.818	14332
920.928	14298
921.038	14526
921.148	14492
921.258	14115
921.368	14088
921.477	13928
921.587	13970
921.697	13845
921.806	13974
921.916	13906
922.025	13685
922.134	13586
922.244	13582
922.353	13655
922.462	13502
922.571	13373
922.68	13270
922.789	13301
922.898	13304
923.007	13168
923.116	13236
923.224	13247
923.333	13278
923.442	13221
923.55	13008
923.659	13099
923.767	13137
923.876	13034
923.984	13133
924.092	12932
924.201	12951
924.309	12985
924.417	13103
924.525	12958
924.633	12943
924.741	13852
924.849	12749
924.956	12837
925.064	12681
925.172	12627
925.279	12665
925.387	12703
925.494	12566
925.602	12776
925.709	12760
925.816	12494
925.924	12677
926.031	12703
926.138	12639
926.245	12711
926.352	12486
926.459	12665
926.566	12703
926.673	12540
926.779	12452
926.886	12429
926.993	12304
927.099	12232
927.206	12194
927.312	12114
927.419	12296
927.525	12292
927.631	12308
927.737	12190
927.843	12041
927.95	11988
928.056	12159
928.162	12167
928.267	12159
928.373	12726
928.479	12190
928.585	11863
928.69	11874
928.796	12038
928.901	11859
929.007	11843
929.112	12019
929.218	11843
929.323	11802
929.428	11718
929.533	11897
929.638	11688
929.743	11786
929.848	11786
929.953	11745
930.058	11649
930.163	11379
930.267	11512
930.372	11630
930.477	11452
930.581	11729
930.685	11501
930.79	11406
930.894	11402
930.998	11368
931.103	11516
931.207	11174
931.311	11025
931.415	11113
931.519	10809
931.623	10649
