Data from test_V78500241_3168.txt Node
Date: Fri Mar 25 15:31:55 CST 2022
User: usil
Spectrometer: V785-0024
Trigger mode: 0
Integration Time (sec): 4.000000E-1
Scans to average: 1
Nonlinearity correction enabled: false
Boxcar width: 0
Storing dark spectrum: false
XAxis mode: Wavelengths
Number of Pixels in Spectrum: 1024
>>>>>Begin Spectral Data<<<<<
801.071	27283
801.214	27009
801.356	26918
801.499	26781
801.641	26655
801.783	26636
801.926	26712
802.068	26609
802.211	26686
802.353	26499
802.496	26396
802.638	26343
802.78	26358
802.923	26164
803.065	26168
803.208	26195
803.35	26240
803.492	26385
803.635	26514
803.777	26339
803.919	26423
804.061	26716
804.204	26495
804.346	26355
804.488	26309
804.63	26275
804.773	26206
804.915	26427
805.057	26438
805.199	26404
805.341	26541
805.483	26511
805.626	26492
805.768	26514
805.91	26549
806.052	26564
806.194	26511
806.336	26739
806.478	26609
806.62	26518
806.762	26587
806.904	26796
807.046	27112
807.188	27009
807.33	26933
807.472	27039
807.614	26963
807.756	26967
807.898	26739
808.04	26659
808.182	26648
808.324	26834
808.465	26853
808.607	26921
808.749	27241
808.891	27211
809.033	27462
809.174	27085
809.316	27001
809.458	27252
809.6	27116
809.741	27184
809.883	27272
810.025	27393
810.166	27310
810.308	27355
810.45	27336
810.591	27218
810.733	27199
810.875	27268
811.016	26979
811.158	27024
811.299	27173
811.441	27435
811.582	27264
811.724	27043
811.865	26849
812.007	27062
812.148	27085
812.29	27154
812.431	27313
812.573	27351
812.714	27427
812.855	27557
812.997	27709
813.138	27846
813.279	27751
813.421	27622
813.562	27553
813.703	27412
813.845	27332
813.986	27123
814.127	26811
814.268	26777
814.41	26804
814.551	26583
814.692	26838
814.833	26674
814.974	26731
815.115	26849
815.256	26651
815.397	26769
815.539	26655
815.68	26560
815.821	26450
815.962	26667
816.103	26404
816.244	26278
816.385	26290
816.526	26180
816.666	26084
816.807	25997
816.948	26126
817.089	26046
817.23	26096
817.371	26031
817.512	25898
817.653	26107
817.793	25890
817.934	26024
818.075	26020
818.216	26103
818.356	26065
818.497	25902
818.638	25742
818.778	25670
818.919	25803
819.06	25830
819.2	25860
819.341	25849
819.481	25997
819.622	26259
819.762	26294
819.903	26366
820.043	26252
820.184	26153
820.324	26290
820.465	26202
820.605	26039
820.746	26096
820.886	25913
821.026	26024
821.167	26081
821.307	26073
821.447	25993
821.588	25974
821.728	25784
821.868	25613
822.008	25575
822.149	25388
822.289	25521
822.429	25362
822.569	25206
822.709	25282
822.849	24867
822.99	25053
823.13	24894
823.27	24802
823.41	24875
823.55	24673
823.69	24875
823.83	24890
823.97	24745
824.11	24471
824.25	24627
824.389	24631
824.529	24673
824.669	24623
824.809	24707
824.949	24627
825.089	24681
825.228	24616
825.368	24475
825.508	24384
825.648	24525
825.787	24490
825.927	24513
826.067	24460
826.206	24399
826.346	24502
826.485	24441
826.625	24429
826.765	24620
826.904	24597
827.044	24395
827.183	24235
827.323	24167
827.462	24228
827.601	24136
827.741	24026
827.88	24167
828.02	24053
828.159	24220
828.298	24251
828.437	24209
828.577	24197
828.716	24247
828.855	24095
828.994	23855
829.134	23817
829.273	23946
829.412	23866
829.551	23809
829.69	23882
829.829	23882
829.968	23992
830.107	23927
830.246	23946
830.385	23893
830.524	23908
830.663	23733
830.802	23604
830.941	23547
831.08	23562
831.219	23668
831.357	23589
831.496	23764
831.635	23452
831.774	23573
831.913	23425
832.051	23280
832.19	23322
832.329	23395
832.467	23239
832.606	23162
832.744	23124
832.883	23083
833.022	23109
833.16	23162
833.299	23303
833.437	23277
833.576	23280
833.714	23337
833.852	23280
833.991	23383
834.129	23455
834.267	23280
834.406	23235
834.544	23220
834.682	23436
834.821	23193
834.959	23463
835.097	23246
835.235	23239
835.373	23379
835.511	23277
835.65	23052
835.788	23132
835.926	22949
836.064	23029
836.202	22961
836.34	23235
836.478	23128
836.615	23022
836.753	22999
836.891	23185
837.029	23079
837.167	22976
837.305	23006
837.443	22961
837.58	22938
837.718	22915
837.856	22923
837.993	22900
838.131	22927
838.269	22930
838.406	22930
838.544	22843
838.681	22626
838.819	22675
838.956	22493
839.094	22493
839.231	22508
839.369	22645
839.506	22866
839.643	22577
839.781	22421
839.918	22325
840.055	22379
840.193	22542
840.33	22367
840.467	22405
840.604	22432
840.742	22580
840.879	22352
841.016	22265
841.153	22169
841.29	22500
841.427	22402
841.564	22402
841.701	22424
841.838	22409
841.975	22276
842.112	22382
842.249	22219
842.385	22249
842.522	22287
842.659	22249
842.796	22097
842.933	22070
843.069	22215
843.206	22101
843.343	22261
843.479	22188
843.616	22131
843.752	21960
843.889	21838
844.025	22055
844.162	21812
844.298	21953
844.435	21915
844.571	21774
844.708	21922
844.844	22021
844.98	22048
845.117	21918
845.253	21934
845.389	21778
845.525	21850
845.661	21941
845.798	21618
845.934	21701
846.07	21629
846.206	21690
846.342	21751
846.478	21663
846.614	21561
846.75	21382
846.886	21351
847.022	21450
847.158	21450
847.294	21416
847.429	21397
847.565	21389
847.701	21488
847.837	21119
847.972	21085
848.108	21195
848.244	21093
848.379	21024
848.515	20948
848.65	20994
848.786	21032
848.921	21028
849.057	21024
849.192	21036
849.328	21020
849.463	20906
849.598	20876
849.734	20979
849.869	20769
850.004	20689
850.14	20792
850.275	20792
850.41	20689
850.545	20781
850.68	20724
850.815	20762
850.95	20754
851.085	20921
851.22	20754
851.355	20788
851.49	20754
851.625	20640
851.76	20800
851.895	20609
852.03	20781
852.165	20712
852.299	20792
852.434	20853
852.569	20762
852.703	20815
852.838	20838
852.973	20834
853.107	20895
853.242	20640
853.376	20598
853.511	20537
853.645	20438
853.78	20720
853.914	20434
854.048	20537
854.183	20507
854.317	20495
854.451	20800
854.585	20480
854.72	20613
854.854	20594
854.988	20545
855.122	20556
855.256	20499
855.39	20602
855.524	20590
855.658	20537
855.792	20621
855.926	20621
856.06	20708
856.194	20678
856.327	20651
856.461	20442
856.595	20492
856.729	20556
856.862	20693
856.996	20602
857.13	20655
857.263	20735
857.397	20705
857.53	20514
857.664	20598
857.797	20655
857.931	20621
858.064	20663
858.197	20758
858.331	20549
858.464	20499
858.597	20537
858.731	20556
858.864	20518
858.997	20541
859.13	20446
859.263	20606
859.396	20545
859.529	20632
859.662	20446
859.795	20541
859.928	20701
860.061	20781
860.194	20785
860.327	20579
860.46	20518
860.592	20682
860.725	20613
860.858	20617
860.99	20514
861.123	20404
861.256	20511
861.388	20499
861.521	21100
861.653	20431
861.786	20313
861.918	20419
862.05	20389
862.183	20594
862.315	20609
862.447	20537
862.58	20431
862.712	20282
862.844	20214
862.976	20320
863.108	20290
863.24	20644
863.372	20214
863.504	20157
863.636	20282
863.768	20263
863.9	20206
864.032	20221
864.164	20309
864.296	20244
864.428	20358
864.559	20328
864.691	20328
864.823	20339
864.954	20252
865.086	20339
865.217	20218
865.349	20191
865.48	20164
865.612	20256
865.743	20282
865.875	20244
866.006	20119
866.137	20210
866.269	20290
866.4	20130
866.531	20100
866.662	20210
866.793	20183
866.924	20111
867.055	20058
867.186	20115
867.317	20164
867.448	20149
867.579	20073
867.71	20084
867.841	20157
867.972	20191
868.103	20092
868.233	20103
868.364	20134
868.495	20100
868.625	20138
868.756	20541
868.886	20286
869.017	20454
869.147	20396
869.278	20473
869.408	20332
869.539	20396
869.669	20507
869.799	20495
869.929	20484
870.06	20488
870.19	20659
870.32	20648
870.45	20648
870.58	20762
870.71	20910
870.84	20937
870.97	20765
871.1	20720
871.23	20998
871.36	20941
871.489	20796
871.619	20963
871.749	20994
871.879	21062
872.008	21161
872.138	20967
872.267	21017
872.397	20891
872.526	20864
872.656	20758
872.785	20880
872.915	20971
873.044	21138
873.173	20986
873.303	21081
873.432	21036
873.561	21024
873.69	21096
873.819	21108
873.948	21039
874.077	20921
874.206	21077
874.335	20975
874.464	21077
874.593	21268
874.722	21256
874.851	21249
874.979	21275
875.108	21321
875.237	21211
875.365	21226
875.494	21199
875.623	21469
875.751	21211
875.88	21306
876.008	21367
876.136	21466
876.265	21652
876.393	21755
876.521	21599
876.65	21724
876.778	21648
876.906	21736
877.034	21496
877.162	21618
877.29	21583
877.418	21553
877.546	21622
877.674	21675
877.802	21652
877.93	21637
878.058	21648
878.185	21496
878.313	21591
878.441	21580
878.568	21500
878.696	21576
878.824	21583
878.951	21648
879.079	21800
879.206	21956
879.333	21705
879.461	21545
879.588	21618
879.715	21751
879.842	21827
879.97	21694
880.097	21462
880.224	21534
880.351	21431
880.478	21564
880.605	21344
880.732	21393
880.859	21549
880.986	21526
881.112	21568
881.239	21363
881.366	21211
881.493	21146
881.619	21081
881.746	21108
881.872	21039
881.999	21024
882.125	21077
882.252	20960
882.378	20929
882.505	21131
882.631	20986
882.757	20708
882.883	20754
883.01	20777
883.136	20648
883.262	20663
883.388	20571
883.514	20804
883.64	20731
883.766	20735
883.892	20431
884.018	20480
884.143	20640
884.269	20724
884.395	20431
884.52	20324
884.646	20427
884.772	20396
884.897	20237
885.023	20355
885.148	20476
885.274	20476
885.399	20469
885.524	20476
885.65	20393
885.775	20358
885.9	20381
886.025	20492
886.15	20571
886.275	20332
886.4	20244
886.525	20370
886.65	20328
886.775	20362
886.9	20476
887.025	20537
887.149	20202
887.274	20172
887.399	20115
887.523	20111
887.648	20161
887.773	20054
887.897	20259
888.021	20126
888.146	20005
888.27	20233
888.395	20240
888.519	20149
888.643	20119
888.767	20157
888.891	20024
889.015	19936
889.139	20077
889.263	19951
889.387	20039
889.511	20088
889.635	20050
889.759	19852
889.883	19959
890.006	19993
890.13	20024
890.254	19951
890.377	19849
890.501	19822
890.624	19788
890.748	19719
890.871	19719
890.995	19422
891.118	19552
891.241	19578
891.364	19624
891.488	19715
891.611	19567
891.734	19590
891.857	19666
891.98	19480
892.103	19620
892.226	19548
892.349	19506
892.471	19400
892.594	19468
892.717	19487
892.839	19411
892.962	19392
893.085	19529
893.207	19464
893.33	19403
893.452	19400
893.575	19506
893.697	19464
893.819	19552
893.941	19635
894.064	19487
894.186	19400
894.308	19422
894.43	19464
894.552	19544
894.674	19502
894.796	19403
894.918	19400
895.04	19320
895.161	19472
895.283	19476
895.405	19362
895.526	19464
895.648	19510
895.769	19419
895.891	19495
896.012	19518
896.134	19518
896.255	19495
896.376	19373
896.498	19518
896.619	19468
896.74	19525
896.861	19537
896.982	19769
897.103	19978
897.224	19708
897.345	19674
897.466	19704
897.587	19795
897.708	19696
897.828	19814
897.949	19613
898.07	19620
898.19	19753
898.311	19746
898.431	19635
898.552	19685
898.672	19807
898.792	19677
898.913	19738
899.033	19700
899.153	19590
899.273	19304
899.393	19438
899.513	19521
899.633	19415
899.753	19457
899.873	19365
899.993	19476
900.113	19285
900.232	19403
900.352	19400
900.472	19244
900.591	19160
900.711	19278
900.83	19259
900.95	19247
901.069	19426
901.189	19129
901.308	18863
901.427	18673
901.546	18817
901.665	18821
901.784	18871
901.904	18635
902.023	18498
902.141	18517
902.26	18376
902.379	18475
902.498	18391
902.617	18353
902.735	18372
902.854	18353
902.973	18201
903.091	17992
903.21	17893
903.328	18083
903.446	17973
903.565	17798
903.683	17916
903.801	17786
903.919	17767
904.038	17840
904.156	17627
904.274	17600
904.392	17596
904.51	17562
904.627	17592
904.745	17512
904.863	17703
904.981	17353
905.098	17360
905.216	17345
905.334	17406
905.451	17159
905.569	17307
905.686	17337
905.803	17254
905.921	17048
906.038	17273
906.155	16980
906.272	16999
906.389	16976
906.506	16908
906.623	16873
906.74	16786
906.857	16691
906.974	16755
907.091	16885
907.208	16949
907.324	16892
907.441	16599
907.557	16683
907.674	16561
907.79	16500
907.907	16569
908.023	16634
908.139	16569
908.256	16459
908.372	16523
908.488	16459
908.604	16322
908.72	16192
908.836	16181
908.952	16188
909.068	16306
909.184	16398
909.3	16352
909.415	16299
909.531	16318
909.647	16048
909.762	16032
909.878	15903
909.993	16086
910.108	15926
910.224	15941
910.339	15968
910.454	15934
910.57	15838
910.685	15823
910.8	15979
910.915	15934
911.03	15778
911.145	15663
911.259	15538
911.374	15648
911.489	15526
911.604	15466
911.718	15302
911.833	15382
911.947	15214
912.062	15165
912.176	15359
912.291	15477
912.405	15252
912.519	15462
912.633	15511
912.748	15515
912.862	15431
912.976	15218
913.09	15036
913.204	15268
913.318	15214
913.431	15226
913.545	15348
913.659	15260
913.772	15127
913.886	15013
914	14998
914.113	15081
914.226	15131
914.34	15028
914.453	14891
914.566	15146
914.68	14956
914.793	14960
914.906	14667
915.019	14651
915.132	14568
915.245	14632
915.358	14606
915.47	14541
915.583	14617
915.696	14602
915.809	14800
915.921	14811
916.034	14621
916.146	14556
916.259	14568
916.371	14537
916.483	14514
916.595	14480
916.708	14473
916.82	14499
916.932	14461
917.044	14461
917.156	14499
917.268	14290
917.38	14366
917.491	14305
917.603	14317
917.715	14362
917.826	14324
917.938	14328
918.049	14221
918.161	14278
918.272	14377
918.384	14301
918.495	14355
918.606	14096
918.717	14031
918.828	14172
918.939	14081
919.05	14107
919.161	13986
919.272	13830
919.383	13940
919.494	14092
919.604	14267
919.715	14073
919.826	13883
919.936	14020
920.047	14111
920.157	13978
920.267	14313
920.378	14092
920.488	14058
920.598	14187
920.708	14336
920.818	14161
920.928	14191
921.038	14332
921.148	14305
921.258	14005
921.368	13925
921.477	13864
921.587	13803
921.697	13658
921.806	13742
921.916	13613
922.025	13552
922.134	13472
922.244	13388
922.353	13502
922.462	13400
922.571	13270
922.68	13137
922.789	13027
922.898	13118
923.007	13008
923.116	13122
923.224	13095
923.333	13065
923.442	13008
923.55	13042
923.659	12970
923.767	12928
923.876	12859
923.984	13031
924.092	12814
924.201	12806
924.309	12947
924.417	12920
924.525	12791
924.633	12715
924.741	13742
924.849	12627
924.956	12768
925.064	12570
925.172	12563
925.279	12498
925.387	12559
925.494	12441
925.602	12753
925.709	12555
925.816	12502
925.924	12414
926.031	12555
926.138	12544
926.245	12582
926.352	12418
926.459	12475
926.566	12597
926.673	12429
926.779	12315
926.886	12445
926.993	12136
927.099	12155
927.206	12095
927.312	12095
927.419	12194
927.525	12148
927.631	12197
927.737	12083
927.843	11980
927.95	11821
928.056	11999
928.162	11950
928.267	12026
928.373	12650
928.479	12026
928.585	11809
928.69	11916
928.796	11916
928.901	11847
929.007	11668
929.112	11775
929.218	11813
929.323	11642
929.428	11661
929.533	11809
929.638	11615
929.743	11630
929.848	11627
929.953	11604
930.058	11471
930.163	11425
930.267	11402
930.372	11516
930.477	11353
930.581	11539
930.685	11414
930.79	11299
930.894	11258
930.998	11307
931.103	11474
931.207	10961
931.311	10927
931.415	10835
931.519	10721
931.623	10683
