Data from test_V78500241_3241.txt Node
Date: Fri Mar 25 15:32:25 CST 2022
User: usil
Spectrometer: V785-0024
Trigger mode: 0
Integration Time (sec): 4.000000E-1
Scans to average: 1
Nonlinearity correction enabled: false
Boxcar width: 0
Storing dark spectrum: false
XAxis mode: Wavelengths
Number of Pixels in Spectrum: 1024
>>>>>Begin Spectral Data<<<<<
801.071	27268
801.214	27237
801.356	26807
801.499	26883
801.641	26845
801.783	26724
801.926	26792
802.068	26925
802.211	26587
802.353	26625
802.496	26518
802.638	26556
802.78	26343
802.923	26259
803.065	26161
803.208	26267
803.35	26427
803.492	26575
803.635	26670
803.777	26465
803.919	26579
804.061	26906
804.204	26686
804.346	26511
804.488	26549
804.63	26648
804.773	26495
804.915	26446
805.057	26552
805.199	26598
805.341	26571
805.483	26625
805.626	26632
805.768	26571
805.91	26663
806.052	26640
806.194	26484
806.336	26727
806.478	26716
806.62	26598
806.762	26674
806.904	26895
807.046	27173
807.188	26998
807.33	27233
807.472	27138
807.614	27013
807.756	27028
807.898	26880
808.04	26811
808.182	26762
808.324	26925
808.465	26944
808.607	27131
808.749	27188
808.891	27363
809.033	27526
809.174	27424
809.316	27382
809.458	27291
809.6	27272
809.741	27363
809.883	27450
810.025	27427
810.166	27564
810.308	27542
810.45	27496
810.591	27408
810.733	27401
810.875	27233
811.016	27211
811.158	27142
811.299	27329
811.441	27408
811.582	27245
811.724	27260
811.865	27252
812.007	27195
812.148	27222
812.29	27218
812.431	27416
812.573	27526
812.714	27637
812.855	27762
812.997	27766
813.138	28025
813.279	27743
813.421	27667
813.562	27686
813.703	27431
813.845	27340
813.986	27161
814.127	27032
814.268	26914
814.41	27028
814.551	26902
814.692	27058
814.833	26933
814.974	26887
815.115	26960
815.256	26823
815.397	26792
815.539	26750
815.68	26785
815.821	26609
815.962	26701
816.103	26724
816.244	26533
816.385	26453
816.526	26404
816.666	26256
816.807	26149
816.948	26237
817.089	26225
817.23	26343
817.371	26233
817.512	26176
817.653	26084
817.793	26126
817.934	26225
818.075	26119
818.216	26115
818.356	26195
818.497	25993
818.638	25757
818.778	25906
818.919	25978
819.06	26050
819.2	26122
819.341	26199
819.481	26244
819.622	26347
819.762	26469
819.903	26366
820.043	26415
820.184	26347
820.324	26298
820.465	26290
820.605	26389
820.746	26233
820.886	26195
821.026	26168
821.167	26195
821.307	26206
821.447	26161
821.588	25955
821.728	25837
821.868	25681
822.008	25704
822.149	25647
822.289	25609
822.429	25388
822.569	25316
822.709	25312
822.849	25266
822.99	25187
823.13	25194
823.27	25152
823.41	24905
823.55	24833
823.69	25076
823.83	24932
823.97	24970
824.11	24840
824.25	24616
824.389	24783
824.529	24875
824.669	24772
824.809	24776
824.949	24905
825.089	24920
825.228	24863
825.368	24677
825.508	24639
825.648	24623
825.787	24646
825.927	24616
826.067	24635
826.206	24509
826.346	24677
826.485	24681
826.625	24639
826.765	24802
826.904	24703
827.044	24528
827.183	24418
827.323	24277
827.462	24399
827.601	24437
827.741	24273
827.88	24334
828.02	24285
828.159	24315
828.298	24395
828.437	24479
828.577	24346
828.716	24391
828.855	24194
828.994	24034
829.134	24049
829.273	24174
829.412	24079
829.551	24106
829.69	23920
829.829	24213
829.968	24163
830.107	24087
830.246	24232
830.385	24045
830.524	23969
830.663	23882
830.802	23771
830.941	23657
831.08	23699
831.219	23786
831.357	23710
831.496	23885
831.635	23665
831.774	23539
831.913	23486
832.051	23463
832.19	23398
832.329	23463
832.467	23242
832.606	23246
832.744	23322
832.883	23303
833.022	23414
833.16	23406
833.299	23387
833.437	23433
833.576	23410
833.714	23463
833.852	23410
833.991	23524
834.129	23539
834.267	23406
834.406	23474
834.544	23604
834.682	23410
834.821	23421
834.959	23600
835.097	23459
835.235	23448
835.373	23379
835.511	23398
835.65	23349
835.788	23288
835.926	23216
836.064	23159
836.202	23121
836.34	23334
836.478	23334
836.615	23239
836.753	23239
836.891	23356
837.029	23402
837.167	23216
837.305	23246
837.443	23231
837.58	23113
837.718	23189
837.856	23178
837.993	23121
838.131	23029
838.269	22984
838.406	23041
838.544	22915
838.681	22744
838.819	22710
838.956	22752
839.094	22542
839.231	22664
839.369	22763
839.506	23029
839.643	22938
839.781	22675
839.918	22637
840.055	22618
840.193	22557
840.33	22630
840.467	22512
840.604	22615
840.742	22744
840.879	22481
841.016	22466
841.153	22565
841.29	22713
841.427	22603
841.564	22637
841.701	22481
841.838	22394
841.975	22440
842.112	22432
842.249	22451
842.385	22295
842.522	22516
842.659	22417
842.796	22234
842.933	22371
843.069	22253
843.206	22246
843.343	22325
843.479	22261
843.616	22352
843.752	22131
843.889	22124
844.025	22257
844.162	22059
844.298	22192
844.435	22093
844.571	22025
844.708	22116
844.844	22318
844.98	22204
845.117	22242
845.253	22101
845.389	21781
845.525	22051
845.661	21979
845.798	21838
845.934	21823
846.07	21743
846.206	21846
846.342	21892
846.478	21797
846.614	21538
846.75	21515
846.886	21412
847.022	21599
847.158	21534
847.294	21542
847.429	21488
847.565	21443
847.701	21975
847.837	21351
847.972	21310
848.108	21287
848.244	21428
848.379	21157
848.515	21138
848.65	21096
848.786	21237
848.921	21119
849.057	21321
849.192	21211
849.328	21043
849.463	21146
849.598	21116
849.734	21001
849.869	20963
850.004	20899
850.14	21028
850.275	20872
850.41	20853
850.545	20826
850.68	20826
850.815	20857
850.95	20944
851.085	21024
851.22	21032
851.355	20998
851.49	20720
851.625	20868
851.76	21036
851.895	20876
852.03	20826
852.165	20937
852.299	20975
852.434	21104
852.569	20891
852.703	20883
852.838	21028
852.973	21169
853.107	20876
853.242	20781
853.376	20838
853.511	20583
853.645	20697
853.78	20891
853.914	20792
854.048	20743
854.183	20724
854.317	20807
854.451	20807
854.585	20823
854.72	20739
854.854	20804
854.988	20613
855.122	20708
855.256	20670
855.39	20792
855.524	20838
855.658	20720
855.792	20781
855.926	20727
856.06	20800
856.194	20861
856.327	20754
856.461	20712
856.595	20571
856.729	20777
856.862	20880
856.996	20765
857.13	20746
857.263	20834
857.397	20887
857.53	20727
857.664	20739
857.797	20819
857.931	20800
858.064	20804
858.197	20765
858.331	20670
858.464	20575
858.597	20701
858.731	20746
858.864	20629
858.997	20727
859.13	20800
859.263	20720
859.396	20845
859.529	20788
859.662	20594
859.795	20693
859.928	20838
860.061	20845
860.194	20853
860.327	20845
860.46	20842
860.592	20883
860.725	20823
860.858	20872
860.99	20651
861.123	20583
861.256	20651
861.388	20712
861.521	21252
861.653	20587
861.786	20537
861.918	20457
862.05	20621
862.183	20682
862.315	20663
862.447	20739
862.58	20705
862.712	20366
862.844	20343
862.976	20568
863.108	20457
863.24	20838
863.372	20366
863.504	20488
863.636	20454
863.768	20431
863.9	20377
864.032	20374
864.164	20446
864.296	20552
864.428	20450
864.559	20503
864.691	20556
864.823	20408
864.954	20355
865.086	20549
865.217	20396
865.349	20301
865.48	20419
865.612	20423
865.743	20602
865.875	20282
866.006	20324
866.137	20362
866.269	20393
866.4	20324
866.531	20305
866.662	20271
866.793	20229
866.924	20282
867.055	20244
867.186	20332
867.317	20355
867.448	20138
867.579	20267
867.71	20244
867.841	20290
867.972	20396
868.103	20389
868.233	20381
868.364	20218
868.495	20370
868.625	20499
868.756	20625
868.886	20499
869.017	20511
869.147	20613
869.278	20648
869.408	20530
869.539	20583
869.669	20644
869.799	20575
869.929	20644
870.06	20727
870.19	20781
870.32	20838
870.45	20849
870.58	20925
870.71	21165
870.84	21070
870.97	21074
871.1	20933
871.23	21074
871.36	21188
871.489	21055
871.619	21047
871.749	21135
871.879	21310
872.008	21249
872.138	21100
872.267	21207
872.397	21039
872.526	20982
872.656	20975
872.785	20910
872.915	21138
873.044	21275
873.173	21112
873.303	21180
873.432	21325
873.561	21302
873.69	21161
873.819	21169
873.948	21275
874.077	21268
874.206	21226
874.335	21173
874.464	21195
874.593	21294
874.722	21412
874.851	21526
874.979	21447
875.108	21469
875.237	21435
875.365	21279
875.494	21424
875.623	21443
875.751	21431
875.88	21374
876.008	21523
876.136	21641
876.265	21800
876.393	21918
876.521	21865
876.65	21869
876.778	21774
876.906	21804
877.034	21762
877.162	21720
877.29	21789
877.418	21846
877.546	21743
877.674	21690
877.802	21827
877.93	21675
878.058	21663
878.185	21629
878.313	21739
878.441	21713
878.568	21591
878.696	21686
878.824	21781
878.951	21884
879.079	21956
879.206	21979
879.333	22013
879.461	21682
879.588	21899
879.715	21930
879.842	22120
879.97	21907
880.097	21587
880.224	21568
880.351	21667
880.478	21606
880.605	21557
880.732	21682
880.859	21869
880.986	21496
881.112	21553
881.239	21405
881.366	21321
881.493	21291
881.619	21222
881.746	21252
881.872	21218
881.999	21173
882.125	21108
882.252	21188
882.378	21154
882.505	21207
882.631	21123
882.757	21009
882.883	20982
883.01	21062
883.136	20819
883.262	20750
883.388	20636
883.514	20792
883.64	20868
883.766	20807
883.892	20708
884.018	20606
884.143	20769
884.269	20937
884.395	20552
884.52	20556
884.646	20594
884.772	20446
884.897	20362
885.023	20518
885.148	20629
885.274	20644
885.399	20701
885.524	20503
885.65	20564
885.775	20575
885.9	20568
886.025	20537
886.15	20575
886.275	20419
886.4	20347
886.525	20446
886.65	20522
886.775	20484
886.9	20754
887.025	20804
887.149	20488
887.274	20377
887.399	20370
887.523	20290
887.648	20199
887.773	20282
887.897	20320
888.021	20355
888.146	20218
888.27	20442
888.395	20423
888.519	20434
888.643	20305
888.767	20366
888.891	20145
889.015	20138
889.139	20195
889.263	20043
889.387	20191
889.511	20233
889.635	20358
889.759	20077
889.883	20008
890.006	20145
890.13	20263
890.254	20119
890.377	20035
890.501	19803
890.624	19871
890.748	19913
890.871	19841
890.995	19712
891.118	19689
891.241	19750
891.364	19655
891.488	19864
891.611	19727
891.734	19506
891.857	19871
891.98	19670
892.103	19662
892.226	19613
892.349	19590
892.471	19434
892.594	19590
892.717	19708
892.839	19601
892.962	19658
893.085	19689
893.207	19590
893.33	19605
893.452	19457
893.575	19715
893.697	19525
893.819	19807
893.941	19776
894.064	19750
894.186	19597
894.308	19438
894.43	19670
894.552	19700
894.674	19693
894.796	19582
894.918	19419
895.04	19533
895.161	19620
895.283	19575
895.405	19426
895.526	19662
895.648	19567
895.769	19514
895.891	19670
896.012	19677
896.134	19742
896.255	19624
896.376	19643
896.498	19616
896.619	19662
896.74	19601
896.861	19689
896.982	19978
897.103	20024
897.224	19906
897.345	19769
897.466	19772
897.587	19689
897.708	19959
897.828	19715
897.949	19803
898.07	19791
898.19	19746
898.311	19963
898.431	19757
898.552	19822
898.672	19788
898.792	19811
898.913	19750
899.033	19788
899.153	19670
899.273	19533
899.393	19582
899.513	19605
899.633	19613
899.753	19620
899.873	19597
899.993	19609
900.113	19518
900.232	19582
900.352	19483
900.472	19381
900.591	19312
900.711	19358
900.83	19365
900.95	19499
901.069	19441
901.189	19194
901.308	19042
901.427	18951
901.546	18966
901.665	19057
901.784	18886
901.904	18783
902.023	18658
902.141	18559
902.26	18441
902.379	18589
902.498	18433
902.617	18410
902.735	18616
902.854	18471
902.973	18410
903.091	18190
903.21	18171
903.328	18114
903.446	18102
903.565	17931
903.683	17992
903.801	17840
903.919	18030
904.038	17901
904.156	17710
904.274	17695
904.392	17745
904.51	17699
904.627	17684
904.745	17786
904.863	17832
904.981	17570
905.098	17368
905.216	17326
905.334	17448
905.451	17395
905.569	17391
905.686	17452
905.803	17372
905.921	17189
906.038	17242
906.155	17242
906.272	17048
906.389	17128
906.506	16942
906.623	16938
906.74	16934
906.857	16801
906.974	16987
907.091	17010
907.208	17006
907.324	16911
907.441	16763
907.557	16645
907.674	16733
907.79	16668
907.907	16694
908.023	16729
908.139	16618
908.256	16656
908.372	16573
908.488	16622
908.604	16413
908.72	16409
908.836	16394
908.952	16367
909.068	16352
909.184	16580
909.3	16382
909.415	16504
909.531	16424
909.647	16185
909.762	16086
909.878	16097
909.993	16090
910.108	16078
910.224	16101
910.339	16147
910.454	15899
910.57	15975
910.685	15934
910.8	16135
910.915	16048
911.03	15880
911.145	15808
911.259	15755
911.374	15728
911.489	15587
911.604	15481
911.718	15549
911.833	15466
911.947	15382
912.062	15397
912.176	15469
912.291	15542
912.405	15481
912.519	15644
912.633	15614
912.748	15523
912.862	15511
912.976	15363
913.09	15260
913.204	15192
913.318	15291
913.431	15389
913.545	15233
913.659	15397
913.772	15252
913.886	15066
914	15108
914.113	15169
914.226	15218
914.34	15169
914.453	14963
914.566	15066
914.68	15032
914.793	14982
914.906	14842
915.019	14594
915.132	14617
915.245	14644
915.358	14621
915.47	14689
915.583	14708
915.696	14750
915.809	14868
915.921	14910
916.034	14670
916.146	14648
916.259	14594
916.371	14712
916.483	14712
916.595	14522
916.708	14511
916.82	14545
916.932	14522
917.044	14480
917.156	14552
917.268	14339
917.38	14423
917.491	14377
917.603	14381
917.715	14431
917.826	14332
917.938	14362
918.049	14259
918.161	14301
918.272	14495
918.384	14488
918.495	14305
918.606	14294
918.717	14191
918.828	14168
918.939	14092
919.05	14115
919.161	14149
919.272	13936
919.383	13978
919.494	14320
919.604	14377
919.715	14123
919.826	14065
919.936	14176
920.047	14214
920.157	14107
920.267	14336
920.378	14088
920.488	13997
920.598	14362
920.708	14423
920.818	14294
920.928	14161
921.038	14351
921.148	14339
921.258	13986
921.368	13997
921.477	13784
921.587	13852
921.697	13677
921.806	13833
921.916	13807
922.025	13594
922.134	13476
922.244	13567
922.353	13601
922.462	13373
922.571	13362
922.68	13187
922.789	13126
922.898	13133
923.007	13065
923.116	13107
923.224	13175
923.333	13034
923.442	12966
923.55	13023
923.659	12981
923.767	13080
923.876	12973
923.984	12958
924.092	13004
924.201	12829
924.309	12867
924.417	12901
924.525	12871
924.633	12814
924.741	13795
924.849	12662
924.956	12795
925.064	12650
925.172	12456
925.279	12521
925.387	12658
925.494	12623
925.602	12688
925.709	12631
925.816	12429
925.924	12521
926.031	12528
926.138	12574
926.245	12620
926.352	12486
926.459	12593
926.566	12601
926.673	12464
926.779	12426
926.886	12403
926.993	12254
927.099	12201
927.206	12136
927.312	12148
927.419	12186
927.525	12171
927.631	12224
927.737	12125
927.843	12034
927.95	11954
928.056	11935
928.162	12076
928.267	12045
928.373	12711
928.479	12098
928.585	11836
928.69	11920
928.796	11946
928.901	11840
929.007	11722
929.112	11798
929.218	11889
929.323	11794
929.428	11764
929.533	11878
929.638	11710
929.743	11745
929.848	11714
929.953	11714
930.058	11558
930.163	11421
930.267	11467
930.372	11619
930.477	11391
930.581	11596
930.685	11482
930.79	11345
930.894	11318
930.998	11318
931.103	11379
931.207	11117
931.311	10923
931.415	10873
931.519	10744
931.623	10668
