Data from test_V78500241_1608.txt Node
Date: Fri Mar 25 15:21:03 CST 2022
User: usil
Spectrometer: V785-0024
Trigger mode: 0
Integration Time (sec): 4.000000E-1
Scans to average: 1
Nonlinearity correction enabled: false
Boxcar width: 0
Storing dark spectrum: false
XAxis mode: Wavelengths
Number of Pixels in Spectrum: 1024
>>>>>Begin Spectral Data<<<<<
801.071	27728
801.214	27637
801.356	27359
801.499	27207
801.641	27173
801.783	27138
801.926	27264
802.068	27142
802.211	27241
802.353	27051
802.496	26857
802.638	26887
802.78	26746
802.923	27005
803.065	26864
803.208	26823
803.35	26998
803.492	27017
803.635	27123
803.777	26937
803.919	27150
804.061	27241
804.204	27127
804.346	26963
804.488	27039
804.63	27009
804.773	26986
804.915	27070
805.057	27112
805.199	27131
805.341	27020
805.483	27226
805.626	27127
805.768	27161
805.91	27055
806.052	27230
806.194	27066
806.336	27389
806.478	27287
806.62	27169
806.762	27275
806.904	27321
807.046	27717
807.188	27690
807.33	27637
807.472	27591
807.614	27675
807.756	27526
807.898	27507
808.04	27416
808.182	27534
808.324	27519
808.465	27397
808.607	27713
808.749	27717
808.891	27857
809.033	27914
809.174	27819
809.316	27808
809.458	27759
809.6	27679
809.741	28055
809.883	27945
810.025	28029
810.166	28040
810.308	28040
810.45	28169
810.591	28032
810.733	27865
810.875	27755
811.016	27781
811.158	27686
811.299	27785
811.441	28029
811.582	27835
811.724	27739
811.865	27835
812.007	27831
812.148	27911
812.29	27972
812.431	27880
812.573	28078
812.714	28177
812.855	28314
812.997	28504
813.138	28759
813.279	28371
813.421	28234
813.562	28440
813.703	28093
813.845	28124
813.986	27793
814.127	27724
814.268	27549
814.41	27431
814.551	27477
814.692	27625
814.833	27454
814.974	27477
815.115	27534
815.256	27344
815.397	27431
815.539	27275
815.68	27397
815.821	27393
815.962	27405
816.103	27230
816.244	27077
816.385	27051
816.526	27028
816.666	26868
816.807	26834
816.948	26815
817.089	26902
817.23	26914
817.371	26845
817.512	26796
817.653	26758
817.793	26716
817.934	26777
818.075	26762
818.216	26765
818.356	26796
818.497	26590
818.638	26400
818.778	26556
818.919	26598
819.06	26670
819.2	26705
819.341	26731
819.481	26811
819.622	27028
819.762	27005
819.903	26910
820.043	26849
820.184	26838
820.324	26918
820.465	27020
820.605	26724
820.746	26975
820.886	26693
821.026	26815
821.167	26819
821.307	26921
821.447	26750
821.588	26682
821.728	26507
821.868	26400
822.008	26199
822.149	26233
822.289	26244
822.429	26035
822.569	25966
822.709	25860
822.849	25795
822.99	25830
823.13	25620
823.27	25742
823.41	25635
823.55	25415
823.69	25605
823.83	25658
823.97	25529
824.11	25206
824.25	25331
824.389	25373
824.529	25449
824.669	25464
824.809	25331
824.949	25460
825.089	25499
825.228	25362
825.368	25202
825.508	25270
825.648	25346
825.787	25320
825.927	25247
826.067	25247
826.206	25297
826.346	25301
826.485	25369
826.625	25114
826.765	25373
826.904	25160
827.044	24970
827.183	24890
827.323	24932
827.462	25122
827.601	25091
827.741	25034
827.88	25061
828.02	24844
828.159	24970
828.298	24833
828.437	25000
828.577	24958
828.716	24977
828.855	24859
828.994	24711
829.134	24817
829.273	24623
829.412	24719
829.551	24677
829.69	24677
829.829	24741
829.968	24734
830.107	24719
830.246	24654
830.385	24544
830.524	24608
830.663	24547
830.802	24247
830.941	24285
831.08	24186
831.219	24342
831.357	24361
831.496	24490
831.635	24254
831.774	24235
831.913	24034
832.051	24076
832.19	24053
832.329	24060
832.467	24003
832.606	23893
832.744	23901
832.883	23912
833.022	23958
833.16	23988
833.299	23977
833.437	23996
833.576	24117
833.714	24076
833.852	24091
833.991	23969
834.129	24148
834.267	24171
834.406	23908
834.544	23984
834.682	24076
834.821	24011
834.959	24060
835.097	23942
835.235	24098
835.373	24057
835.511	23961
835.65	23977
835.788	23912
835.926	23642
836.064	23684
836.202	23512
836.34	23798
836.478	23893
836.615	23916
836.753	23802
836.891	23821
837.029	23870
837.167	23741
837.305	23707
837.443	23775
837.58	23756
837.718	23756
837.856	23684
837.993	23562
838.131	23668
838.269	23570
838.406	23581
838.544	23505
838.681	23303
838.819	23402
838.956	23185
839.094	23102
839.231	23071
839.369	23334
839.506	23611
839.643	23311
839.781	23193
839.918	23147
840.055	23185
840.193	23079
840.33	22999
840.467	23124
840.604	23010
840.742	23322
840.879	22942
841.016	23083
841.153	22896
841.29	23094
841.427	22980
841.564	23029
841.701	23022
841.838	22946
841.975	22816
842.112	22915
842.249	22790
842.385	22862
842.522	22930
842.659	23003
842.796	22854
842.933	22755
843.069	22812
843.206	22816
843.343	22869
843.479	22828
843.616	22641
843.752	22531
843.889	22637
844.025	22752
844.162	22656
844.298	22649
844.435	22759
844.571	22573
844.708	22577
844.844	22729
844.98	22782
845.117	22725
845.253	22615
845.389	22443
845.525	22466
845.661	22417
845.798	22272
845.934	22440
846.07	22329
846.206	22390
846.342	22341
846.478	22196
846.614	21998
846.75	22143
846.886	22150
847.022	22128
847.158	22143
847.294	22131
847.429	22120
847.565	22086
847.701	22265
847.837	21766
847.972	21762
848.108	21781
848.244	21770
848.379	21686
848.515	21720
848.65	21500
848.786	21564
848.921	21728
849.057	21770
849.192	21781
849.328	21599
849.463	21591
849.598	21587
849.734	21637
849.869	21393
850.004	21351
850.14	21439
850.275	21386
850.41	21458
850.545	21389
850.68	21420
850.815	21416
850.95	21458
851.085	21534
851.22	21511
851.355	21397
851.49	21374
851.625	21351
851.76	21367
851.895	21363
852.03	21340
852.165	21382
852.299	21496
852.434	21466
852.569	21340
852.703	21386
852.838	21439
852.973	21511
853.107	21660
853.242	21355
853.376	21180
853.511	21207
853.645	21249
853.78	21428
853.914	21226
854.048	21249
854.183	21279
854.317	21435
854.451	21348
854.585	21199
854.72	21222
854.854	21310
854.988	21169
855.122	21192
855.256	21089
855.39	21241
855.524	21344
855.658	21237
855.792	21294
855.926	21378
856.06	21325
856.194	21386
856.327	21188
856.461	21188
856.595	21211
856.729	21157
856.862	21348
856.996	21283
857.13	21260
857.263	21351
857.397	21245
857.53	21233
857.664	21294
857.797	21336
857.931	21291
858.064	21249
858.197	21317
858.331	21241
858.464	21119
858.597	21188
858.731	21169
858.864	21214
858.997	21150
859.13	21203
859.263	21252
859.396	21252
859.529	21230
859.662	21184
859.795	21226
859.928	21154
860.061	21450
860.194	21523
860.327	21367
860.46	21211
860.592	21397
860.725	21264
860.858	21424
860.99	21207
861.123	21119
861.256	21233
861.388	21264
861.521	21918
861.653	21055
861.786	21104
861.918	21013
862.05	21157
862.183	21146
862.315	21161
862.447	21230
862.58	21135
862.712	21047
862.844	20963
862.976	21100
863.108	21001
863.24	21218
863.372	20941
863.504	20842
863.636	20975
863.768	20804
863.9	21028
864.032	20910
864.164	20842
864.296	20975
864.428	21047
864.559	21017
864.691	21089
864.823	20998
864.954	20975
865.086	20918
865.217	20960
865.349	20720
865.48	20800
865.612	20849
865.743	20838
865.875	20796
866.006	20861
866.137	20895
866.269	20800
866.4	20762
866.531	20678
866.662	20705
866.793	20689
866.924	20887
867.055	20746
867.186	20811
867.317	20727
867.448	20712
867.579	20826
867.71	20792
867.841	20724
867.972	20792
868.103	20792
868.233	20853
868.364	20743
868.495	20830
868.625	21085
868.756	21104
868.886	20986
869.017	20925
869.147	21108
869.278	21150
869.408	20914
869.539	21058
869.669	21043
869.799	21093
869.929	21108
870.06	21233
870.19	21268
870.32	21218
870.45	21306
870.58	21473
870.71	21450
870.84	21408
870.97	21500
871.1	21325
871.23	21656
871.36	21599
871.489	21511
871.619	21557
871.749	21576
871.879	21629
872.008	21747
872.138	21572
872.267	21720
872.397	21511
872.526	21545
872.656	21477
872.785	21412
872.915	21545
873.044	21732
873.173	21606
873.303	21648
873.432	21663
873.561	21739
873.69	21671
873.819	21660
873.948	21732
874.077	21739
874.206	21580
874.335	21663
874.464	21709
874.593	21819
874.722	21873
874.851	21869
874.979	21895
875.108	21819
875.237	21953
875.365	21751
875.494	21861
875.623	21781
875.751	21717
875.88	21892
876.008	22010
876.136	21968
876.265	22188
876.393	22356
876.521	22310
876.65	22382
876.778	22215
876.906	22272
877.034	22219
877.162	22166
877.29	22154
877.418	22124
877.546	22238
877.674	22226
877.802	22116
877.93	22097
878.058	22162
878.185	22044
878.313	22124
878.441	22200
878.568	21975
878.696	22173
878.824	22360
878.951	22390
879.079	22329
879.206	22360
879.333	22459
879.461	22204
879.588	22295
879.715	22360
879.842	22493
879.97	22272
880.097	22013
880.224	22112
880.351	22013
880.478	22017
880.605	21975
880.732	21949
880.859	22162
880.986	22055
881.112	21960
881.239	21819
881.366	21774
881.493	21709
881.619	21671
881.746	21610
881.872	21515
881.999	21534
882.125	21553
882.252	21633
882.378	21523
882.505	21701
882.631	21469
882.757	21203
882.883	21424
883.01	21264
883.136	21283
883.262	21093
883.388	21192
883.514	21310
883.64	21393
883.766	21176
883.892	20994
884.018	21070
884.143	21306
884.269	21348
884.395	21043
884.52	21009
884.646	20929
884.772	20845
884.897	20849
885.023	21036
885.148	21074
885.274	21017
885.399	21028
885.524	20967
885.65	20921
885.775	21009
885.9	21017
886.025	20929
886.15	20979
886.275	20880
886.4	20807
886.525	20979
886.65	20712
886.775	20765
886.9	21036
887.025	21184
887.149	21020
887.274	20781
887.399	20693
887.523	20670
887.648	20655
887.773	20670
887.897	20838
888.021	20781
888.146	20720
888.27	20819
888.395	20765
888.519	20674
888.643	20724
888.767	20823
888.891	20621
889.015	20530
889.139	20606
889.263	20571
889.387	20606
889.511	20697
889.635	20609
889.759	20480
889.883	20507
890.006	20568
890.13	20609
890.254	20374
890.377	20514
890.501	20218
890.624	20210
890.748	20324
890.871	20248
890.995	20050
891.118	20012
891.241	20145
891.364	20088
891.488	20046
891.611	20096
891.734	20100
891.857	20199
891.98	20138
892.103	20126
892.226	20054
892.349	20031
892.471	19868
892.594	19925
892.717	20069
892.839	19963
892.962	19909
893.085	19944
893.207	19982
893.33	19951
893.452	19830
893.575	20062
893.697	19826
893.819	20103
893.941	20153
894.064	20126
894.186	19986
894.308	19875
894.43	19906
894.552	20149
894.674	20122
894.796	19909
894.918	19708
895.04	19925
895.161	20035
895.283	19978
895.405	20046
895.526	20005
895.648	19993
895.769	20058
895.891	19936
896.012	20122
896.134	19989
896.255	19989
896.376	20096
896.498	19894
896.619	20111
896.74	20081
896.861	20050
896.982	20324
897.103	20431
897.224	20358
897.345	20252
897.466	20187
897.587	20248
897.708	20324
897.828	20248
897.949	20240
898.07	20081
898.19	19986
898.311	20305
898.431	20161
898.552	20069
898.672	20225
898.792	20271
898.913	20229
899.033	20096
899.153	20039
899.273	19879
899.393	20062
899.513	19947
899.633	19856
899.753	19978
899.873	19947
899.993	20054
900.113	19830
900.232	19890
900.352	19887
900.472	19712
900.591	19803
900.711	19719
900.83	19685
900.95	19906
901.069	19837
901.189	19624
901.308	19472
901.427	19324
901.546	19388
901.665	19343
901.784	19388
901.904	19168
902.023	19145
902.141	18958
902.26	18875
902.379	18913
902.498	18817
902.617	18768
902.735	18909
902.854	18848
902.973	18757
903.091	18547
903.21	18604
903.328	18563
903.446	18532
903.565	18270
903.683	18292
903.801	18114
903.919	18239
904.038	18285
904.156	18019
904.274	18197
904.392	17961
904.51	18041
904.627	18114
904.745	18117
904.863	18174
904.981	17935
905.098	17798
905.216	17760
905.334	17874
905.451	17809
905.569	17737
905.686	17722
905.803	17695
905.921	17619
906.038	17630
906.155	17539
906.272	17478
906.389	17368
906.506	17330
906.623	17368
906.74	17372
906.857	17231
906.974	17273
907.091	17303
907.208	17425
907.324	17436
907.441	17083
907.557	17060
907.674	17075
907.79	16934
907.907	17025
908.023	17079
908.139	16991
908.256	16911
908.372	16923
908.488	16919
908.604	16805
908.72	16713
908.836	16740
908.952	16687
909.068	16702
909.184	16812
909.3	16786
909.415	16809
909.531	16698
909.647	16497
909.762	16516
909.878	16379
909.993	16363
910.108	16485
910.224	16284
910.339	16424
910.454	16253
910.57	16329
910.685	16287
910.8	16428
910.915	16291
911.03	16169
911.145	16135
911.259	16002
911.374	16032
911.489	15934
911.604	15892
911.718	15671
911.833	15667
911.947	15751
912.062	15629
912.176	15694
912.291	15774
912.405	15808
912.519	15975
912.633	15968
912.748	15831
912.862	15751
912.976	15610
913.09	15412
913.204	15526
913.318	15564
913.431	15644
913.545	15599
913.659	15667
913.772	15500
913.886	15458
914	15329
914.113	15420
914.226	15458
914.34	15374
914.453	15344
914.566	15439
914.68	15325
914.793	15184
914.906	15039
915.019	15104
915.132	14998
915.245	15047
915.358	15013
915.47	15081
915.583	14979
915.696	14971
915.809	15062
915.921	15131
916.034	14925
916.146	14868
916.259	14990
916.371	14941
916.483	15001
916.595	14857
916.708	14880
916.82	14819
916.932	14800
917.044	14781
917.156	14746
917.268	14682
917.38	14651
917.491	14651
917.603	14621
917.715	14731
917.826	14739
917.938	14663
918.049	14484
918.161	14693
918.272	14682
918.384	14689
918.495	14602
918.606	14465
918.717	14419
918.828	14377
918.939	14385
919.05	14298
919.161	14408
919.272	14259
919.383	14233
919.494	14484
919.604	14636
919.715	14541
919.826	14343
919.936	14377
920.047	14446
920.157	14374
920.267	14473
920.378	14465
920.488	14381
920.598	14579
920.708	14689
920.818	14461
920.928	14480
921.038	14727
921.148	14629
921.258	14389
921.368	14187
921.477	14218
921.587	14161
921.697	13947
921.806	14142
921.916	13974
922.025	13883
922.134	13830
922.244	13803
922.353	13769
922.462	13643
922.571	13537
922.68	13426
922.789	13422
922.898	13400
923.007	13441
923.116	13540
923.224	13369
923.333	13335
923.442	13350
923.55	13240
923.659	13293
923.767	13274
923.876	13240
923.984	13221
924.092	13133
924.201	13263
924.309	13221
924.417	13209
924.525	13107
924.633	13141
924.741	14043
924.849	12764
924.956	12993
925.064	12890
925.172	12730
925.279	12844
925.387	12814
925.494	12833
925.602	12966
925.709	12897
925.816	12757
925.924	12795
926.031	12783
926.138	12726
926.245	12859
926.352	12810
926.459	12802
926.566	12844
926.673	12783
926.779	12547
926.886	12585
926.993	12513
927.099	12433
927.206	12399
927.312	12338
927.419	12399
927.525	12426
927.631	12410
927.737	12292
927.843	12258
927.95	12163
928.056	12273
928.162	12159
928.267	12285
928.373	12871
928.479	12353
928.585	12045
928.69	12144
928.796	12243
928.901	12068
929.007	11999
929.112	12068
929.218	12034
929.323	12057
929.428	11889
929.533	12178
929.638	11923
929.743	11969
929.848	11958
929.953	11775
930.058	11733
930.163	11657
930.267	11722
930.372	11752
930.477	11661
930.581	11809
930.685	11661
930.79	11421
930.894	11570
930.998	11501
931.103	11600
931.207	11307
931.311	11315
931.415	11102
931.519	10976
931.623	10961
