Data from test_V78500241_754.txt Node
Date: Fri Mar 25 15:15:06 CST 2022
User: usil
Spectrometer: V785-0024
Trigger mode: 0
Integration Time (sec): 4.000000E-1
Scans to average: 1
Nonlinearity correction enabled: false
Boxcar width: 0
Storing dark spectrum: false
XAxis mode: Wavelengths
Number of Pixels in Spectrum: 1024
>>>>>Begin Spectral Data<<<<<
801.071	27717
801.214	27568
801.356	27355
801.499	27214
801.641	27203
801.783	27176
801.926	27279
802.068	27226
802.211	27146
802.353	26990
802.496	26861
802.638	26944
802.78	26826
802.923	26796
803.065	26807
803.208	26781
803.35	26785
803.492	26982
803.635	27039
803.777	26872
803.919	26944
804.061	27359
804.204	27119
804.346	26990
804.488	26883
804.63	26986
804.773	26982
804.915	27047
805.057	27306
805.199	27119
805.341	27157
805.483	27249
805.626	27131
805.768	26956
805.91	27093
806.052	27070
806.194	27165
806.336	27401
806.478	27138
806.62	27173
806.762	27252
806.904	27450
807.046	27755
807.188	27587
807.33	27450
807.472	27557
807.614	27523
807.756	27583
807.898	27389
808.04	27382
808.182	27389
808.324	27496
808.465	27492
808.607	27800
808.749	27694
808.891	27899
809.033	27846
809.174	27903
809.316	27781
809.458	27888
809.6	27880
809.741	27918
809.883	27930
810.025	28139
810.166	28048
810.308	28078
810.45	27994
810.591	27941
810.733	27899
810.875	27736
811.016	27781
811.158	27774
811.299	27937
811.441	27930
811.582	28017
811.724	27835
811.865	27781
812.007	27827
812.148	27808
812.29	27857
812.431	28025
812.573	28059
812.714	28215
812.855	28352
812.997	28413
813.138	28588
813.279	28569
813.421	28261
813.562	28413
813.703	28120
813.845	28070
813.986	27751
814.127	27679
814.268	27526
814.41	27519
814.551	27351
814.692	27530
814.833	27549
814.974	27427
815.115	27496
815.256	27306
815.397	27317
815.539	27363
815.68	27264
815.821	27310
815.962	27207
816.103	27447
816.244	27112
816.385	27119
816.526	27116
816.666	26944
816.807	26762
816.948	26994
817.089	26944
817.23	26906
817.371	26788
817.512	26826
817.653	26868
817.793	26819
817.934	26765
818.075	26800
818.216	26796
818.356	26583
818.497	26678
818.638	26431
818.778	26743
818.919	26530
819.06	26564
819.2	26697
819.341	26697
819.481	26762
819.622	26952
819.762	27100
819.903	26990
820.043	26914
820.184	26861
820.324	26857
820.465	26967
820.605	26876
820.746	26800
820.886	26762
821.026	26883
821.167	26697
821.307	26864
821.447	26788
821.588	26655
821.728	26651
821.868	26492
822.008	26237
822.149	26180
822.289	26199
822.429	25883
822.569	25955
822.709	25860
822.849	25674
822.99	25712
823.13	25757
823.27	25609
823.41	25415
823.55	25529
823.69	25540
823.83	25575
823.97	25548
824.11	25255
824.25	25339
824.389	25343
824.529	25540
824.669	25403
824.809	25476
824.949	25346
825.089	25464
825.228	25460
825.368	25209
825.508	25278
825.648	25358
825.787	25304
825.927	25343
826.067	25156
826.206	25209
826.346	25206
826.485	25263
826.625	25183
826.765	25381
826.904	25358
827.044	25050
827.183	25179
827.323	24947
827.462	25107
827.601	24913
827.741	24924
827.88	24932
828.02	24829
828.159	24810
828.298	25027
828.437	24981
828.577	24954
828.716	25080
828.855	24905
828.994	24738
829.134	24825
829.273	24696
829.412	24681
829.551	24513
829.69	24707
829.829	24791
829.968	24707
830.107	24684
830.246	24692
830.385	24601
830.524	24502
830.663	24574
830.802	24479
830.941	24167
831.08	24213
831.219	24490
831.357	24224
831.496	24540
831.635	24327
831.774	24148
831.913	24155
832.051	24083
832.19	24057
832.329	24136
832.467	24045
832.606	23973
832.744	23988
832.883	24106
833.022	23901
833.16	23988
833.299	24053
833.437	23935
833.576	24110
833.714	24015
833.852	24102
833.991	24041
834.129	24026
834.267	24095
834.406	23958
834.544	24083
834.682	23965
834.821	24007
834.959	24087
835.097	23984
835.235	24167
835.373	23961
835.511	24038
835.65	23904
835.788	23809
835.926	23718
836.064	23741
836.202	23821
836.34	23851
836.478	23870
836.615	23828
836.753	23912
836.891	23855
837.029	23863
837.167	23790
837.305	23733
837.443	23714
837.58	23809
837.718	23824
837.856	23665
837.993	23657
838.131	23490
838.269	23512
838.406	23596
838.544	23398
838.681	23368
838.819	23231
838.956	23159
839.094	23212
839.231	23083
839.369	23288
839.506	23551
839.643	23326
839.781	23162
839.918	23052
840.055	23056
840.193	23041
840.33	22987
840.467	23098
840.604	23033
840.742	23307
840.879	22828
841.016	23083
841.153	23033
841.29	23132
841.427	22930
841.564	23022
841.701	23109
841.838	23014
841.975	22908
842.112	22984
842.249	22911
842.385	22820
842.522	23018
842.659	22869
842.796	22767
842.933	22820
843.069	22831
843.206	22767
843.343	22927
843.479	22752
843.616	22904
843.752	22611
843.889	22603
844.025	22759
844.162	22470
844.298	22649
844.435	22538
844.571	22622
844.708	22675
844.844	22812
844.98	22649
845.117	22588
845.253	22569
845.389	22417
845.525	22436
845.661	22474
845.798	22276
845.934	22417
846.07	22341
846.206	22352
846.342	22489
846.478	22375
846.614	22044
846.75	22040
846.886	22013
847.022	22109
847.158	22112
847.294	22093
847.429	22116
847.565	21937
847.701	22200
847.837	21899
847.972	21781
848.108	21895
848.244	21808
848.379	21656
848.515	21781
848.65	21690
848.786	21595
848.921	21644
849.057	21808
849.192	21800
849.328	21724
849.463	21739
849.598	21736
849.734	21545
849.869	21469
850.004	21477
850.14	21443
850.275	21351
850.41	21378
850.545	21317
850.68	21401
850.815	21416
850.95	21355
851.085	21637
851.22	21447
851.355	21542
851.49	21351
851.625	21321
851.76	21408
851.895	21351
852.03	21397
852.165	21416
852.299	21462
852.434	21511
852.569	21469
852.703	21431
852.838	21435
852.973	21485
853.107	21523
853.242	21329
853.376	21351
853.511	21123
853.645	21256
853.78	21291
853.914	21329
854.048	21207
854.183	21142
854.317	21313
854.451	21389
854.585	21363
854.72	21207
854.854	21344
854.988	21233
855.122	21195
855.256	21093
855.39	21260
855.524	21313
855.658	21378
855.792	21249
855.926	21252
856.06	21207
856.194	21287
856.327	21245
856.461	21203
856.595	21119
856.729	21306
856.862	21302
856.996	21393
857.13	21325
857.263	21389
857.397	21306
857.53	21268
857.664	21252
857.797	21340
857.931	21340
858.064	21287
858.197	21424
858.331	21332
858.464	21203
858.597	21195
858.731	21329
858.864	21116
858.997	21085
859.13	21157
859.263	21214
859.396	21348
859.529	21237
859.662	21184
859.795	21104
859.928	21222
860.061	21412
860.194	21447
860.327	21351
860.46	21336
860.592	21332
860.725	21386
860.858	21462
860.99	21222
861.123	21203
861.256	21203
861.388	21310
861.521	21903
861.653	21207
861.786	21009
861.918	21085
862.05	21116
862.183	21211
862.315	21180
862.447	21096
862.58	21135
862.712	20880
862.844	20910
862.976	21070
863.108	20986
863.24	21272
863.372	20864
863.504	20986
863.636	20948
863.768	20887
863.9	20929
864.032	20762
864.164	20925
864.296	21017
864.428	21116
864.559	21055
864.691	20948
864.823	20948
864.954	20921
865.086	21028
865.217	21001
865.349	20823
865.48	20872
865.612	20815
865.743	21032
865.875	20819
866.006	20872
866.137	20724
866.269	20925
866.4	20838
866.531	20746
866.662	20750
866.793	20701
866.924	20811
867.055	20804
867.186	20823
867.317	20811
867.448	20670
867.579	20712
867.71	20579
867.841	20750
867.972	20853
868.103	20773
868.233	20868
868.364	20815
868.495	20872
868.625	20948
868.756	21013
868.886	20963
869.017	20979
869.147	21039
869.278	21104
869.408	21066
869.539	20933
869.669	21032
869.799	21138
869.929	21119
870.06	21146
870.19	21351
870.32	21279
870.45	21317
870.58	21447
870.71	21386
870.84	21538
870.97	21466
871.1	21439
871.23	21545
871.36	21641
871.489	21504
871.619	21591
871.749	21557
871.879	21713
872.008	21671
872.138	21591
872.267	21644
872.397	21466
872.526	21439
872.656	21435
872.785	21431
872.915	21564
873.044	21720
873.173	21603
873.303	21682
873.432	21770
873.561	21656
873.69	21770
873.819	21690
873.948	21759
874.077	21663
874.206	21618
874.335	21530
874.464	21759
874.593	21911
874.722	21823
874.851	21857
874.979	21819
875.108	21915
875.237	21762
875.365	21861
875.494	21720
875.623	21911
875.751	21854
875.88	21857
876.008	21907
876.136	21960
876.265	22280
876.393	22375
876.521	22310
876.65	22356
876.778	22352
876.906	22223
877.034	22147
877.162	22265
877.29	22204
877.418	22173
877.546	22207
877.674	22226
877.802	22173
877.93	22112
878.058	22200
878.185	22101
878.313	22230
878.441	22090
878.568	21941
878.696	22158
878.824	22295
878.951	22280
879.079	22363
879.206	22497
879.333	22462
879.461	22226
879.588	22344
879.715	22287
879.842	22447
879.97	22246
880.097	22048
880.224	22032
880.351	22074
880.478	22070
880.605	21926
880.732	21895
880.859	22101
880.986	22082
881.112	21960
881.239	21937
881.366	21679
881.493	21679
881.619	21622
881.746	21641
881.872	21644
881.999	21557
882.125	21644
882.252	21682
882.378	21713
882.505	21686
882.631	21561
882.757	21462
882.883	21401
883.01	21321
883.136	21218
883.262	21104
883.388	21180
883.514	21344
883.64	21237
883.766	21245
883.892	20998
884.018	21100
884.143	21233
884.269	21302
884.395	20952
884.52	20990
884.646	20960
884.772	20876
884.897	20830
885.023	20990
885.148	21119
885.274	21077
885.399	21096
885.524	20899
885.65	20883
885.775	21058
885.9	20891
886.025	21070
886.15	21032
886.275	20914
886.4	20796
886.525	20975
886.65	20891
886.775	20864
886.9	21066
887.025	21070
887.149	20902
887.274	20750
887.399	20746
887.523	20746
887.648	20765
887.773	20575
887.897	20750
888.021	20769
888.146	20743
888.27	20777
888.395	20712
888.519	20682
888.643	20762
888.767	20705
888.891	20556
889.015	20701
889.139	20499
889.263	20488
889.387	20564
889.511	20651
889.635	20575
889.759	20571
889.883	20541
890.006	20454
890.13	20541
890.254	20450
890.377	20492
890.501	20309
890.624	20176
890.748	20309
890.871	20115
890.995	20001
891.118	20016
891.241	20176
891.364	20134
891.488	20221
891.611	20073
891.734	20058
891.857	20168
891.98	20164
892.103	20134
892.226	20191
892.349	19917
892.471	19928
892.594	20020
892.717	19974
892.839	20020
892.962	20062
893.085	20069
893.207	19959
893.33	19830
893.452	20016
893.575	20115
893.697	19849
893.819	20005
893.941	20202
894.064	20031
894.186	19982
894.308	19959
894.43	20103
894.552	20168
894.674	20100
894.796	19936
894.918	20001
895.04	19951
895.161	19989
895.283	19982
895.405	19967
895.526	20073
895.648	19970
895.769	20111
895.891	20012
896.012	20199
896.134	19944
896.255	20081
896.376	20001
896.498	20005
896.619	20111
896.74	19894
896.861	19967
896.982	20381
897.103	20362
897.224	20263
897.345	20252
897.466	20221
897.587	20313
897.708	20229
897.828	20202
897.949	20142
898.07	20107
898.19	20145
898.311	20294
898.431	20172
898.552	20320
898.672	20275
898.792	20225
898.913	20206
899.033	20119
899.153	20065
899.273	19871
899.393	20039
899.513	19982
899.633	20016
899.753	19955
899.873	19913
899.993	20100
900.113	19799
900.232	19974
900.352	19837
900.472	19852
900.591	19788
900.711	19799
900.83	19594
900.95	19902
901.069	19909
901.189	19658
901.308	19445
901.427	19365
901.546	19324
901.665	19373
901.784	19331
901.904	19221
902.023	19069
902.141	18947
902.26	18905
902.379	18977
902.498	18875
902.617	18810
902.735	18924
902.854	18844
902.973	18779
903.091	18604
903.21	18506
903.328	18597
903.446	18547
903.565	18407
903.683	18407
903.801	18182
903.919	18296
904.038	18273
904.156	18068
904.274	18148
904.392	18060
904.51	18068
904.627	18117
904.745	18068
904.863	18087
904.981	17866
905.098	17851
905.216	17855
905.334	17779
905.451	17836
905.569	17752
905.686	17722
905.803	17863
905.921	17596
906.038	17649
906.155	17551
906.272	17410
906.389	17463
906.506	17318
906.623	17334
906.74	17379
906.857	17136
906.974	17227
907.091	17349
907.208	17372
907.324	17311
907.441	17102
907.557	17064
907.674	17029
907.79	16927
907.907	17064
908.023	17075
908.139	17006
908.256	16885
908.372	16862
908.488	16927
908.604	16801
908.72	16698
908.836	16698
908.952	16733
909.068	16664
909.184	16847
909.3	16706
909.415	16843
909.531	16687
909.647	16599
909.762	16382
909.878	16432
909.993	16550
910.108	16440
910.224	16367
910.339	16516
910.454	16398
910.57	16215
910.685	16295
910.8	16466
910.915	16379
911.03	16177
911.145	16188
911.259	15991
911.374	16097
911.489	15892
911.604	15953
911.718	15781
911.833	15888
911.947	15701
912.062	15545
912.176	15835
912.291	15816
912.405	15770
912.519	15991
912.633	15964
912.748	15911
912.862	15732
912.976	15595
913.09	15595
913.204	15599
913.318	15542
913.431	15724
913.545	15644
913.659	15694
913.772	15610
913.886	15454
914	15363
914.113	15564
914.226	15526
914.34	15408
914.453	15348
914.566	15458
914.68	15321
914.793	15260
914.906	15142
915.019	15028
915.132	15020
915.245	14941
915.358	15013
915.47	15036
915.583	15043
915.696	15097
915.809	15131
915.921	15077
916.034	14933
916.146	14819
916.259	14952
916.371	15055
916.483	14937
916.595	14754
916.708	14750
916.82	14769
916.932	14785
917.044	14731
917.156	14811
917.268	14674
917.38	14697
917.491	14689
917.603	14674
917.715	14701
917.826	14716
917.938	14610
918.049	14541
918.161	14792
918.272	14682
918.384	14739
918.495	14640
918.606	14381
918.717	14457
918.828	14476
918.939	14438
919.05	14358
919.161	14434
919.272	14191
919.383	14339
919.494	14450
919.604	14602
919.715	14423
919.826	14347
919.936	14408
920.047	14518
920.157	14377
920.267	14434
920.378	14473
920.488	14366
920.598	14507
920.708	14655
920.818	14522
920.928	14541
921.038	14686
921.148	14560
921.258	14347
921.368	14259
921.477	14187
921.587	14092
921.697	14024
921.806	14069
921.916	14043
922.025	13791
922.134	13887
922.244	13814
922.353	13753
922.462	13643
922.571	13578
922.68	13491
922.789	13453
922.898	13449
923.007	13354
923.116	13449
923.224	13502
923.333	13331
923.442	13266
923.55	13240
923.659	13259
923.767	13369
923.876	13312
923.984	13350
924.092	13198
924.201	13187
924.309	13213
924.417	13213
924.525	13088
924.633	13114
924.741	13974
924.849	12954
924.956	13080
925.064	12905
925.172	12806
925.279	12875
925.387	12745
925.494	12844
925.602	12981
925.709	12863
925.816	12810
925.924	12749
926.031	12894
926.138	12810
926.245	12882
926.352	12757
926.459	12806
926.566	12913
926.673	12787
926.779	12612
926.886	12585
926.993	12544
927.099	12490
927.206	12445
927.312	12429
927.419	12467
927.525	12445
927.631	12384
927.737	12433
927.843	12285
927.95	12079
928.056	12300
928.162	12235
928.267	12270
928.373	12886
928.479	12300
928.585	12121
928.69	12239
928.796	12228
928.901	12102
929.007	11958
929.112	12076
929.218	12133
929.323	11965
929.428	11954
929.533	12102
929.638	11908
929.743	11935
929.848	12015
929.953	11878
930.058	11802
930.163	11688
930.267	11684
930.372	11771
930.477	11661
930.581	11874
930.685	11691
930.79	11577
930.894	11600
930.998	11512
931.103	11707
931.207	11280
931.311	11307
931.415	11105
931.519	10995
931.623	10965
