Data from test_V78500241_3499.txt Node
Date: Fri Mar 25 15:34:13 CST 2022
User: usil
Spectrometer: V785-0024
Trigger mode: 0
Integration Time (sec): 4.000000E-1
Scans to average: 1
Nonlinearity correction enabled: false
Boxcar width: 0
Storing dark spectrum: false
XAxis mode: Wavelengths
Number of Pixels in Spectrum: 1024
>>>>>Begin Spectral Data<<<<<
801.071	27272
801.214	27169
801.356	27009
801.499	26967
801.641	26864
801.783	26773
801.926	26849
802.068	26659
802.211	26739
802.353	26788
802.496	26518
802.638	26568
802.78	26560
802.923	26366
803.065	26415
803.208	26374
803.35	26465
803.492	26682
803.635	26682
803.777	26511
803.919	26617
804.061	27032
804.204	26663
804.346	26549
804.488	26621
804.63	26499
804.773	26434
804.915	26537
805.057	26731
805.199	26629
805.341	26674
805.483	26746
805.626	26720
805.768	26655
805.91	26777
806.052	26921
806.194	26636
806.336	26914
806.478	26716
806.62	26640
806.762	26800
806.904	27039
807.046	27195
807.188	27131
807.33	27222
807.472	27108
807.614	27043
807.756	27195
807.898	26937
808.04	26880
808.182	26982
808.324	26925
808.465	26948
808.607	27252
808.749	27279
808.891	27279
809.033	27481
809.174	27439
809.316	27340
809.458	27302
809.6	27230
809.741	27481
809.883	27416
810.025	27671
810.166	27591
810.308	27580
810.45	27504
810.591	27610
810.733	27500
810.875	27340
811.016	27203
811.158	27226
811.299	27332
811.441	27507
811.582	27450
811.724	27408
811.865	27272
812.007	27184
812.148	27256
812.29	27298
812.431	27477
812.573	27507
812.714	27652
812.855	27819
812.997	28059
813.138	28124
813.279	27926
813.421	27991
813.562	27793
813.703	27629
813.845	27416
813.986	27199
814.127	27036
814.268	27020
814.41	26994
814.551	26910
814.692	27009
814.833	26933
814.974	27093
815.115	26982
815.256	26777
815.397	26758
815.539	26769
815.68	26689
815.821	26617
815.962	26735
816.103	26716
816.244	26670
816.385	26583
816.526	26488
816.666	26294
816.807	26282
816.948	26324
817.089	26415
817.23	26252
817.371	26286
817.512	26313
817.653	26263
817.793	26176
817.934	26244
818.075	26263
818.216	26214
818.356	26256
818.497	26168
818.638	25970
818.778	25970
818.919	25982
819.06	26050
819.2	26176
819.341	26161
819.481	26206
819.622	26484
819.762	26636
819.903	26457
820.043	26419
820.184	26370
820.324	26434
820.465	26442
820.605	26301
820.746	26313
820.886	26240
821.026	26240
821.167	26305
821.307	26191
821.447	26214
821.588	26115
821.728	25982
821.868	25902
822.008	25689
822.149	25689
822.289	25670
822.429	25491
822.569	25335
822.709	25365
822.849	25255
822.99	25187
823.13	25190
823.27	25175
823.41	25171
823.55	24943
823.69	24954
823.83	25107
823.97	25031
824.11	24951
824.25	24848
824.389	24745
824.529	24913
824.669	24924
824.809	24909
824.949	24985
825.089	24985
825.228	25042
825.368	24719
825.508	24779
825.648	24760
825.787	24768
825.927	24825
826.067	24741
826.206	24905
826.346	24806
826.485	24837
826.625	24684
826.765	24787
826.904	24677
827.044	24597
827.183	24593
827.323	24483
827.462	24517
827.601	24407
827.741	24376
827.88	24532
828.02	24254
828.159	24456
828.298	24388
828.437	24570
828.577	24376
828.716	24547
828.855	24342
828.994	24186
829.134	24213
829.273	24102
829.412	24251
829.551	24015
829.69	24205
829.829	24102
829.968	24163
830.107	24140
830.246	24068
830.385	24079
830.524	24083
830.663	23946
830.802	23939
830.941	23843
831.08	23714
831.219	23851
831.357	23874
831.496	23958
831.635	23809
831.774	23573
831.913	23737
832.051	23592
832.19	23497
832.329	23558
832.467	23493
832.606	23486
832.744	23429
832.883	23277
833.022	23429
833.16	23501
833.299	23402
833.437	23505
833.576	23493
833.714	23535
833.852	23608
833.991	23455
834.129	23558
834.267	23718
834.406	23505
834.544	23649
834.682	23467
834.821	23459
834.959	23668
835.097	23444
835.235	23627
835.373	23558
835.511	23406
835.65	23379
835.788	23364
835.926	23242
836.064	23181
836.202	23288
836.34	23349
836.478	23364
836.615	23455
836.753	23440
836.891	23516
837.029	23379
837.167	23391
837.305	23296
837.443	23143
837.58	23277
837.718	23231
837.856	23155
837.993	23216
838.131	23178
838.269	23117
838.406	23204
838.544	23037
838.681	22885
838.819	22862
838.956	22664
839.094	22702
839.231	22748
839.369	22923
839.506	23113
839.643	23014
839.781	22740
839.918	22634
840.055	22733
840.193	22592
840.33	22603
840.467	22645
840.604	22683
840.742	22854
840.879	22523
841.016	22649
841.153	22519
841.29	22725
841.427	22523
841.564	22573
841.701	22588
841.838	22596
841.975	22546
842.112	22569
842.249	22440
842.385	22436
842.522	22668
842.659	22523
842.796	22363
842.933	22421
843.069	22356
843.206	22375
843.343	22409
843.479	22394
843.616	22417
843.752	22322
843.889	22242
844.025	22310
844.162	22143
844.298	22261
844.435	22276
844.571	22101
844.708	22109
844.844	22310
844.98	22223
845.117	22219
845.253	22063
845.389	21998
845.525	22078
845.661	22063
845.798	22021
845.934	21934
846.07	21835
846.206	21975
846.342	22017
846.478	22017
846.614	21660
846.75	21701
846.886	21519
847.022	21785
847.158	21591
847.294	21686
847.429	21717
847.565	21633
847.701	21819
847.837	21249
847.972	21249
848.108	21473
848.244	21545
848.379	21389
848.515	21264
848.65	21233
848.786	21222
848.921	21226
849.057	21367
849.192	21310
849.328	21233
849.463	21230
849.598	21173
849.734	21013
849.869	21036
850.004	21096
850.14	20986
850.275	21017
850.41	20880
850.545	21001
850.68	21051
850.815	21074
850.95	21005
851.085	21142
851.22	21135
851.355	20982
851.49	21028
851.625	20899
851.76	20910
851.895	20880
852.03	20807
852.165	21180
852.299	21131
852.434	21062
852.569	20979
852.703	20979
852.838	21138
852.973	21116
853.107	21142
853.242	21039
853.376	20811
853.511	20705
853.645	20899
853.78	21100
853.914	20735
854.048	20739
854.183	20750
854.317	20883
854.451	21135
854.585	20861
854.72	20845
854.854	21001
854.988	20857
855.122	20686
855.256	20769
855.39	20857
855.524	20842
855.658	20891
855.792	20883
855.926	20838
856.06	20842
856.194	20944
856.327	20796
856.461	20842
856.595	20708
856.729	20971
856.862	20868
856.996	20899
857.13	20838
857.263	20948
857.397	20914
857.53	20952
857.664	20883
857.797	20823
857.931	20925
858.064	20883
858.197	20944
858.331	20834
858.464	20880
858.597	20746
858.731	20826
858.864	20823
858.997	20693
859.13	20800
859.263	20819
859.396	20914
859.529	20743
859.662	20720
859.795	20796
859.928	20883
860.061	20990
860.194	21055
860.327	20819
860.46	20872
860.592	20845
860.725	21116
860.858	20944
860.99	20872
861.123	20826
861.256	20739
861.388	20830
861.521	21595
861.653	20697
861.786	20606
861.918	20743
862.05	20705
862.183	20579
862.315	20678
862.447	20777
862.58	20739
862.712	20571
862.844	20522
862.976	20708
863.108	20568
863.24	21100
863.372	20514
863.504	20507
863.636	20598
863.768	20465
863.9	20514
864.032	20476
864.164	20568
864.296	20598
864.428	20743
864.559	20617
864.691	20518
864.823	20526
864.954	20533
865.086	20556
865.217	20419
865.349	20248
865.48	20393
865.612	20495
865.743	20507
865.875	20499
866.006	20374
866.137	20461
866.269	20484
866.4	20412
866.531	20393
866.662	20427
866.793	20328
866.924	20408
867.055	20393
867.186	20476
867.317	20404
867.448	20271
867.579	20351
867.71	20256
867.841	20301
867.972	20343
868.103	20408
868.233	20488
868.364	20328
868.495	20434
868.625	20533
868.756	20644
868.886	20549
869.017	20613
869.147	20785
869.278	20731
869.408	20636
869.539	20598
869.669	20769
869.799	20667
869.929	20712
870.06	20705
870.19	20982
870.32	20788
870.45	20990
870.58	20956
870.71	21123
870.84	21146
870.97	21020
871.1	20937
871.23	21176
871.36	21207
871.489	21157
871.619	21161
871.749	21241
871.879	21233
872.008	21412
872.138	21340
872.267	21241
872.397	21100
872.526	21013
872.656	21150
872.785	21154
872.915	21230
873.044	21317
873.173	21272
873.303	21252
873.432	21351
873.561	21386
873.69	21313
873.819	21226
873.948	21317
874.077	21321
874.206	21169
874.335	21203
874.464	21405
874.593	21511
874.722	21393
874.851	21515
874.979	21477
875.108	21622
875.237	21496
875.365	21359
875.494	21416
875.623	21557
875.751	21519
875.88	21572
876.008	21701
876.136	21732
876.265	21865
876.393	21934
876.521	22036
876.65	21911
876.778	21831
876.906	21797
877.034	21869
877.162	21880
877.29	21774
877.418	21937
877.546	21994
877.674	21899
877.802	21979
877.93	21793
878.058	21880
878.185	21682
878.313	21720
878.441	21781
878.568	21576
878.696	21720
878.824	21888
878.951	21918
879.079	22040
879.206	22101
879.333	22029
879.461	21934
879.588	22021
879.715	22067
879.842	22105
879.97	21857
880.097	21785
880.224	21686
880.351	21682
880.478	21568
880.605	21641
880.732	21599
880.859	21819
880.986	21610
881.112	21637
881.239	21511
881.366	21431
881.493	21211
881.619	21302
881.746	21279
881.872	21283
881.999	21207
882.125	21169
882.252	21283
882.378	21195
882.505	21405
882.631	21142
882.757	20902
882.883	21009
883.01	20982
883.136	20914
883.262	20902
883.388	20899
883.514	20986
883.64	20914
883.766	20830
883.892	20655
884.018	20788
884.143	20979
884.269	20944
884.395	20648
884.52	20465
884.646	20606
884.772	20606
884.897	20530
885.023	20617
885.148	20735
885.274	20746
885.399	20727
885.524	20617
885.65	20625
885.775	20754
885.9	20469
886.025	20648
886.15	20590
886.275	20598
886.4	20560
886.525	20465
886.65	20476
886.775	20625
886.9	20777
887.025	20872
887.149	20575
887.274	20431
887.399	20415
887.523	20431
887.648	20263
887.773	20199
887.897	20313
888.021	20339
888.146	20244
888.27	20412
888.395	20408
888.519	20275
888.643	20446
888.767	20381
888.891	20126
889.015	20065
889.139	20305
889.263	20153
889.387	20244
889.511	20389
889.635	20286
889.759	20210
889.883	20069
890.006	20164
890.13	20366
890.254	20024
890.377	20088
890.501	20126
890.624	19864
890.748	19978
890.871	19868
890.995	19780
891.118	19753
891.241	19856
891.364	19677
891.488	19757
891.611	19788
891.734	19727
891.857	19734
891.98	19788
892.103	19818
892.226	19761
892.349	19635
892.471	19525
892.594	19578
892.717	19658
892.839	19757
892.962	19708
893.085	19776
893.207	19613
893.33	19537
893.452	19666
893.575	19757
893.697	19578
893.819	19845
893.941	19864
894.064	19856
894.186	19609
894.308	19628
894.43	19807
894.552	19879
894.674	19723
894.796	19502
894.918	19563
895.04	19708
895.161	19750
895.283	19719
895.405	19658
895.526	19658
895.648	19704
895.769	19635
895.891	19670
896.012	19761
896.134	19628
896.255	19712
896.376	19605
896.498	19757
896.619	19799
896.74	19609
896.861	19731
896.982	19959
897.103	20176
897.224	19963
897.345	19902
897.466	19830
897.587	19951
897.708	19986
897.828	20054
897.949	19856
898.07	19742
898.19	19822
898.311	19887
898.431	19715
898.552	19894
898.672	19864
898.792	19967
898.913	19849
899.033	19826
899.153	19693
899.273	19540
899.393	19597
899.513	19719
899.633	19715
899.753	19670
899.873	19559
899.993	19689
900.113	19487
900.232	19674
900.352	19628
900.472	19449
900.591	19381
900.711	19441
900.83	19320
900.95	19491
901.069	19327
901.189	19400
901.308	19080
901.427	19015
901.546	18973
901.665	19038
901.784	19099
901.904	18890
902.023	18764
902.141	18654
902.26	18559
902.379	18646
902.498	18559
902.617	18486
902.735	18631
902.854	18506
902.973	18513
903.091	18346
903.21	18148
903.328	18209
903.446	18178
903.565	18041
903.683	17961
903.801	17863
903.919	17980
904.038	17965
904.156	17729
904.274	17828
904.392	17680
904.51	17756
904.627	17775
904.745	17840
904.863	17832
904.981	17661
905.098	17482
905.216	17524
905.334	17524
905.451	17459
905.569	17528
905.686	17596
905.803	17524
905.921	17284
906.038	17372
906.155	17250
906.272	17162
906.389	17083
906.506	16984
906.623	17060
906.74	17067
906.857	16881
906.974	16968
907.091	17022
907.208	17174
907.324	16987
907.441	17006
907.557	16755
907.674	16755
907.79	16634
907.907	16774
908.023	16729
908.139	16767
908.256	16721
908.372	16672
908.488	16630
908.604	16561
908.72	16356
908.836	16531
908.952	16379
909.068	16489
909.184	16489
909.3	16421
909.415	16558
909.531	16474
909.647	16261
909.762	16223
909.878	16169
909.993	16139
910.108	16143
910.224	16131
910.339	16166
910.454	16017
910.57	15987
910.685	15991
910.8	16162
910.915	16147
911.03	16093
911.145	15804
911.259	15804
911.374	15762
911.489	15724
911.604	15667
911.718	15435
911.833	15591
911.947	15492
912.062	15405
912.176	15431
912.291	15481
912.405	15542
912.519	15614
912.633	15724
912.748	15519
912.862	15523
912.976	15424
913.09	15142
913.204	15321
913.318	15416
913.431	15412
913.545	15450
913.659	15462
913.772	15256
913.886	15161
914	15058
914.113	15214
914.226	15230
914.34	15245
914.453	15020
914.566	15142
914.68	14971
914.793	15051
914.906	14800
915.019	14701
915.132	14739
915.245	14758
915.358	14697
915.47	14750
915.583	14765
915.696	14823
915.809	14815
915.921	14830
916.034	14815
916.146	14636
916.259	14708
916.371	14754
916.483	14746
916.595	14663
916.708	14541
916.82	14644
916.932	14503
917.044	14522
917.156	14590
917.268	14389
917.38	14434
917.491	14434
917.603	14393
917.715	14579
917.826	14594
917.938	14389
918.049	14294
918.161	14469
918.272	14590
918.384	14503
918.495	14408
918.606	14259
918.717	14115
918.828	14259
918.939	14290
919.05	14142
919.161	14111
919.272	14050
919.383	14062
919.494	14225
919.604	14339
919.715	14130
919.826	14081
919.936	14115
920.047	14233
920.157	14138
920.267	14305
920.378	14210
920.488	14164
920.598	14309
920.708	14404
920.818	14199
920.928	14305
921.038	14484
921.148	14377
921.258	14240
921.368	14111
921.477	13982
921.587	13856
921.697	13746
921.806	13913
921.916	13791
922.025	13605
922.134	13533
922.244	13502
922.353	13628
922.462	13529
922.571	13441
922.68	13236
922.789	13175
922.898	13190
923.007	13183
923.116	13187
923.224	13282
923.333	13168
923.442	13012
923.55	12939
923.659	13141
923.767	13194
923.876	13050
923.984	13088
924.092	12996
924.201	12966
924.309	12947
924.417	13008
924.525	13015
924.633	12905
924.741	13620
924.849	12646
924.956	12878
925.064	12650
925.172	12555
925.279	12684
925.387	12688
925.494	12578
925.602	12776
925.709	12711
925.816	12555
925.924	12585
926.031	12631
926.138	12589
926.245	12627
926.352	12502
926.459	12711
926.566	12722
926.673	12483
926.779	12342
926.886	12456
926.993	12175
927.099	12232
927.206	12148
927.312	12186
927.419	12323
927.525	12262
927.631	12247
927.737	12167
927.843	12155
927.95	11882
928.056	12038
928.162	11984
928.267	12114
928.373	12642
928.479	12171
928.585	11859
928.69	11927
928.796	12068
928.901	11828
929.007	11836
929.112	11961
929.218	11912
929.323	11874
929.428	11802
929.533	11969
929.638	11775
929.743	11752
929.848	11748
929.953	11760
930.058	11699
930.163	11463
930.267	11406
930.372	11604
930.477	11467
930.581	11642
930.685	11600
930.79	11330
930.894	11322
930.998	11326
931.103	11463
931.207	11113
931.311	11086
931.415	10953
931.519	10809
931.623	10733
