Data from test_V78500241_693.txt Node
Date: Fri Mar 25 15:14:41 CST 2022
User: usil
Spectrometer: V785-0024
Trigger mode: 0
Integration Time (sec): 4.000000E-1
Scans to average: 1
Nonlinearity correction enabled: false
Boxcar width: 0
Storing dark spectrum: false
XAxis mode: Wavelengths
Number of Pixels in Spectrum: 1024
>>>>>Begin Spectral Data<<<<<
801.071	28375
801.214	28055
801.356	27717
801.499	27812
801.641	27709
801.783	27766
801.926	27682
802.068	27671
802.211	27629
802.353	27561
802.496	27462
802.638	27306
802.78	27317
802.923	27332
803.065	27203
803.208	27287
803.35	27386
803.492	27481
803.635	27389
803.777	27389
803.919	27580
804.061	27884
804.204	27549
804.346	27591
804.488	27431
804.63	27595
804.773	27424
804.915	27542
805.057	27614
805.199	27507
805.341	27759
805.483	27663
805.626	27595
805.768	27515
805.91	27511
806.052	27568
806.194	27492
806.336	27812
806.478	27705
806.62	27576
806.762	27850
806.904	27918
807.046	28303
807.188	28074
807.33	28112
807.472	28124
807.614	28116
807.756	28097
807.898	27987
808.04	27949
808.182	27899
808.324	27861
808.465	28070
808.607	28196
808.749	28386
808.891	28375
809.033	28432
809.174	28531
809.316	28344
809.458	28466
809.6	28451
809.741	28394
809.883	28398
810.025	28512
810.166	28634
810.308	28451
810.45	28603
810.591	28489
810.733	28390
810.875	28242
811.016	28253
811.158	28291
811.299	28519
811.441	28561
811.582	28462
811.724	28451
811.865	28223
812.007	28196
812.148	28360
812.29	28390
812.431	28561
812.573	28713
812.714	28816
812.855	28949
812.997	28953
813.138	29185
813.279	29086
813.421	28942
813.562	28965
813.703	28752
813.845	28512
813.986	28405
814.127	28181
814.268	28082
814.41	28181
814.551	28105
814.692	28116
814.833	28070
814.974	27972
815.115	28128
815.256	28040
815.397	27960
815.539	27884
815.68	27705
815.821	27736
815.962	28013
816.103	27732
816.244	27774
816.385	27861
816.526	27606
816.666	27599
816.807	27389
816.948	27450
817.089	27466
817.23	27447
817.371	27439
817.512	27443
817.653	27367
817.793	27222
817.934	27165
818.075	27351
818.216	27447
818.356	27359
818.497	27245
818.638	27043
818.778	27123
818.919	27066
819.06	27199
819.2	27100
819.341	27401
819.481	27344
819.622	27420
819.762	27720
819.903	27557
820.043	27618
820.184	27492
820.324	27637
820.465	27355
820.605	27420
820.746	27526
820.886	27313
821.026	27496
821.167	27431
821.307	27485
821.447	27359
821.588	27359
821.728	27173
821.868	27020
822.008	26765
822.149	26880
822.289	26735
822.429	26564
822.569	26408
822.709	26674
822.849	26309
822.99	26240
823.13	26233
823.27	26396
823.41	26286
823.55	25970
823.69	26031
823.83	26161
823.97	26096
824.11	25879
824.25	25986
824.389	25879
824.529	26172
824.669	25986
824.809	26043
824.949	25986
825.089	26142
825.228	25963
825.368	25761
825.508	25860
825.648	25849
825.787	26020
825.927	25879
826.067	25826
826.206	25753
826.346	25928
826.485	25875
826.625	25769
826.765	25856
826.904	25951
827.044	25616
827.183	25521
827.323	25556
827.462	25655
827.601	25597
827.741	25514
827.88	25658
828.02	25464
828.159	25506
828.298	25666
828.437	25632
828.577	25575
828.716	25715
828.855	25415
828.994	25251
829.134	25270
829.273	25327
829.412	25282
829.551	25194
829.69	25278
829.829	25270
829.968	25381
830.107	25320
830.246	25266
830.385	25381
830.524	25247
830.663	25190
830.802	25088
830.941	24783
831.08	24840
831.219	24970
831.357	24924
831.496	25042
831.635	24825
831.774	24776
831.913	24627
832.051	24715
832.19	24597
832.329	24654
832.467	24749
832.606	24464
832.744	24410
832.883	24505
833.022	24601
833.16	24635
833.299	24563
833.437	24635
833.576	24589
833.714	24654
833.852	24711
833.991	24696
834.129	24703
834.267	24738
834.406	24563
834.544	24623
834.682	24525
834.821	24627
834.959	24753
835.097	24585
835.235	24532
835.373	24631
835.511	24684
835.65	24525
835.788	24429
835.926	24330
836.064	24209
836.202	24289
836.34	24456
836.478	24540
836.615	24410
836.753	24464
836.891	24429
837.029	24475
837.167	24441
837.305	24388
837.443	24517
837.58	24380
837.718	24308
837.856	24194
837.993	24292
838.131	24258
838.269	24095
838.406	24129
838.544	24068
838.681	23870
838.819	23859
838.956	23851
839.094	23699
839.231	23767
839.369	23866
839.506	24049
839.643	23961
839.781	23783
839.918	23805
840.055	23661
840.193	23756
840.33	23570
840.467	23623
840.604	23691
840.742	23855
840.879	23387
841.016	23661
841.153	23585
841.29	23836
841.427	23570
841.564	23600
841.701	23615
841.838	23551
841.975	23543
842.112	23627
842.249	23467
842.385	23558
842.522	23634
842.659	23360
842.796	23417
842.933	23379
843.069	23334
843.206	23372
843.343	23444
843.479	23497
843.616	23349
843.752	23132
843.889	23288
844.025	23372
844.162	23117
844.298	23166
844.435	23170
844.571	23185
844.708	23242
844.844	23178
844.98	23417
845.117	23341
845.253	23189
845.389	23037
845.525	23102
845.661	22980
845.798	22942
845.934	23048
846.07	22786
846.206	22987
846.342	23003
846.478	22828
846.614	22763
846.75	22565
846.886	22664
847.022	22797
847.158	22759
847.294	22721
847.429	22607
847.565	22573
847.701	22908
847.837	22363
847.972	22360
848.108	22493
848.244	22314
848.379	22291
848.515	22268
848.65	22158
848.786	22310
848.921	22246
849.057	22261
849.192	22261
849.328	22284
849.463	22196
849.598	22188
849.734	22219
849.869	22169
850.004	21915
850.14	22105
850.275	22059
850.41	22013
850.545	21960
850.68	21842
850.815	21975
850.95	21953
851.085	22154
851.22	22029
851.355	21937
851.49	21960
851.625	21975
851.76	21949
851.895	21975
852.03	21926
852.165	21960
852.299	21941
852.434	22116
852.569	21960
852.703	21911
852.838	22010
852.973	22207
853.107	22188
853.242	21888
853.376	21808
853.511	21656
853.645	21800
853.78	22010
853.914	21888
854.048	21759
854.183	21895
854.317	21876
854.451	21907
854.585	21949
854.72	21785
854.854	21804
854.988	21762
855.122	21835
855.256	21751
855.39	21778
855.524	21736
855.658	21831
855.792	21899
855.926	21915
856.06	21888
856.194	21899
856.327	21656
856.461	21892
856.595	21793
856.729	21823
856.862	21865
856.996	21880
857.13	21964
857.263	21922
857.397	21884
857.53	21911
857.664	21915
857.797	21800
857.931	22090
858.064	21854
858.197	21907
858.331	21755
858.464	21705
858.597	21739
858.731	21774
858.864	21873
858.997	21895
859.13	21743
859.263	21903
859.396	21804
859.529	21781
859.662	21736
859.795	21804
859.928	21762
860.061	21937
860.194	21911
860.327	21838
860.46	21926
860.592	21873
860.725	22032
860.858	21941
860.99	21903
861.123	21759
861.256	21743
861.388	21865
861.521	22561
861.653	21778
861.786	21686
861.918	21739
862.05	21523
862.183	21755
862.315	21694
862.447	21854
862.58	21705
862.712	21530
862.844	21488
862.976	21587
863.108	21557
863.24	21903
863.372	21469
863.504	21481
863.636	21526
863.768	21660
863.9	21580
864.032	21378
864.164	21557
864.296	21496
864.428	21652
864.559	21538
864.691	21542
864.823	21500
864.954	21545
865.086	21443
865.217	21458
865.349	21298
865.48	21450
865.612	21294
865.743	21553
865.875	21519
866.006	21294
866.137	21374
866.269	21374
866.4	21351
866.531	21386
866.662	21169
866.793	21226
866.924	21332
867.055	21310
867.186	21359
867.317	21336
867.448	21218
867.579	21260
867.71	21252
867.841	21268
867.972	21313
868.103	21332
868.233	21264
868.364	21264
868.495	21397
868.625	21595
868.756	21603
868.886	21462
869.017	21587
869.147	21591
869.278	21450
869.408	21690
869.539	21587
869.669	21682
869.799	21469
869.929	21705
870.06	21698
870.19	21808
870.32	21884
870.45	21922
870.58	21953
870.71	22010
870.84	22063
870.97	21968
871.1	21873
871.23	22188
871.36	22101
871.489	21960
871.619	22192
871.749	22074
871.879	22204
872.008	22268
872.138	22109
872.267	22093
872.397	21911
872.526	21949
872.656	22055
872.785	21930
872.915	22169
873.044	22341
873.173	22177
873.303	22154
873.432	22234
873.561	22325
873.69	22131
873.819	22154
873.948	22223
874.077	22120
874.206	22109
874.335	22360
874.464	22352
874.593	22459
874.722	22500
874.851	22398
874.979	22554
875.108	22478
875.237	22405
875.365	22295
875.494	22375
875.623	22462
875.751	22272
875.88	22280
876.008	22451
876.136	22679
876.265	22881
876.393	22904
876.521	22805
876.65	22835
876.778	22767
876.906	22752
877.034	22596
877.162	22778
877.29	22774
877.418	22820
877.546	22763
877.674	22790
877.802	22679
877.93	22645
878.058	22687
878.185	22504
878.313	22615
878.441	22710
878.568	22588
878.696	22538
878.824	22694
878.951	22828
879.079	22850
879.206	22965
879.333	22942
879.461	22805
879.588	22881
879.715	22946
879.842	23010
879.97	22698
880.097	22664
880.224	22561
880.351	22611
880.478	22630
880.605	22466
880.732	22668
880.859	22668
880.986	22508
881.112	22580
881.239	22451
881.366	22287
881.493	22219
881.619	22169
881.746	22287
881.872	22120
881.999	22188
882.125	22044
882.252	22135
882.378	22185
882.505	22169
882.631	21998
882.757	21888
882.883	22013
883.01	21842
883.136	21884
883.262	21648
883.388	21766
883.514	21827
883.64	21899
883.766	21819
883.892	21618
884.018	21682
884.143	21819
884.269	21785
884.395	21599
884.52	21439
884.646	21488
884.772	21389
884.897	21222
885.023	21580
885.148	21603
885.274	21549
885.399	21625
885.524	21488
885.65	21443
885.775	21435
885.9	21389
886.025	21641
886.15	21515
886.275	21435
886.4	21340
886.525	21317
886.65	21367
886.775	21351
886.9	21542
887.025	21701
887.149	21344
887.274	21226
887.399	21275
887.523	21131
887.648	21138
887.773	21154
887.897	21241
888.021	21317
888.146	21184
888.27	21256
888.395	21367
888.519	21275
888.643	21272
888.767	21272
888.891	21138
889.015	20986
889.139	21116
889.263	21032
889.387	21135
889.511	21214
889.635	21207
889.759	20975
889.883	20979
890.006	21009
890.13	21093
890.254	20979
890.377	20891
890.501	20834
890.624	20796
890.748	20834
890.871	20777
890.995	20674
891.118	20568
891.241	20575
891.364	20537
891.488	20697
891.611	20617
891.734	20552
891.857	20697
891.98	20575
892.103	20514
892.226	20613
892.349	20488
892.471	20305
892.594	20457
892.717	20522
892.839	20427
892.962	20594
893.085	20594
893.207	20594
893.33	20351
893.452	20427
893.575	20457
893.697	20431
893.819	20648
893.941	20716
894.064	20659
894.186	20476
894.308	20454
894.43	20590
894.552	20568
894.674	20587
894.796	20351
894.918	20549
895.04	20442
895.161	20556
895.283	20568
895.405	20374
895.526	20473
895.648	20454
895.769	20579
895.891	20621
896.012	20571
896.134	20522
896.255	20457
896.376	20446
896.498	20412
896.619	20552
896.74	20514
896.861	20484
896.982	20743
897.103	20948
897.224	20781
897.345	20735
897.466	20731
897.587	20788
897.708	20739
897.828	20796
897.949	20579
898.07	20549
898.19	20579
898.311	20746
898.431	20511
898.552	20758
898.672	20670
898.792	20678
898.913	20708
899.033	20625
899.153	20434
899.273	20419
899.393	20415
899.513	20511
899.633	20267
899.753	20389
899.873	20473
899.993	20495
900.113	20309
900.232	20396
900.352	20305
900.472	20218
900.591	20122
900.711	20294
900.83	20176
900.95	20122
901.069	20267
901.189	20005
901.308	19902
901.427	19746
901.546	19784
901.665	19830
901.784	19742
901.904	19708
902.023	19563
902.141	19339
902.26	19354
902.379	19358
902.498	19171
902.617	19187
902.735	19415
902.854	19293
902.973	19122
903.091	19008
903.21	19015
903.328	18871
903.446	19038
903.565	18837
903.683	18844
903.801	18692
903.919	18833
904.038	18661
904.156	18544
904.274	18559
904.392	18460
904.51	18498
904.627	18422
904.745	18536
904.863	18654
904.981	18338
905.098	18167
905.216	18243
905.334	18228
905.451	18239
905.569	18167
905.686	18178
905.803	18159
905.921	17950
906.038	18098
906.155	18068
906.272	17756
906.389	17912
906.506	17676
906.623	17695
906.74	17786
906.857	17604
906.974	17573
907.091	17836
907.208	17843
907.324	17634
907.441	17505
907.557	17452
907.674	17455
907.79	17406
907.907	17436
908.023	17410
908.139	17433
908.256	17429
908.372	17307
908.488	17345
908.604	17162
908.72	17029
908.836	17185
908.952	17147
909.068	17105
909.184	17345
909.3	17143
909.415	17140
909.531	17185
909.647	16919
909.762	16915
909.878	16877
909.993	16915
910.108	16683
910.224	16782
910.339	16778
910.454	16759
910.57	16809
910.685	16565
910.8	16892
910.915	16843
911.03	16641
911.145	16436
911.259	16432
911.374	16424
911.489	16371
911.604	16219
911.718	16169
911.833	16192
911.947	16040
912.062	15991
912.176	16150
912.291	16173
912.405	16192
912.519	16386
912.633	16360
912.748	16284
912.862	16234
912.976	15949
913.09	15899
913.204	15915
913.318	15964
913.431	16059
913.545	16025
913.659	16074
913.772	15934
913.886	15838
914	15762
914.113	15903
914.226	15816
914.34	15751
914.453	15701
914.566	15789
914.68	15728
914.793	15572
914.906	15428
915.019	15389
915.132	15302
915.245	15393
915.358	15306
915.47	15428
915.583	15534
915.696	15370
915.809	15485
915.921	15530
916.034	15401
916.146	15233
916.259	15359
916.371	15313
916.483	15298
916.595	15256
916.708	15211
916.82	15154
916.932	15192
917.044	15116
917.156	15188
917.268	15020
917.38	15070
917.491	14982
917.603	15085
917.715	15070
917.826	15077
917.938	14975
918.049	14857
918.161	15043
918.272	15123
918.384	15138
918.495	14948
918.606	14708
918.717	14686
918.828	14743
918.939	14834
919.05	14727
919.161	14758
919.272	14625
919.383	14651
919.494	14785
919.604	14925
919.715	14765
919.826	14617
919.936	14727
920.047	14910
920.157	14735
920.267	14982
920.378	14765
920.488	14663
920.598	14849
920.708	15055
920.818	14807
920.928	14914
921.038	15001
921.148	14914
921.258	14743
921.368	14625
921.477	14469
921.587	14461
921.697	14275
921.806	14389
921.916	14301
922.025	14145
922.134	14210
922.244	14062
922.353	14176
922.462	13944
922.571	13852
922.68	13731
922.789	13753
922.898	13746
923.007	13685
923.116	13803
923.224	13750
923.333	13628
923.442	13620
923.55	13594
923.659	13521
923.767	13712
923.876	13533
923.984	13605
924.092	13483
924.201	13552
924.309	13449
924.417	13472
924.525	13396
924.633	13422
924.741	14172
924.849	13217
924.956	13324
925.064	13190
925.172	13168
925.279	13129
925.387	13190
925.494	13129
925.602	13297
925.709	13209
925.816	13019
925.924	13027
926.031	13152
926.138	13061
926.245	13187
926.352	13031
926.459	13099
926.566	13065
926.673	13095
926.779	12848
926.886	12886
926.993	12760
927.099	12677
927.206	12700
927.312	12738
927.419	12795
927.525	12684
927.631	12840
927.737	12681
927.843	12521
927.95	12506
928.056	12517
928.162	12509
928.267	12608
928.373	13152
928.479	12642
928.585	12395
928.69	12361
928.796	12536
928.901	12384
929.007	12254
929.112	12410
929.218	12350
929.323	12311
929.428	12167
929.533	12395
929.638	12190
929.743	12247
929.848	12258
929.953	12175
930.058	12076
930.163	11889
930.267	11992
930.372	12091
930.477	11954
930.581	12133
930.685	12038
930.79	11832
930.894	11824
930.998	11809
931.103	11923
931.207	11535
931.311	11490
931.415	11372
931.519	11223
931.623	11124
