Data from test_V78500241_143.txt Node
Date: Fri Mar 25 15:10:51 CST 2022
User: usil
Spectrometer: V785-0024
Trigger mode: 0
Integration Time (sec): 4.000000E-1
Scans to average: 1
Nonlinearity correction enabled: false
Boxcar width: 0
Storing dark spectrum: false
XAxis mode: Wavelengths
Number of Pixels in Spectrum: 1024
>>>>>Begin Spectral Data<<<<<
801.071	28280
801.214	28112
801.356	27827
801.499	27865
801.641	27739
801.783	27732
801.926	27686
802.068	27690
802.211	27473
802.353	27557
802.496	27427
802.638	27283
802.78	27359
802.923	27138
803.065	27051
803.208	27157
803.35	27203
803.492	27367
803.635	27332
803.777	27173
803.919	27382
804.061	27675
804.204	27435
804.346	27306
804.488	27264
804.63	27393
804.773	27264
804.915	27226
805.057	27507
805.199	27264
805.341	27393
805.483	27504
805.626	27447
805.768	27313
805.91	27443
806.052	27344
806.194	27351
806.336	27447
806.478	27393
806.62	27291
806.762	27485
806.904	27667
807.046	27800
807.188	27747
807.33	27789
807.472	27682
807.614	27553
807.756	27743
807.898	27682
808.04	27420
808.182	27675
808.324	27682
808.465	27576
808.607	27774
808.749	27797
808.891	28006
809.033	28017
809.174	27937
809.316	27808
809.458	28036
809.6	27907
809.741	27937
809.883	28032
810.025	28074
810.166	28128
810.308	28147
810.45	28086
810.591	28002
810.733	27994
810.875	27846
811.016	27865
811.158	27671
811.299	27968
811.441	27998
811.582	28013
811.724	27793
811.865	27808
812.007	27918
812.148	27827
812.29	27937
812.431	28188
812.573	28116
812.714	28177
812.855	28371
812.997	28432
813.138	28687
813.279	28588
813.421	28413
813.562	28348
813.703	28143
813.845	27998
813.986	27838
814.127	27511
814.268	27447
814.41	27469
814.551	27534
814.692	27462
814.833	27561
814.974	27466
815.115	27431
815.256	27218
815.397	27275
815.539	27363
815.68	27188
815.821	27287
815.962	27332
816.103	27161
816.244	27051
816.385	26906
816.526	26975
816.666	26853
816.807	26838
816.948	26697
817.089	26720
817.23	26644
817.371	26560
817.512	26629
817.653	26621
817.793	26571
817.934	26629
818.075	26571
818.216	26659
818.356	26590
818.497	26488
818.638	26301
818.778	26339
818.919	26351
819.06	26301
819.2	26549
819.341	26556
819.481	26480
819.622	26743
819.762	26967
819.903	26823
820.043	26693
820.184	26511
820.324	26689
820.465	26629
820.605	26564
820.746	26556
820.886	26518
821.026	26549
821.167	26518
821.307	26560
821.447	26438
821.588	26370
821.728	26286
821.868	26240
822.008	25993
822.149	26111
822.289	25841
822.429	25753
822.569	25685
822.709	25632
822.849	25457
822.99	25362
823.13	25373
823.27	25396
823.41	25168
823.55	25129
823.69	25198
823.83	25293
823.97	25198
824.11	25141
824.25	25080
824.389	25053
824.529	25103
824.669	25148
824.809	25145
824.949	25103
825.089	25114
825.228	24966
825.368	24886
825.508	24814
825.648	24886
825.787	24825
825.927	24852
826.067	24954
826.206	24749
826.346	24882
826.485	24875
826.625	24894
826.765	24867
826.904	24821
827.044	24631
827.183	24684
827.323	24372
827.462	24620
827.601	24536
827.741	24570
827.88	24559
828.02	24292
828.159	24479
828.298	24528
828.437	24681
828.577	24422
828.716	24582
828.855	24422
828.994	24327
829.134	24159
829.273	24315
829.412	24186
829.551	24117
829.69	24171
829.829	24319
829.968	24194
830.107	24270
830.246	24292
830.385	24194
830.524	23958
830.663	23935
830.802	23916
830.941	23726
831.08	23760
831.219	23836
831.357	23809
831.496	24053
831.635	23813
831.774	23600
831.913	23615
832.051	23570
832.19	23573
832.329	23653
832.467	23486
832.606	23391
832.744	23402
832.883	23501
833.022	23452
833.16	23337
833.299	23478
833.437	23349
833.576	23490
833.714	23334
833.852	23417
833.991	23551
834.129	23520
834.267	23547
834.406	23448
834.544	23455
834.682	23368
834.821	23345
834.959	23551
835.097	23429
835.235	23444
835.373	23376
835.511	23372
835.65	23242
835.788	23337
835.926	23128
836.064	23048
836.202	23037
836.34	23288
836.478	23391
836.615	23212
836.753	23303
836.891	23246
837.029	23334
837.167	23250
837.305	23227
837.443	23117
837.58	22999
837.718	23189
837.856	23033
837.993	23113
838.131	23079
838.269	22942
838.406	22972
838.544	22828
838.681	22641
838.819	22645
838.956	22462
839.094	22531
839.231	22421
839.369	22603
839.506	22923
839.643	22820
839.781	22447
839.918	22348
840.055	22584
840.193	22432
840.33	22421
840.467	22424
840.604	22512
840.742	22691
840.879	22318
841.016	22295
841.153	22367
841.29	22398
841.427	22280
841.564	22577
841.701	22337
841.838	22371
841.975	22207
842.112	22451
842.249	22120
842.385	22063
842.522	22200
842.659	22207
842.796	22173
842.933	22204
843.069	22173
843.206	22070
843.343	22166
843.479	22097
843.616	21922
843.752	21934
843.889	21793
844.025	21972
844.162	21762
844.298	22150
844.435	21915
844.571	21949
844.708	21892
844.844	21987
844.98	21987
845.117	22017
845.253	21846
845.389	21785
845.525	21804
845.661	21823
845.798	21622
845.934	21637
846.07	21564
846.206	21561
846.342	21759
846.478	21637
846.614	21245
846.75	21408
846.886	21386
847.022	21515
847.158	21351
847.294	21173
847.429	21363
847.565	21306
847.701	21526
847.837	21104
847.972	21085
848.108	21062
848.244	21093
848.379	20883
848.515	20834
848.65	20880
848.786	20868
848.921	20975
849.057	20979
849.192	21036
849.328	20941
849.463	20902
849.598	20811
849.734	20880
849.869	20762
850.004	20678
850.14	20655
850.275	20746
850.41	20488
850.545	20511
850.68	20552
850.815	20716
850.95	20648
851.085	20792
851.22	20849
851.355	20617
851.49	20609
851.625	20644
851.76	20598
851.895	20575
852.03	20522
852.165	20537
852.299	20522
852.434	20667
852.569	20617
852.703	20602
852.838	20758
852.973	20724
853.107	20705
853.242	20503
853.376	20511
853.511	20332
853.645	20412
853.78	20575
853.914	20370
854.048	20431
854.183	20423
854.317	20484
854.451	20625
854.585	20454
854.72	20377
854.854	20514
854.988	20419
855.122	20473
855.256	20278
855.39	20503
855.524	20442
855.658	20507
855.792	20492
855.926	20419
856.06	20492
856.194	20415
856.327	20545
856.461	20362
856.595	20480
856.729	20400
856.862	20518
856.996	20351
857.13	20495
857.263	20579
857.397	20499
857.53	20313
857.664	20473
857.797	20434
857.931	20461
858.064	20503
858.197	20598
858.331	20404
858.464	20298
858.597	20328
858.731	20237
858.864	20324
858.997	20324
859.13	20480
859.263	20480
859.396	20457
859.529	20366
859.662	20320
859.795	20324
859.928	20320
860.061	20583
860.194	20511
860.327	20431
860.46	20396
860.592	20476
860.725	20609
860.858	20503
860.99	20461
861.123	20149
861.256	20275
861.388	20290
861.521	21154
861.653	20153
861.786	20145
861.918	20248
862.05	20339
862.183	20377
862.315	20396
862.447	20408
862.58	20366
862.712	20149
862.844	20172
862.976	20191
863.108	20206
863.24	20362
863.372	20024
863.504	20115
863.636	20054
863.768	20119
863.9	20073
864.032	20065
864.164	19989
864.296	19986
864.428	20157
864.559	20172
864.691	20252
864.823	20107
864.954	20005
865.086	20027
865.217	19959
865.349	19860
865.48	19936
865.612	20012
865.743	20237
865.875	20005
866.006	19951
866.137	19951
866.269	19974
866.4	19997
866.531	20005
866.662	19803
866.793	20008
866.924	19875
867.055	19917
867.186	19856
867.317	19822
867.448	19902
867.579	19826
867.71	19822
867.841	19845
867.972	19982
868.103	19868
868.233	19818
868.364	19875
868.495	19955
868.625	20069
868.756	20210
868.886	20039
869.017	20092
869.147	20157
869.278	20309
869.408	20225
869.539	20172
869.669	20138
869.799	20164
869.929	20317
870.06	20244
870.19	20488
870.32	20476
870.45	20583
870.58	20537
870.71	20590
870.84	20609
870.97	20499
871.1	20423
871.23	20689
871.36	20762
871.489	20609
871.619	20739
871.749	20712
871.879	20765
872.008	20826
872.138	20785
872.267	20720
872.397	20552
872.526	20590
872.656	20636
872.785	20492
872.915	20746
873.044	20842
873.173	20883
873.303	20902
873.432	20849
873.561	20807
873.69	20727
873.819	20739
873.948	20868
874.077	20743
874.206	20708
874.335	20686
874.464	20845
874.593	20990
874.722	21017
874.851	21066
874.979	21020
875.108	21058
875.237	20906
875.365	20982
875.494	21096
875.623	20952
875.751	21028
875.88	20902
876.008	21100
876.136	21321
876.265	21443
876.393	21515
876.521	21511
876.65	21564
876.778	21374
876.906	21370
877.034	21321
877.162	21408
877.29	21454
877.418	21336
877.546	21458
877.674	21325
877.802	21321
877.93	21363
878.058	21348
878.185	21310
878.313	21287
878.441	21416
878.568	21233
878.696	21321
878.824	21405
878.951	21564
879.079	21542
879.206	21743
879.333	21557
879.461	21416
879.588	21500
879.715	21648
879.842	21618
879.97	21424
880.097	21138
880.224	21264
880.351	21199
880.478	21211
880.605	21154
880.732	21192
880.859	21355
880.986	21226
881.112	21199
881.239	21093
881.366	20956
881.493	20906
881.619	20739
881.746	20781
881.872	20872
881.999	20651
882.125	20689
882.252	20796
882.378	20811
882.505	20876
882.631	20598
882.757	20511
882.883	20609
883.01	20530
883.136	20473
883.262	20522
883.388	20317
883.514	20613
883.64	20571
883.766	20518
883.892	20202
884.018	20332
884.143	20530
884.269	20465
884.395	20244
884.52	20103
884.646	20225
884.772	20046
884.897	20092
885.023	20221
885.148	20202
885.274	20332
885.399	20240
885.524	20176
885.65	20256
885.775	20142
885.9	20187
886.025	20271
886.15	20214
886.275	20069
886.4	19978
886.525	20062
886.65	20069
886.775	20062
886.9	20278
887.025	20237
887.149	20161
887.274	19951
887.399	19967
887.523	19906
887.648	19955
887.773	19864
887.897	20107
888.021	19849
888.146	19871
888.27	19940
888.395	19902
888.519	19864
888.643	19913
888.767	19978
888.891	19761
889.015	19795
889.139	19742
889.263	19658
889.387	19871
889.511	20008
889.635	19826
889.759	19616
889.883	19643
890.006	19681
890.13	19791
890.254	19628
890.377	19540
890.501	19521
890.624	19422
890.748	19582
890.871	19396
890.995	19358
891.118	19308
891.241	19369
891.364	19270
891.488	19449
891.611	19362
891.734	19247
891.857	19358
891.98	19312
892.103	19377
892.226	19282
892.349	19213
892.471	19084
892.594	19194
892.717	19137
892.839	19160
892.962	19285
893.085	19175
893.207	19293
893.33	19057
893.452	19137
893.575	19206
893.697	19236
893.819	19289
893.941	19544
894.064	19270
894.186	19187
894.308	19240
894.43	19209
894.552	19396
894.674	19312
894.796	19114
894.918	19152
895.04	19202
895.161	19183
895.283	19285
895.405	19183
895.526	19289
895.648	19236
895.769	19236
895.891	19324
896.012	19316
896.134	19293
896.255	19209
896.376	19194
896.498	19403
896.619	19346
896.74	19213
896.861	19282
896.982	19609
897.103	19788
897.224	19571
897.345	19567
897.466	19457
897.587	19563
897.708	19548
897.828	19472
897.949	19388
898.07	19411
898.19	19457
898.311	19476
898.431	19327
898.552	19407
898.672	19609
898.792	19472
898.913	19377
899.033	19278
899.153	19240
899.273	19198
899.393	19114
899.513	19225
899.633	19270
899.753	19183
899.873	19042
899.993	19221
900.113	19213
900.232	19266
900.352	19095
900.472	19034
900.591	19148
900.711	19019
900.83	18913
900.95	19164
901.069	19145
901.189	18871
901.308	18677
901.427	18589
901.546	18578
901.665	18574
901.784	18642
901.904	18456
902.023	18513
902.141	18148
902.26	18163
902.379	18194
902.498	18095
902.617	18125
902.735	18152
902.854	18049
902.973	18007
903.091	17824
903.21	17874
903.328	17748
903.446	17665
903.565	17592
903.683	17642
903.801	17463
903.919	17680
904.038	17528
904.156	17406
904.274	17410
904.392	17383
904.51	17395
904.627	17337
904.745	17345
904.863	17387
904.981	17117
905.098	16942
905.216	17052
905.334	17025
905.451	17056
905.569	17029
905.686	17086
905.803	17037
905.921	16820
906.038	16965
906.155	16812
906.272	16733
906.389	16721
906.506	16599
906.623	16592
906.74	16596
906.857	16459
906.974	16398
907.091	16607
907.208	16660
907.324	16474
907.441	16417
907.557	16337
907.674	16306
907.79	16303
907.907	16219
908.023	16211
908.139	16230
908.256	16128
908.372	16181
908.488	16105
908.604	15991
908.72	15911
908.836	16032
908.952	15991
909.068	16013
909.184	16109
909.3	15930
909.415	15884
909.531	15930
909.647	15690
909.762	15584
909.878	15671
909.993	15743
910.108	15656
910.224	15671
910.339	15610
910.454	15526
910.57	15519
910.685	15397
910.8	15709
910.915	15667
911.03	15526
911.145	15306
911.259	15275
911.374	15233
911.489	15066
911.604	15032
911.718	15055
911.833	14975
911.947	14956
912.062	14826
912.176	14975
912.291	14941
912.405	14921
912.519	15089
912.633	15188
912.748	15055
912.862	14937
912.976	14800
913.09	14769
913.204	14830
913.318	14944
913.431	14986
913.545	14929
913.659	14845
913.772	14842
913.886	14541
914	14667
914.113	14720
914.226	14792
914.34	14708
914.453	14560
914.566	14705
914.68	14522
914.793	14495
914.906	14286
915.019	14256
915.132	14164
915.245	14313
915.358	14298
915.47	14309
915.583	14244
915.696	14336
915.809	14412
915.921	14484
916.034	14301
916.146	14206
916.259	14168
916.371	14164
916.483	14221
916.595	14126
916.708	14084
916.82	14115
916.932	14065
917.044	14111
917.156	14069
917.268	13967
917.38	13959
917.491	13951
917.603	14005
917.715	13936
917.826	13959
917.938	13860
918.049	13932
918.161	13852
918.272	14077
918.384	14046
918.495	13932
918.606	13761
918.717	13685
918.828	13723
918.939	13791
919.05	13677
919.161	13727
919.272	13552
919.383	13605
919.494	13795
919.604	13951
919.715	13769
919.826	13616
919.936	13613
920.047	13746
920.157	13670
920.267	13841
920.378	13791
920.488	13586
920.598	13799
920.708	14062
920.818	13788
920.928	13700
921.038	13974
921.148	13906
921.258	13693
921.368	13457
921.477	13422
921.587	13430
921.697	13324
921.806	13476
921.916	13301
922.025	13152
922.134	13099
922.244	13034
922.353	13145
922.462	12973
922.571	12894
922.68	12795
922.789	12665
922.898	12722
923.007	12760
923.116	12707
923.224	12715
923.333	12654
923.442	12559
923.55	12566
923.659	12574
923.767	12681
923.876	12467
923.984	12544
924.092	12414
924.201	12475
924.309	12513
924.417	12441
924.525	12437
924.633	12429
924.741	13255
924.849	12251
924.956	12342
925.064	12266
925.172	12247
925.279	12133
925.387	12205
925.494	12224
925.602	12281
925.709	12190
925.816	12129
925.924	12171
926.031	12251
926.138	12140
926.245	12209
926.352	12060
926.459	12197
926.566	12190
926.673	12019
926.779	11931
926.886	11992
926.993	11805
927.099	11790
927.206	11691
927.312	11741
927.419	11767
927.525	11779
927.631	11775
927.737	11657
927.843	11581
927.95	11554
928.056	11657
928.162	11691
928.267	11649
928.373	12201
928.479	11676
928.585	11452
928.69	11539
928.796	11615
928.901	11471
929.007	11330
929.112	11455
929.218	11410
929.323	11353
929.428	11277
929.533	11471
929.638	11299
929.743	11166
929.848	11303
929.953	11288
930.058	11159
930.163	11075
930.267	11090
930.372	11178
930.477	10984
930.581	11235
930.685	11105
930.79	10900
930.894	10942
930.998	10938
931.103	11018
931.207	10641
931.311	10580
931.415	10558
931.519	10337
931.623	10268
