Data from test_V78500241_1928.txt Node
Date: Fri Mar 25 15:23:16 CST 2022
User: usil
Spectrometer: V785-0024
Trigger mode: 0
Integration Time (sec): 4.000000E-1
Scans to average: 1
Nonlinearity correction enabled: false
Boxcar width: 0
Storing dark spectrum: false
XAxis mode: Wavelengths
Number of Pixels in Spectrum: 1024
>>>>>Begin Spectral Data<<<<<
801.071	27869
801.214	27778
801.356	27629
801.499	27534
801.641	27252
801.783	27351
801.926	27389
802.068	27268
802.211	27332
802.353	27233
802.496	27135
802.638	27066
802.78	26948
802.923	26819
803.065	26880
803.208	26914
803.35	27089
803.492	27074
803.635	27112
803.777	27127
803.919	27249
804.061	27507
804.204	27222
804.346	27112
804.488	27081
804.63	27150
804.773	27055
804.915	27218
805.057	27264
805.199	27104
805.341	27336
805.483	27340
805.626	27283
805.768	27218
805.91	27268
806.052	27336
806.194	27283
806.336	27450
806.478	27272
806.62	27252
806.762	27481
806.904	27663
807.046	27816
807.188	27781
807.33	27728
807.472	27732
807.614	27538
807.756	27709
807.898	27622
808.04	27618
808.182	27542
808.324	27534
808.465	27614
808.607	27671
808.749	27926
808.891	27953
809.033	28166
809.174	27884
809.316	27934
809.458	28040
809.6	27835
809.741	27884
809.883	28070
810.025	28230
810.166	28230
810.308	28177
810.45	28116
810.591	28177
810.733	27922
810.875	27968
811.016	27968
811.158	27732
811.299	28040
811.441	27983
811.582	28010
811.724	28063
811.865	27991
812.007	27846
812.148	27899
812.29	27983
812.431	28002
812.573	28200
812.714	28329
812.855	28344
812.997	28611
813.138	28679
813.279	28500
813.421	28535
813.562	28348
813.703	28234
813.845	28139
813.986	27827
814.127	27842
814.268	27736
814.41	27690
814.551	27576
814.692	27698
814.833	27580
814.974	27538
815.115	27603
815.256	27363
815.397	27568
815.539	27488
815.68	27370
815.821	27291
815.962	27386
816.103	27408
816.244	27386
816.385	27321
816.526	27233
816.666	27039
816.807	26826
816.948	26971
817.089	27009
817.23	26853
817.371	26826
817.512	26910
817.653	26940
817.793	26876
817.934	26880
818.075	27028
818.216	26876
818.356	26838
818.497	26895
818.638	26579
818.778	26708
818.919	26689
819.06	26712
819.2	26819
819.341	26944
819.481	26940
819.622	26960
819.762	27188
819.903	27161
820.043	27176
820.184	27036
820.324	26967
820.465	27013
820.605	27135
820.746	27055
820.886	26842
821.026	26925
821.167	26834
821.307	27081
821.447	26967
821.588	26800
821.728	26617
821.868	26678
822.008	26278
822.149	26453
822.289	26377
822.429	26103
822.569	26046
822.709	26130
822.849	25959
822.99	25894
823.13	25921
823.27	25803
823.41	25715
823.55	25635
823.69	25791
823.83	25814
823.97	25624
824.11	25472
824.25	25616
824.389	25479
824.529	25537
824.669	25514
824.809	25674
824.949	25563
825.089	25556
825.228	25601
825.368	25426
825.508	25354
825.648	25479
825.787	25392
825.927	25445
826.067	25525
826.206	25419
826.346	25510
826.485	25369
826.625	25441
826.765	25502
826.904	25483
827.044	25194
827.183	25194
827.323	25213
827.462	25244
827.601	25110
827.741	25213
827.88	25255
828.02	24977
828.159	25129
828.298	25209
828.437	25171
828.577	25053
828.716	25122
828.855	25072
828.994	24992
829.134	24837
829.273	25038
829.412	24901
829.551	24730
829.69	24814
829.829	24806
829.968	24928
830.107	24996
830.246	24859
830.385	24753
830.524	24700
830.663	24642
830.802	24646
830.941	24456
831.08	24464
831.219	24612
831.357	24498
831.496	24620
831.635	24452
831.774	24270
831.913	24460
832.051	24304
832.19	24220
832.329	24391
832.467	24045
832.606	24178
832.744	24148
832.883	24136
833.022	24026
833.16	24106
833.299	24186
833.437	24110
833.576	24308
833.714	24224
833.852	24281
833.991	24251
834.129	24361
834.267	24197
834.406	24228
834.544	24220
834.682	24155
834.821	24098
834.959	24353
835.097	24224
835.235	24194
835.373	24266
835.511	24095
835.65	23992
835.788	24239
835.926	24034
836.064	23859
836.202	23866
836.34	24068
836.478	24106
836.615	24076
836.753	24076
836.891	24178
837.029	24133
837.167	24041
837.305	23946
837.443	23904
837.58	23942
837.718	23931
837.856	24068
837.993	23745
838.131	23893
838.269	23767
838.406	23832
838.544	23585
838.681	23585
838.819	23364
838.956	23353
839.094	23318
839.231	23341
839.369	23543
839.506	23748
839.643	23592
839.781	23387
839.918	23155
840.055	23299
840.193	23391
840.33	23216
840.467	23288
840.604	23189
840.742	23589
840.879	23235
841.016	23109
841.153	23242
841.29	23337
841.427	23284
841.564	23311
841.701	23200
841.838	23261
841.975	23204
842.112	23197
842.249	23056
842.385	22961
842.522	23269
842.659	23006
842.796	22991
842.933	23140
843.069	22965
843.206	23014
843.343	23128
843.479	23025
843.616	23041
843.752	22915
843.889	22812
844.025	22889
844.162	22748
844.298	22786
844.435	22850
844.571	22767
844.708	22831
844.844	22976
844.98	22957
845.117	22820
845.253	22752
845.389	22656
845.525	22744
845.661	22523
845.798	22565
845.934	22531
846.07	22451
846.206	22626
846.342	22542
846.478	22428
846.614	22443
846.75	22219
846.886	22341
847.022	22306
847.158	22188
847.294	22303
847.429	22360
847.565	22067
847.701	22622
847.837	21949
847.972	21987
848.108	22105
848.244	22063
848.379	21884
848.515	21888
848.65	21838
848.786	21857
848.921	21941
849.057	22040
849.192	21937
849.328	21808
849.463	21724
849.598	21793
849.734	21743
849.869	21762
850.004	21485
850.14	21606
850.275	21507
850.41	21473
850.545	21644
850.68	21561
850.815	21667
850.95	21644
851.085	21720
851.22	21778
851.355	21743
851.49	21618
851.625	21553
851.76	21500
851.895	21641
852.03	21549
852.165	21599
852.299	21610
852.434	21633
852.569	21572
852.703	21686
852.838	21728
852.973	21823
853.107	21804
853.242	21625
853.376	21576
853.511	21450
853.645	21355
853.78	21572
853.914	21538
854.048	21466
854.183	21370
854.317	21466
854.451	21679
854.585	21401
854.72	21447
854.854	21496
854.988	21405
855.122	21378
855.256	21230
855.39	21545
855.524	21553
855.658	21428
855.792	21416
855.926	21523
856.06	21401
856.194	21591
856.327	21443
856.461	21283
856.595	21416
856.729	21401
856.862	21519
856.996	21412
857.13	21572
857.263	21504
857.397	21507
857.53	21397
857.664	21496
857.797	21473
857.931	21553
858.064	21511
858.197	21572
858.331	21473
858.464	21458
858.597	21348
858.731	21370
858.864	21348
858.997	21439
859.13	21389
859.263	21431
859.396	21583
859.529	21230
859.662	21374
859.795	21431
859.928	21374
860.061	21618
860.194	21591
860.327	21538
860.46	21466
860.592	21553
860.725	21622
860.858	21622
860.99	21447
861.123	21367
861.256	21321
861.388	21332
861.521	22226
861.653	21336
861.786	21131
861.918	21329
862.05	21260
862.183	21382
862.315	21348
862.447	21447
862.58	21336
862.712	21214
862.844	21165
862.976	21154
863.108	21279
863.24	21671
863.372	21157
863.504	21096
863.636	21119
863.768	21104
863.9	20975
864.032	21104
864.164	21176
864.296	21123
864.428	21222
864.559	21161
864.691	21291
864.823	21192
864.954	21070
865.086	21142
865.217	21077
865.349	20914
865.48	21028
865.612	21039
865.743	21199
865.875	21112
866.006	21108
866.137	21100
866.269	21024
866.4	20902
866.531	20982
866.662	21005
866.793	20925
866.924	20933
867.055	21043
867.186	20960
867.317	20952
867.448	20914
867.579	20887
867.71	20899
867.841	20891
867.972	21051
868.103	20895
868.233	21051
868.364	20979
868.495	21108
868.625	21218
868.756	21237
868.886	21264
869.017	21283
869.147	21355
869.278	21336
869.408	21093
869.539	21176
869.669	21264
869.799	21230
869.929	21374
870.06	21374
870.19	21580
870.32	21534
870.45	21466
870.58	21564
870.71	21656
870.84	21804
870.97	21526
871.1	21694
871.23	21808
871.36	21766
871.489	21663
871.619	21819
871.749	21892
871.879	21781
872.008	21812
872.138	21739
872.267	21709
872.397	21686
872.526	21652
872.656	21614
872.785	21542
872.915	21888
873.044	21895
873.173	21781
873.303	21895
873.432	21838
873.561	21873
873.69	21873
873.819	21827
873.948	22029
874.077	21895
874.206	21759
874.335	21842
874.464	21876
874.593	22086
874.722	21983
874.851	22204
874.979	22124
875.108	22055
875.237	22067
875.365	21998
875.494	22044
875.623	22105
875.751	21991
875.88	22116
876.008	22124
876.136	22150
876.265	22455
876.393	22577
876.521	22470
876.65	22542
876.778	22451
876.906	22337
877.034	22325
877.162	22489
877.29	22295
877.418	22268
877.546	22436
877.674	22390
877.802	22375
877.93	22485
878.058	22367
878.185	22150
878.313	22394
878.441	22363
878.568	22257
878.696	22352
878.824	22440
878.951	22363
879.079	22485
879.206	22653
879.333	22630
879.461	22455
879.588	22481
879.715	22531
879.842	22706
879.97	22580
880.097	22219
880.224	22303
880.351	22291
880.478	22173
880.605	22299
880.732	22131
880.859	22478
880.986	22379
881.112	22310
881.239	22196
881.366	21850
881.493	21865
881.619	21770
881.746	21819
881.872	21831
881.999	21762
882.125	21736
882.252	21793
882.378	21739
882.505	21861
882.631	21686
882.757	21466
882.883	21656
883.01	21549
883.136	21428
883.262	21431
883.388	21291
883.514	21576
883.64	21599
883.766	21428
883.892	21336
884.018	21199
884.143	21359
884.269	21603
884.395	21203
884.52	21028
884.646	21218
884.772	21100
884.897	20986
885.023	21165
885.148	21211
885.274	21298
885.399	21116
885.524	21176
885.65	21135
885.775	21058
885.9	21028
886.025	21218
886.15	21214
886.275	21005
886.4	21062
886.525	21173
886.65	21089
886.775	21039
886.9	21218
887.025	21268
887.149	21024
887.274	20986
887.399	20883
887.523	20975
887.648	20819
887.773	20861
887.897	21024
888.021	20906
888.146	20785
888.27	21146
888.395	20952
888.519	20944
888.643	21005
888.767	21104
888.891	20853
889.015	20754
889.139	20853
889.263	20689
889.387	20853
889.511	20872
889.635	20838
889.759	20762
889.883	20674
890.006	20731
890.13	20731
890.254	20476
890.377	20632
890.501	20332
890.624	20549
890.748	20503
890.871	20377
890.995	20275
891.118	20301
891.241	20202
891.364	20351
891.488	20355
891.611	20210
891.734	20237
891.857	20320
891.98	20263
892.103	20336
892.226	20328
892.349	20161
892.471	19982
892.594	20142
892.717	20161
892.839	20172
892.962	20088
893.085	20267
893.207	20119
893.33	20145
893.452	20107
893.575	20206
893.697	20168
893.819	20427
893.941	20366
894.064	20248
894.186	20043
894.308	20088
894.43	20252
894.552	20286
894.674	20317
894.796	20115
894.918	20176
895.04	20088
895.161	20195
895.283	20191
895.405	20149
895.526	20199
895.648	20081
895.769	20256
895.891	20218
896.012	20248
896.134	20259
896.255	20164
896.376	20088
896.498	20183
896.619	20103
896.74	20153
896.861	20286
896.982	20461
897.103	20503
897.224	20511
897.345	20317
897.466	20206
897.587	20442
897.708	20377
897.828	20419
897.949	20237
898.07	20248
898.19	20229
898.311	20564
898.431	20317
898.552	20465
898.672	20415
898.792	20545
898.913	20442
899.033	20259
899.153	20263
899.273	20161
899.393	20187
899.513	20187
899.633	20115
899.753	20122
899.873	19989
899.993	20187
900.113	20050
900.232	20084
900.352	20050
900.472	20012
900.591	19864
900.711	19921
900.83	19875
900.95	19982
901.069	20054
901.189	19700
901.308	19578
901.427	19544
901.546	19624
901.665	19445
901.784	19521
901.904	19324
902.023	19266
902.141	19122
902.26	19038
902.379	19126
902.498	19065
902.617	19012
902.735	18958
902.854	18859
902.973	18840
903.091	18684
903.21	18578
903.328	18627
903.446	18525
903.565	18433
903.683	18528
903.801	18407
903.919	18308
904.038	18376
904.156	18213
904.274	18319
904.392	18273
904.51	18114
904.627	18171
904.745	18327
904.863	18319
904.981	18068
905.098	17935
905.216	17874
905.334	17908
905.451	17988
905.569	17889
905.686	17977
905.803	17942
905.921	17653
906.038	17866
906.155	17661
906.272	17634
906.389	17638
906.506	17543
906.623	17463
906.74	17387
906.857	17436
906.974	17303
907.091	17448
907.208	17653
907.324	17474
907.441	17341
907.557	17166
907.674	17132
907.79	16980
907.907	17132
908.023	17128
908.139	17193
908.256	17048
908.372	17083
908.488	16904
908.604	16961
908.72	16763
908.836	16866
908.952	16927
909.068	16847
909.184	16980
909.3	16889
909.415	16843
909.531	16831
909.647	16542
909.762	16592
909.878	16535
909.993	16592
910.108	16561
910.224	16535
910.339	16618
910.454	16550
910.57	16493
910.685	16356
910.8	16538
910.915	16565
911.03	16306
911.145	16287
911.259	16124
911.374	16230
911.489	16150
911.604	16021
911.718	15907
911.833	15899
911.947	15869
912.062	15785
912.176	15960
912.291	15892
912.405	15819
912.519	16040
912.633	16143
912.748	15880
912.862	15827
912.976	15804
913.09	15618
913.204	15652
913.318	15755
913.431	15854
913.545	15888
913.659	15827
913.772	15648
913.886	15553
914	15584
914.113	15637
914.226	15644
914.34	15603
914.453	15439
914.566	15393
914.68	15420
914.793	15481
914.906	15211
915.019	15077
915.132	15097
915.245	15173
915.358	15222
915.47	15241
915.583	15070
915.696	15154
915.809	15207
915.921	15378
916.034	15142
916.146	15032
916.259	15036
916.371	15097
916.483	15036
916.595	15085
916.708	14887
916.82	15028
916.932	14952
917.044	14998
917.156	14819
917.268	14819
917.38	14777
917.491	14769
917.603	14769
917.715	14819
917.826	15020
917.938	14811
918.049	14640
918.161	14739
918.272	14880
918.384	14830
918.495	14712
918.606	14648
918.717	14530
918.828	14571
918.939	14640
919.05	14385
919.161	14469
919.272	14278
919.383	14358
919.494	14514
919.604	14769
919.715	14469
919.826	14465
919.936	14545
920.047	14541
920.157	14549
920.267	14750
920.378	14469
920.488	14541
920.598	14606
920.708	14895
920.818	14598
920.928	14670
921.038	14655
921.148	14845
921.258	14438
921.368	14347
921.477	14210
921.587	14309
921.697	14123
921.806	14309
921.916	14149
922.025	13978
922.134	13890
922.244	13833
922.353	13856
922.462	13772
922.571	13620
922.68	13521
922.789	13552
922.898	13499
923.007	13468
923.116	13578
923.224	13601
923.333	13472
923.442	13403
923.55	13407
923.659	13339
923.767	13365
923.876	13263
923.984	13426
924.092	13270
924.201	13324
924.309	13270
924.417	13213
924.525	13156
924.633	13164
924.741	14077
924.849	12928
924.956	13107
925.064	13069
925.172	12916
925.279	12928
925.387	12977
925.494	12981
925.602	13084
925.709	13053
925.816	12821
925.924	12905
926.031	12920
926.138	12867
926.245	12939
926.352	12791
926.459	13046
926.566	12939
926.673	12821
926.779	12760
926.886	12639
926.993	12589
927.099	12445
927.206	12422
927.312	12452
927.419	12502
927.525	12467
927.631	12521
927.737	12456
927.843	12330
927.95	12270
928.056	12357
928.162	12357
928.267	12418
928.373	12973
928.479	12384
928.585	12068
928.69	12330
928.796	12407
928.901	12159
929.007	12079
929.112	12243
929.218	12095
929.323	12083
929.428	11992
929.533	12117
929.638	12007
929.743	11973
929.848	12053
929.953	12064
930.058	11923
930.163	11775
930.267	11824
930.372	11874
930.477	11718
930.581	11939
930.685	11748
930.79	11627
930.894	11649
930.998	11688
931.103	11813
931.207	11364
931.311	11353
931.415	11299
931.519	11014
931.623	10980
