Data from test_V78500241_3044.txt Node
Date: Fri Mar 25 15:31:03 CST 2022
User: usil
Spectrometer: V785-0024
Trigger mode: 0
Integration Time (sec): 4.000000E-1
Scans to average: 1
Nonlinearity correction enabled: false
Boxcar width: 0
Storing dark spectrum: false
XAxis mode: Wavelengths
Number of Pixels in Spectrum: 1024
>>>>>Begin Spectral Data<<<<<
801.071	27180
801.214	27104
801.356	27093
801.499	26937
801.641	26815
801.783	26720
801.926	26781
802.068	26773
802.211	26724
802.353	26727
802.496	26545
802.638	26453
802.78	26408
802.923	26362
803.065	26461
803.208	26286
803.35	26374
803.492	26583
803.635	26629
803.777	26503
803.919	26602
804.061	26906
804.204	26632
804.346	26495
804.488	26514
804.63	26412
804.773	26453
804.915	26590
805.057	26636
805.199	26469
805.341	26674
805.483	26678
805.626	26754
805.768	26754
805.91	26549
806.052	26708
806.194	26632
806.336	26849
806.478	26663
806.62	26697
806.762	26876
806.904	27028
807.046	27173
807.188	27020
807.33	27142
807.472	27074
807.614	27116
807.756	27214
807.898	26998
808.04	26842
808.182	26864
808.324	27005
808.465	27001
808.607	27154
808.749	27142
808.891	27477
809.033	27500
809.174	27268
809.316	27298
809.458	27283
809.6	27279
809.741	27401
809.883	27336
810.025	27526
810.166	27564
810.308	27534
810.45	27568
810.591	27435
810.733	27241
810.875	27340
811.016	27157
811.158	27260
811.299	27416
811.441	27447
811.582	27469
811.724	27195
811.865	27249
812.007	27249
812.148	27195
812.29	27317
812.431	27424
812.573	27511
812.714	27614
812.855	27869
812.997	27816
813.138	27972
813.279	27876
813.421	27873
813.562	27739
813.703	27641
813.845	27526
813.986	27127
814.127	27013
814.268	26994
814.41	26925
814.551	26971
814.692	27252
814.833	26853
814.974	26868
815.115	26864
815.256	26838
815.397	26811
815.539	27036
815.68	26785
815.821	26705
815.962	26758
816.103	26731
816.244	26465
816.385	26530
816.526	26499
816.666	26180
816.807	26149
816.948	26142
817.089	26286
817.23	26404
817.371	25940
817.512	26191
817.653	26134
817.793	26263
817.934	26142
818.075	26301
818.216	26195
818.356	26259
818.497	26100
818.638	25871
818.778	25947
818.919	25986
819.06	26027
819.2	26027
819.341	26164
819.481	26115
819.622	26355
819.762	26514
819.903	26358
820.043	26385
820.184	26336
820.324	26248
820.465	26366
820.605	26301
820.746	26275
820.886	26244
821.026	26195
821.167	26168
821.307	26244
821.447	26103
821.588	25963
821.728	25894
821.868	25746
822.008	25639
822.149	25594
822.289	25594
822.429	25388
822.569	25373
822.709	25327
822.849	25202
822.99	25107
823.13	25023
823.27	25103
823.41	24875
823.55	24951
823.69	24935
823.83	24924
823.97	24939
824.11	24722
824.25	24688
824.389	24574
824.529	24814
824.669	24833
824.809	24882
824.949	24814
825.089	24844
825.228	24844
825.368	24650
825.508	24585
825.648	24627
825.787	24521
825.927	24719
826.067	24589
826.206	24623
826.346	24669
826.485	24532
826.625	24616
826.765	24749
826.904	24719
827.044	24521
827.183	24433
827.323	24380
827.462	24384
827.601	24471
827.741	24292
827.88	24372
828.02	24152
828.159	24338
828.298	24262
828.437	24319
828.577	24224
828.716	24418
828.855	24334
828.994	24026
829.134	24022
829.273	24114
829.412	23954
829.551	23999
829.69	23980
829.829	24117
829.968	24136
830.107	24125
830.246	24121
830.385	23927
830.524	23908
830.663	23775
830.802	23722
830.941	23600
831.08	23554
831.219	23642
831.357	23668
831.496	23882
831.635	23665
831.774	23611
831.913	23516
832.051	23425
832.19	23288
832.329	23497
832.467	23376
832.606	23299
832.744	23322
832.883	23368
833.022	23299
833.16	23208
833.299	23349
833.437	23440
833.576	23345
833.714	23261
833.852	23512
833.991	23398
834.129	23410
834.267	23452
834.406	23444
834.544	23265
834.682	23337
834.821	23353
834.959	23604
835.097	23322
835.235	23467
835.373	23353
835.511	23326
835.65	23254
835.788	23288
835.926	22991
836.064	22961
836.202	23143
836.34	23318
836.478	23315
836.615	23265
836.753	23250
836.891	23330
837.029	23166
837.167	23117
837.305	23136
837.443	23071
837.58	23083
837.718	23117
837.856	23060
837.993	22987
838.131	23037
838.269	22908
838.406	22919
838.544	22915
838.681	22847
838.819	22698
838.956	22588
839.094	22557
839.231	22725
839.369	22634
839.506	22854
839.643	22812
839.781	22584
839.918	22527
840.055	22573
840.193	22466
840.33	22504
840.467	22447
840.604	22569
840.742	22752
840.879	22432
841.016	22459
841.153	22352
841.29	22607
841.427	22371
841.564	22550
841.701	22379
841.838	22436
841.975	22352
842.112	22382
842.249	22413
842.385	22436
842.522	22390
842.659	22341
842.796	22246
842.933	22196
843.069	22204
843.206	22166
843.343	22185
843.479	22249
843.616	22063
843.752	21949
843.889	21987
844.025	22166
844.162	21991
844.298	22196
844.435	22055
844.571	21994
844.708	22017
844.844	22188
844.98	22086
845.117	22074
845.253	21975
845.389	21876
845.525	21892
845.661	21857
845.798	21622
845.934	21835
846.07	21629
846.206	21800
846.342	21861
846.478	21641
846.614	21648
846.75	21526
846.886	21447
847.022	21603
847.158	21545
847.294	21420
847.429	21542
847.565	21424
847.701	21572
847.837	21260
847.972	21135
848.108	21275
848.244	21260
848.379	21024
848.515	21169
848.65	21036
848.786	21119
848.921	21047
849.057	21199
849.192	21180
849.328	20994
849.463	21081
849.598	21009
849.734	20971
849.869	20986
850.004	20842
850.14	20880
850.275	20876
850.41	20845
850.545	20826
850.68	20864
850.815	20796
850.95	20899
851.085	21047
851.22	20826
851.355	20788
851.49	20754
851.625	20746
851.76	20819
851.895	20834
852.03	20762
852.165	20785
852.299	20849
852.434	20948
852.569	20807
852.703	20902
852.838	20857
852.973	20963
853.107	20925
853.242	20781
853.376	20678
853.511	20480
853.645	20670
853.78	20849
853.914	20804
854.048	20629
854.183	20594
854.317	20689
854.451	20834
854.585	20701
854.72	20560
854.854	20769
854.988	20442
855.122	20708
855.256	20552
855.39	20609
855.524	20758
855.658	20712
855.792	20720
855.926	20758
856.06	20804
856.194	20735
856.327	20648
856.461	20609
856.595	20602
856.729	20533
856.862	20640
856.996	20678
857.13	20579
857.263	20750
857.397	20800
857.53	20537
857.664	20659
857.797	20594
857.931	20773
858.064	20636
858.197	20689
858.331	20781
858.464	20594
858.597	20613
858.731	20480
858.864	20530
858.997	20514
859.13	20568
859.263	20701
859.396	20773
859.529	20659
859.662	20621
859.795	20617
859.928	20667
860.061	20796
860.194	20853
860.327	20693
860.46	20640
860.592	20735
860.725	20708
860.858	20792
860.99	20598
861.123	20579
861.256	20488
861.388	20571
861.521	21336
861.653	20454
861.786	20465
861.918	20503
862.05	20457
862.183	20621
862.315	20587
862.447	20579
862.58	20545
862.712	20457
862.844	20400
862.976	20438
863.108	20434
863.24	20845
863.372	20275
863.504	20351
863.636	20396
863.768	20374
863.9	20438
864.032	20221
864.164	20282
864.296	20389
864.428	20552
864.559	20434
864.691	20465
864.823	20290
864.954	20294
865.086	20427
865.217	20286
865.349	20237
865.48	20278
865.612	20294
865.743	20370
865.875	20301
866.006	20157
866.137	20263
866.269	20313
866.4	20259
866.531	20294
866.662	20180
866.793	20161
866.924	20233
867.055	20347
867.186	20240
867.317	20142
867.448	20046
867.579	20180
867.71	20145
867.841	20168
867.972	20225
868.103	20275
868.233	20199
868.364	20122
868.495	20324
868.625	20400
868.756	20370
868.886	20427
869.017	20427
869.147	20621
869.278	20613
869.408	20480
869.539	20389
869.669	20545
869.799	20526
869.929	20492
870.06	20457
870.19	20792
870.32	20872
870.45	20735
870.58	20918
870.71	20826
870.84	20990
870.97	20845
871.1	20891
871.23	20956
871.36	20982
871.489	21024
871.619	20982
871.749	21077
871.879	21051
872.008	21176
872.138	21066
872.267	20998
872.397	20937
872.526	20883
872.656	21020
872.785	20864
872.915	21051
873.044	21165
873.173	21074
873.303	21017
873.432	21096
873.561	21127
873.69	21062
873.819	21001
873.948	21150
874.077	21214
874.206	21013
874.335	20982
874.464	21211
874.593	21241
874.722	21249
874.851	21332
874.979	21306
875.108	21283
875.237	21249
875.365	21230
875.494	21272
875.623	21431
875.751	21306
875.88	21283
876.008	21428
876.136	21587
876.265	21717
876.393	21812
876.521	21774
876.65	21778
876.778	21610
876.906	21660
877.034	21800
877.162	21606
877.29	21682
877.418	21652
877.546	21614
877.674	21751
877.802	21682
877.93	21682
878.058	21694
878.185	21492
878.313	21557
878.441	21587
878.568	21515
878.696	21660
878.824	21759
878.951	21690
879.079	21884
879.206	22021
879.333	21793
879.461	21732
879.588	21625
879.715	21823
879.842	21937
879.97	21766
880.097	21515
880.224	21469
880.351	21595
880.478	21481
880.605	21481
880.732	21587
880.859	21671
880.986	21561
881.112	21572
881.239	21428
881.366	21325
881.493	21104
881.619	21077
881.746	21123
881.872	20998
881.999	21154
882.125	21062
882.252	21043
882.378	20967
882.505	21195
882.631	20960
882.757	20823
882.883	20960
883.01	20937
883.136	20697
883.262	20727
883.388	20625
883.514	20880
883.64	20796
883.766	20792
883.892	20587
884.018	20682
884.143	20807
884.269	20849
884.395	20609
884.52	20526
884.646	20541
884.772	20427
884.897	20389
885.023	20450
885.148	20457
885.274	20568
885.399	20644
885.524	20404
885.65	20492
885.775	20492
885.9	20438
886.025	20533
886.15	20507
886.275	20320
886.4	20381
886.525	20400
886.65	20317
886.775	20457
886.9	20484
887.025	20549
887.149	20408
887.274	20240
887.399	20153
887.523	20206
887.648	20199
887.773	20199
887.897	20339
888.021	20358
888.146	20145
888.27	20446
888.395	20240
888.519	20199
888.643	20233
888.767	20218
888.891	20046
889.015	20005
889.139	20130
889.263	19951
889.387	20187
889.511	20233
889.635	20202
889.759	19944
889.883	20035
890.006	20058
890.13	19993
890.254	19993
890.377	19963
890.501	19681
890.624	19742
890.748	19883
890.871	19696
890.995	19521
891.118	19438
891.241	19715
891.364	19594
891.488	19662
891.611	19670
891.734	19635
891.857	19643
891.98	19639
892.103	19674
892.226	19628
892.349	19575
892.471	19377
892.594	19480
892.717	19529
892.839	19750
892.962	19556
893.085	19590
893.207	19521
893.33	19464
893.452	19422
893.575	19582
893.697	19575
893.819	19753
893.941	19750
894.064	19704
894.186	19533
894.308	19468
894.43	19662
894.552	19734
894.674	19575
894.796	19563
894.918	19594
895.04	19533
895.161	19670
895.283	19514
895.405	19495
895.526	19468
895.648	19438
895.769	19559
895.891	19605
896.012	19704
896.134	19559
896.255	19521
896.376	19582
896.498	19540
896.619	19567
896.74	19426
896.861	19632
896.982	19849
897.103	20062
897.224	19799
897.345	19814
897.466	19719
897.587	19811
897.708	19921
897.828	19898
897.949	19655
898.07	19635
898.19	19616
898.311	19845
898.431	19677
898.552	19696
898.672	19795
898.792	19738
898.913	19852
899.033	19715
899.153	19597
899.273	19487
899.393	19594
899.513	19655
899.633	19521
899.753	19605
899.873	19472
899.993	19613
900.113	19495
900.232	19586
900.352	19472
900.472	19419
900.591	19240
900.711	19365
900.83	19297
900.95	19468
901.069	19384
901.189	19179
901.308	19027
901.427	18810
901.546	18913
901.665	18871
901.784	18878
901.904	18882
902.023	18795
902.141	18540
902.26	18498
902.379	18631
902.498	18570
902.617	18395
902.735	18350
902.854	18445
902.973	18273
903.091	18171
903.21	18060
903.328	18144
903.446	17996
903.565	17927
903.683	17977
903.801	17916
903.919	17942
904.038	17920
904.156	17699
904.274	17851
904.392	17687
904.51	17642
904.627	17691
904.745	17687
904.863	17760
904.981	17463
905.098	17246
905.216	17265
905.334	17315
905.451	17395
905.569	17322
905.686	17421
905.803	17387
905.921	17223
906.038	17311
906.155	17174
906.272	17033
906.389	17025
906.506	16995
906.623	16904
906.74	16850
906.857	16805
906.974	16839
907.091	16835
907.208	16953
907.324	16976
907.441	16801
907.557	16668
907.674	16653
907.79	16622
907.907	16592
908.023	16729
908.139	16611
908.256	16588
908.372	16531
908.488	16462
908.604	16337
908.72	16322
908.836	16344
908.952	16356
909.068	16322
909.184	16443
909.3	16375
909.415	16363
909.531	16421
909.647	16067
909.762	16074
909.878	16109
909.993	16051
910.108	15956
910.224	15964
910.339	16086
910.454	15987
910.57	15884
910.685	15755
910.8	16044
910.915	16040
911.03	15888
911.145	15751
911.259	15644
911.374	15686
911.489	15603
911.604	15534
911.718	15443
911.833	15450
911.947	15291
912.062	15245
912.176	15454
912.291	15454
912.405	15355
912.519	15564
912.633	15629
912.748	15458
912.862	15405
912.976	15218
913.09	15214
913.204	15161
913.318	15176
913.431	15416
913.545	15241
913.659	15222
913.772	15195
913.886	15070
914	14990
914.113	15138
914.226	15176
914.34	15188
914.453	14910
914.566	15062
914.68	14857
914.793	14883
914.906	14712
915.019	14678
915.132	14610
915.245	14716
915.358	14746
915.47	14617
915.583	14583
915.696	14678
915.809	14792
915.921	14739
916.034	14545
916.146	14556
916.259	14530
916.371	14716
916.483	14541
916.595	14568
916.708	14568
916.82	14480
916.932	14518
917.044	14427
917.156	14400
917.268	14301
917.38	14332
917.491	14267
917.603	14301
917.715	14442
917.826	14415
917.938	14377
918.049	14145
918.161	14244
918.272	14370
918.384	14499
918.495	14183
918.606	14100
918.717	13986
918.828	14092
918.939	14084
919.05	13940
919.161	14153
919.272	13868
919.383	13879
919.494	14077
919.604	14294
919.715	14157
919.826	13974
919.936	14039
920.047	14092
920.157	14123
920.267	14221
920.378	14081
920.488	14081
920.598	14206
920.708	14377
920.818	14256
920.928	14157
921.038	14389
921.148	14317
921.258	14065
921.368	13932
921.477	13795
921.587	13753
921.697	13651
921.806	13811
921.916	13651
922.025	13434
922.134	13438
922.244	13392
922.353	13449
922.462	13251
922.571	13266
922.68	13145
922.789	13175
922.898	13091
923.007	13038
923.116	13095
923.224	13084
923.333	13053
923.442	13034
923.55	12875
923.659	12886
923.767	12989
923.876	12886
923.984	12935
924.092	12882
924.201	12863
924.309	12890
924.417	12814
924.525	12791
924.633	12806
924.741	13670
924.849	12513
924.956	12764
925.064	12654
925.172	12540
925.279	12532
925.387	12646
925.494	12563
925.602	12722
925.709	12559
925.816	12494
925.924	12479
926.031	12597
926.138	12399
926.245	12498
926.352	12429
926.459	12521
926.566	12498
926.673	12399
926.779	12308
926.886	12308
926.993	12159
927.099	12133
927.206	12030
927.312	12186
927.419	12175
927.525	12102
927.631	12155
927.737	12060
927.843	11977
927.95	11916
928.056	11889
928.162	11939
928.267	11999
928.373	12684
928.479	12038
928.585	11851
928.69	11950
928.796	11958
928.901	11775
929.007	11722
929.112	11805
929.218	11824
929.323	11649
929.428	11634
929.533	11843
929.638	11691
929.743	11688
929.848	11653
929.953	11627
930.058	11539
930.163	11379
930.267	11459
930.372	11535
930.477	11326
930.581	11581
930.685	11501
930.79	11318
930.894	11322
930.998	11174
931.103	11429
931.207	11022
931.311	10965
931.415	10976
931.519	10698
931.623	10622
