Data from test_V78500241_1844.txt Node
Date: Fri Mar 25 15:22:41 CST 2022
User: usil
Spectrometer: V785-0024
Trigger mode: 0
Integration Time (sec): 4.000000E-1
Scans to average: 1
Nonlinearity correction enabled: false
Boxcar width: 0
Storing dark spectrum: false
XAxis mode: Wavelengths
Number of Pixels in Spectrum: 1024
>>>>>Begin Spectral Data<<<<<
801.071	27819
801.214	27648
801.356	27530
801.499	27443
801.641	27256
801.783	27431
801.926	27393
802.068	27245
802.211	27264
802.353	27184
802.496	27108
802.638	27001
802.78	27001
802.923	26960
803.065	26895
803.208	26815
803.35	26929
803.492	27112
803.635	27264
803.777	26986
803.919	27013
804.061	27374
804.204	27233
804.346	27233
804.488	27173
804.63	27184
804.773	26971
804.915	27154
805.057	27127
805.199	27081
805.341	27192
805.483	27302
805.626	27230
805.768	27131
805.91	27340
806.052	27237
806.194	27249
806.336	27397
806.478	27138
806.62	27298
806.762	27420
806.904	27534
807.046	27717
807.188	27675
807.33	27743
807.472	27679
807.614	27568
807.756	27538
807.898	27530
808.04	27450
808.182	27443
808.324	27488
808.465	27576
808.607	27800
808.749	27884
808.891	27975
809.033	27983
809.174	27953
809.316	27899
809.458	27816
809.6	27907
809.741	27941
809.883	28086
810.025	28265
810.166	28120
810.308	28128
810.45	27960
810.591	28025
810.733	27854
810.875	27850
811.016	27641
811.158	27789
811.299	27884
811.441	28051
811.582	27998
811.724	27808
811.865	27743
812.007	27804
812.148	27724
812.29	27846
812.431	28025
812.573	28139
812.714	28341
812.855	28413
812.997	28489
813.138	28634
813.279	28706
813.421	28398
813.562	28261
813.703	28021
813.845	27968
813.986	27934
814.127	27694
814.268	27644
814.41	27416
814.551	27625
814.692	27644
814.833	27587
814.974	27656
815.115	27504
815.256	27496
815.397	27405
815.539	27389
815.68	27203
815.821	27218
815.962	27424
816.103	27321
816.244	27207
816.385	27146
816.526	27123
816.666	27001
816.807	26777
816.948	26891
817.089	27036
817.23	26845
817.371	26944
817.512	26880
817.653	26853
817.793	26750
817.934	26876
818.075	26906
818.216	26819
818.356	27009
818.497	26743
818.638	26503
818.778	26499
818.919	26644
819.06	26697
819.2	26842
819.341	26629
819.481	26895
819.622	26971
819.762	27070
819.903	27074
820.043	26925
820.184	26998
820.324	27001
820.465	27036
820.605	26849
820.746	26952
820.886	26769
821.026	26948
821.167	26929
821.307	26845
821.447	26857
821.588	26823
821.728	26636
821.868	26355
822.008	26381
822.149	26244
822.289	26259
822.429	26122
822.569	26073
822.709	26031
822.849	25871
822.99	25780
823.13	25822
823.27	25795
823.41	25685
823.55	25597
823.69	25719
823.83	25704
823.97	25658
824.11	25411
824.25	25384
824.389	25510
824.529	25651
824.669	25411
824.809	25563
824.949	25594
825.089	25552
825.228	25540
825.368	25438
825.508	25476
825.648	25259
825.787	25343
825.927	25434
826.067	25403
826.206	25350
826.346	25468
826.485	25381
826.625	25247
826.765	25483
826.904	25422
827.044	25023
827.183	25145
827.323	25110
827.462	25236
827.601	25114
827.741	25053
827.88	25069
828.02	24992
828.159	25088
828.298	25091
828.437	25206
828.577	25183
828.716	25145
828.855	25031
828.994	24783
829.134	24730
829.273	24875
829.412	24745
829.551	24798
829.69	24639
829.829	24878
829.968	24875
830.107	24764
830.246	24825
830.385	24738
830.524	24642
830.663	24661
830.802	24525
830.941	24357
831.08	24395
831.219	24498
831.357	24460
831.496	24692
831.635	24479
831.774	24361
831.913	24201
832.051	24235
832.19	24201
832.329	24308
832.467	24197
832.606	23984
832.744	24095
832.883	24144
833.022	24102
833.16	24011
833.299	24133
833.437	24022
833.576	24121
833.714	24163
833.852	24319
833.991	24205
834.129	24277
834.267	24277
834.406	24155
834.544	24220
834.682	24285
834.821	24136
834.959	24353
835.097	24140
835.235	24273
835.373	24083
835.511	24155
835.65	24041
835.788	24117
835.926	23882
836.064	23889
836.202	23840
836.34	24003
836.478	24053
836.615	23916
836.753	23988
836.891	24102
837.029	23935
837.167	23965
837.305	23836
837.443	23889
837.58	23866
837.718	23901
837.856	23863
837.993	23786
838.131	23817
838.269	23726
838.406	23855
838.544	23699
838.681	23623
838.819	23448
838.956	23254
839.094	23280
839.231	23311
839.369	23478
839.506	23824
839.643	23646
839.781	23303
839.918	23341
840.055	23277
840.193	23242
840.33	23220
840.467	23212
840.604	23349
840.742	23551
840.879	22999
841.016	23147
841.153	23170
841.29	23376
841.427	23330
841.564	23292
841.701	23193
841.838	23075
841.975	23090
842.112	23136
842.249	23037
842.385	23041
842.522	23162
842.659	22984
842.796	22961
842.933	22991
843.069	22869
843.206	22938
843.343	23014
843.479	23044
843.616	23056
843.752	22896
843.889	22786
844.025	23033
844.162	22740
844.298	22839
844.435	22923
844.571	22740
844.708	22778
844.844	22869
844.98	22911
845.117	22839
845.253	22774
845.389	22611
845.525	22584
845.661	22653
845.798	22497
845.934	22546
846.07	22527
846.206	22615
846.342	22603
846.478	22485
846.614	22356
846.75	22135
846.886	22215
847.022	22303
847.158	22276
847.294	22265
847.429	22333
847.565	22284
847.701	22421
847.837	22055
847.972	21994
848.108	22021
848.244	21956
848.379	21785
848.515	21854
848.65	21865
848.786	21751
848.921	21915
849.057	22025
849.192	21972
849.328	21953
849.463	21838
849.598	21888
849.734	21751
849.869	21637
850.004	21587
850.14	21778
850.275	21618
850.41	21538
850.545	21557
850.68	21469
850.815	21500
850.95	21587
851.085	21660
851.22	21618
851.355	21732
851.49	21523
851.625	21553
851.76	21466
851.895	21603
852.03	21561
852.165	21679
852.299	21614
852.434	21648
852.569	21561
852.703	21618
852.838	21743
852.973	21564
853.107	21713
853.242	21500
853.376	21443
853.511	21291
853.645	21359
853.78	21435
853.914	21401
854.048	21287
854.183	21488
854.317	21386
854.451	21618
854.585	21412
854.72	21416
854.854	21564
854.988	21397
855.122	21393
855.256	21344
855.39	21359
855.524	21382
855.658	21443
855.792	21428
855.926	21416
856.06	21507
856.194	21549
856.327	21454
856.461	21283
856.595	21443
856.729	21428
856.862	21488
856.996	21428
857.13	21492
857.263	21523
857.397	21667
857.53	21447
857.664	21481
857.797	21412
857.931	21553
858.064	21389
858.197	21450
858.331	21481
858.464	21378
858.597	21462
858.731	21386
858.864	21572
858.997	21336
859.13	21408
859.263	21485
859.396	21504
859.529	21412
859.662	21519
859.795	21458
859.928	21488
860.061	21504
860.194	21534
860.327	21530
860.46	21431
860.592	21580
860.725	21553
860.858	21469
860.99	21370
861.123	21237
861.256	21450
861.388	21336
861.521	22032
861.653	21393
861.786	21112
861.918	21272
862.05	21340
862.183	21332
862.315	21340
862.447	21504
862.58	21306
862.712	21169
862.844	21089
862.976	21211
863.108	21108
863.24	21534
863.372	21028
863.504	21127
863.636	21192
863.768	21138
863.9	21070
864.032	21013
864.164	21135
864.296	21173
864.428	21214
864.559	21222
864.691	21233
864.823	21157
864.954	21116
865.086	21089
865.217	21058
865.349	20929
865.48	20982
865.612	21039
865.743	21146
865.875	20990
866.006	21017
866.137	21036
866.269	21032
866.4	20960
866.531	20830
866.662	20861
866.793	21005
866.924	20876
867.055	20944
867.186	20952
867.317	20887
867.448	20849
867.579	20994
867.71	20868
867.841	20891
867.972	20956
868.103	21017
868.233	20941
868.364	21013
868.495	20906
868.625	21184
868.756	21313
868.886	21089
869.017	21089
869.147	21351
869.278	21233
869.408	21230
869.539	21249
869.669	21218
869.799	21268
869.929	21294
870.06	21397
870.19	21507
870.32	21310
870.45	21511
870.58	21637
870.71	21743
870.84	21679
870.97	21511
871.1	21477
871.23	21743
871.36	21774
871.489	21705
871.619	21911
871.749	21614
871.879	21869
872.008	21846
872.138	21736
872.267	21713
872.397	21694
872.526	21564
872.656	21644
872.785	21610
872.915	21827
873.044	21945
873.173	21865
873.303	21812
873.432	21793
873.561	21907
873.69	21895
873.819	21846
873.948	21884
874.077	21800
874.206	21823
874.335	21888
874.464	21918
874.593	22017
874.722	21991
874.851	22124
874.979	22010
875.108	22112
875.237	22013
875.365	21998
875.494	22147
875.623	22074
875.751	22010
875.88	22120
876.008	22230
876.136	22234
876.265	22402
876.393	22481
876.521	22489
876.65	22497
876.778	22363
876.906	22325
877.034	22272
877.162	22462
877.29	22462
877.418	22341
877.546	22291
877.674	22390
877.802	22360
877.93	22333
878.058	22325
878.185	22226
878.313	22360
878.441	22329
878.568	22188
878.696	22299
878.824	22265
878.951	22333
879.079	22542
879.206	22748
879.333	22538
879.461	22379
879.588	22424
879.715	22481
879.842	22519
879.97	22512
880.097	22272
880.224	22303
880.351	22268
880.478	22147
880.605	22166
880.732	22173
880.859	22466
880.986	22242
881.112	22287
881.239	22025
881.366	21930
881.493	21888
881.619	21793
881.746	21808
881.872	21797
881.999	21778
882.125	21625
882.252	21766
882.378	21770
882.505	21892
882.631	21679
882.757	21561
882.883	21454
883.01	21538
883.136	21473
883.262	21321
883.388	21340
883.514	21492
883.64	21431
883.766	21401
883.892	21275
884.018	21233
884.143	21526
884.269	21523
884.395	21241
884.52	21005
884.646	21074
884.772	21165
884.897	21062
885.023	21180
885.148	21230
885.274	21222
885.399	21294
885.524	21142
885.65	21051
885.775	21161
885.9	21112
886.025	21241
886.15	21161
886.275	21116
886.4	20963
886.525	21055
886.65	20952
886.775	21100
886.9	21192
887.025	21355
887.149	21112
887.274	20921
887.399	20823
887.523	20788
887.648	20842
887.773	20796
887.897	20986
888.021	20906
888.146	20960
888.27	20956
888.395	21100
888.519	20864
888.643	21032
888.767	20849
888.891	20773
889.015	20689
889.139	20701
889.263	20686
889.387	20792
889.511	20895
889.635	20701
889.759	20697
889.883	20697
890.006	20758
890.13	20724
890.254	20632
890.377	20568
890.501	20450
890.624	20499
890.748	20522
890.871	20320
890.995	20199
891.118	20183
891.241	20275
891.364	20263
891.488	20358
891.611	20271
891.734	20256
891.857	20256
891.98	20237
892.103	20336
892.226	20164
892.349	20084
892.471	20149
892.594	20164
892.717	20237
892.839	20164
892.962	20138
893.085	20237
893.207	20191
893.33	20024
893.452	20122
893.575	20206
893.697	20073
893.819	20358
893.941	20290
894.064	20263
894.186	19963
894.308	19951
894.43	20191
894.552	20263
894.674	20183
894.796	20043
894.918	20145
895.04	20168
895.161	20199
895.283	20240
895.405	20050
895.526	20084
895.648	20119
895.769	20134
895.891	20130
896.012	20309
896.134	20096
896.255	20233
896.376	20058
896.498	20054
896.619	20233
896.74	20164
896.861	20195
896.982	20533
897.103	20571
897.224	20332
897.345	20415
897.466	20336
897.587	20381
897.708	20446
897.828	20404
897.949	20305
898.07	20271
898.19	20408
898.311	20377
898.431	20309
898.552	20286
898.672	20427
898.792	20336
898.913	20385
899.033	20275
899.153	20065
899.273	20096
899.393	20073
899.513	20202
899.633	20088
899.753	20172
899.873	20149
899.993	20062
900.113	20100
900.232	20119
900.352	19871
900.472	19974
900.591	19864
900.711	19936
900.83	19776
900.95	19947
901.069	19944
901.189	19727
901.308	19457
901.427	19483
901.546	19438
901.665	19582
901.784	19411
901.904	19388
902.023	19301
902.141	19023
902.26	19084
902.379	19053
902.498	19004
902.617	18859
902.735	19031
902.854	18981
902.973	18867
903.091	18639
903.21	18646
903.328	18582
903.446	18532
903.565	18483
903.683	18498
903.801	18361
903.919	18414
904.038	18350
904.156	18201
904.274	18258
904.392	18247
904.51	18201
904.627	18159
904.745	18235
904.863	18213
904.981	17977
905.098	17904
905.216	18026
905.334	17859
905.451	17942
905.569	17832
905.686	17923
905.803	17908
905.921	17676
906.038	17745
906.155	17760
906.272	17699
906.389	17680
906.506	17372
906.623	17463
906.74	17436
906.857	17395
906.974	17448
907.091	17509
907.208	17581
907.324	17509
907.441	17364
907.557	17204
907.674	17170
907.79	17197
907.907	16961
908.023	17102
908.139	17162
908.256	17083
908.372	17022
908.488	17094
908.604	16927
908.72	16828
908.836	16809
908.952	16797
909.068	16930
909.184	16995
909.3	16866
909.415	16900
909.531	16805
909.647	16592
909.762	16592
909.878	16607
909.993	16527
910.108	16580
910.224	16508
910.339	16451
910.454	16512
910.57	16455
910.685	16268
910.8	16455
910.915	16451
911.03	16382
911.145	16188
911.259	16219
911.374	16219
911.489	16173
911.604	16074
911.718	15888
911.833	15926
911.947	15785
912.062	15709
912.176	15861
912.291	15903
912.405	15884
912.519	16044
912.633	16226
912.748	15915
912.862	15922
912.976	15823
913.09	15614
913.204	15797
913.318	15679
913.431	15854
913.545	15800
913.659	15808
913.772	15652
913.886	15519
914	15530
914.113	15660
914.226	15633
914.34	15641
914.453	15450
914.566	15572
914.68	15329
914.793	15416
914.906	15108
915.019	15112
915.132	15123
915.245	15138
915.358	15112
915.47	15226
915.583	15123
915.696	15051
915.809	15218
915.921	15275
916.034	15051
916.146	15085
916.259	14944
916.371	15001
916.483	15108
916.595	14963
916.708	14994
916.82	14952
916.932	14857
917.044	14979
917.156	14876
917.268	14792
917.38	14815
917.491	14739
917.603	14765
917.715	14849
917.826	14921
917.938	14796
918.049	14610
918.161	14777
918.272	14864
918.384	14777
918.495	14686
918.606	14583
918.717	14533
918.828	14495
918.939	14636
919.05	14518
919.161	14476
919.272	14347
919.383	14446
919.494	14579
919.604	14651
919.715	14533
919.826	14419
919.936	14404
920.047	14625
920.157	14488
920.267	14682
920.378	14507
920.488	14412
920.598	14644
920.708	14830
920.818	14636
920.928	14644
921.038	14682
921.148	14743
921.258	14419
921.368	14320
921.477	14305
921.587	14145
921.697	14073
921.806	14267
921.916	14077
922.025	14005
922.134	13925
922.244	13780
922.353	13795
922.462	13776
922.571	13647
922.68	13578
922.789	13506
922.898	13552
923.007	13483
923.116	13556
923.224	13480
923.333	13552
923.442	13358
923.55	13392
923.659	13369
923.767	13426
923.876	13255
923.984	13335
924.092	13225
924.201	13236
924.309	13171
924.417	13308
924.525	13232
924.633	13126
924.741	14084
924.849	12981
924.956	13126
925.064	12993
925.172	12829
925.279	12859
925.387	12962
925.494	12951
925.602	13088
925.709	13012
925.816	12821
925.924	12890
926.031	13004
926.138	12871
926.245	12962
926.352	12688
926.459	12867
926.566	12871
926.673	12772
926.779	12650
926.886	12734
926.993	12509
927.099	12486
927.206	12570
927.312	12471
927.419	12475
927.525	12410
927.631	12486
927.737	12399
927.843	12357
927.95	12285
928.056	12376
928.162	12285
928.267	12342
928.373	12875
928.479	12464
928.585	12163
928.69	12323
928.796	12369
928.901	12216
929.007	11999
929.112	12232
929.218	12163
929.323	12144
929.428	12053
929.533	12106
929.638	11942
929.743	11927
929.848	12060
929.953	12083
930.058	11840
930.163	11691
930.267	11748
930.372	11878
930.477	11847
930.581	11889
930.685	11824
930.79	11532
930.894	11596
930.998	11592
931.103	11661
931.207	11463
931.311	11227
931.415	11208
931.519	10927
931.623	10961
