Data from test_V78500241_1847.txt Node
Date: Fri Mar 25 15:22:42 CST 2022
User: usil
Spectrometer: V785-0024
Trigger mode: 0
Integration Time (sec): 4.000000E-1
Scans to average: 1
Nonlinearity correction enabled: false
Boxcar width: 0
Storing dark spectrum: false
XAxis mode: Wavelengths
Number of Pixels in Spectrum: 1024
>>>>>Begin Spectral Data<<<<<
801.071	27717
801.214	27705
801.356	27473
801.499	27287
801.641	27173
801.783	27169
801.926	27351
802.068	27291
802.211	27256
802.353	27127
802.496	27009
802.638	26994
802.78	26956
802.923	26990
803.065	26807
803.208	26804
803.35	26845
803.492	27043
803.635	27112
803.777	27001
803.919	27195
804.061	27378
804.204	27055
804.346	27020
804.488	27024
804.63	26910
804.773	27077
804.915	27161
805.057	27237
805.199	27116
805.341	27085
805.483	27207
805.626	27306
805.768	27081
805.91	27207
806.052	27370
806.194	27062
806.336	27306
806.478	27317
806.62	27173
806.762	27321
806.904	27355
807.046	27751
807.188	27606
807.33	27709
807.472	27698
807.614	27477
807.756	27625
807.898	27572
808.04	27466
808.182	27435
808.324	27386
808.465	27481
808.607	27694
808.749	27800
808.891	27937
809.033	27812
809.174	27979
809.316	27785
809.458	27987
809.6	27823
809.741	27789
809.883	27937
810.025	28268
810.166	28196
810.308	28207
810.45	28013
810.591	28006
810.733	27945
810.875	27743
811.016	27728
811.158	27857
811.299	27922
811.441	27979
811.582	28055
811.724	27793
811.865	27895
812.007	27679
812.148	27846
812.29	27812
812.431	28120
812.573	28032
812.714	28337
812.855	28329
812.997	28405
813.138	28580
813.279	28375
813.421	28280
813.562	28303
813.703	28295
813.845	27998
813.986	27797
814.127	27580
814.268	27553
814.41	27599
814.551	27412
814.692	27599
814.833	27507
814.974	27336
815.115	27595
815.256	27435
815.397	27389
815.539	27485
815.68	27245
815.821	27222
815.962	27283
816.103	27283
816.244	27150
816.385	27001
816.526	27055
816.666	26902
816.807	26876
816.948	26830
817.089	26857
817.23	26815
817.371	26781
817.512	26838
817.653	26689
817.793	26708
817.934	26765
818.075	26804
818.216	26746
818.356	26785
818.497	26663
818.638	26499
818.778	26609
818.919	26518
819.06	26583
819.2	26815
819.341	26781
819.481	26701
819.622	26872
819.762	27142
819.903	26990
820.043	26883
820.184	27009
820.324	26921
820.465	27020
820.605	27017
820.746	26914
820.886	26727
821.026	26853
821.167	26792
821.307	26838
821.447	26853
821.588	26720
821.728	26632
821.868	26374
822.008	26385
822.149	26294
822.289	26294
822.429	26031
822.569	26096
822.709	25997
822.849	25864
822.99	25738
823.13	25902
823.27	25715
823.41	25563
823.55	25537
823.69	25647
823.83	25605
823.97	25620
824.11	25457
824.25	25354
824.389	25529
824.529	25384
824.669	25460
824.809	25525
824.949	25628
825.089	25575
825.228	25514
825.368	25278
825.508	25316
825.648	25247
825.787	25247
825.927	25422
826.067	25202
826.206	25339
826.346	25384
826.485	25346
826.625	25304
826.765	25377
826.904	25411
827.044	25065
827.183	25110
827.323	24909
827.462	25008
827.601	24954
827.741	24951
827.88	25107
828.02	24901
828.159	24897
828.298	25069
828.437	25069
828.577	25019
828.716	25080
828.855	24909
828.994	24688
829.134	24700
829.273	24760
829.412	24798
829.551	24665
829.69	24700
829.829	24734
829.968	24753
830.107	24924
830.246	24692
830.385	24741
830.524	24597
830.663	24563
830.802	24448
830.941	24399
831.08	24266
831.219	24498
831.357	24540
831.496	24681
831.635	24452
831.774	24258
831.913	24220
832.051	24083
832.19	24213
832.329	24194
832.467	24038
832.606	23840
832.744	24022
832.883	24171
833.022	23992
833.16	24129
833.299	24148
833.437	24007
833.576	24125
833.714	24015
833.852	24167
833.991	24167
834.129	24110
834.267	24186
834.406	24129
834.544	24224
834.682	24034
834.821	24057
834.959	24266
835.097	24049
835.235	23942
835.373	23980
835.511	24011
835.65	23863
835.788	23901
835.926	23824
836.064	23748
836.202	23977
836.34	23908
836.478	24038
836.615	23828
836.753	23847
836.891	24140
837.029	24068
837.167	23927
837.305	23935
837.443	23741
837.58	23794
837.718	23779
837.856	23722
837.993	23691
838.131	23714
838.269	23737
838.406	23638
838.544	23649
838.681	23379
838.819	23512
838.956	23277
839.094	23280
839.231	23269
839.369	23395
839.506	23642
839.643	23535
839.781	23311
839.918	23064
840.055	23212
840.193	23166
840.33	23143
840.467	23083
840.604	23166
840.742	23383
840.879	23006
841.016	23113
841.153	23147
841.29	23254
841.427	23159
841.564	23140
841.701	23060
841.838	23223
841.975	23071
842.112	23067
842.249	23067
842.385	22869
842.522	23128
842.659	22999
842.796	22999
842.933	22984
843.069	22858
843.206	22908
843.343	22934
843.479	22904
843.616	22942
843.752	22759
843.889	22755
844.025	22835
844.162	22744
844.298	22786
844.435	22656
844.571	22653
844.708	22710
844.844	22900
844.98	22869
845.117	22949
845.253	22672
845.389	22603
845.525	22588
845.661	22500
845.798	22451
845.934	22413
846.07	22405
846.206	22390
846.342	22535
846.478	22295
846.614	22249
846.75	22154
846.886	22284
847.022	22261
847.158	22200
847.294	22253
847.429	22177
847.565	22246
847.701	22299
847.837	21842
847.972	22006
848.108	21926
848.244	21994
848.379	21819
848.515	21762
848.65	21736
848.786	21842
848.921	21804
849.057	21732
849.192	21831
849.328	21797
849.463	21736
849.598	21663
849.734	21679
849.869	21625
850.004	21469
850.14	21405
850.275	21561
850.41	21473
850.545	21485
850.68	21420
850.815	21656
850.95	21511
851.085	21739
851.22	21713
851.355	21576
851.49	21553
851.625	21545
851.76	21412
851.895	21393
852.03	21405
852.165	21443
852.299	21534
852.434	21671
852.569	21526
852.703	21530
852.838	21549
852.973	21656
853.107	21713
853.242	21454
853.376	21416
853.511	21230
853.645	21275
853.78	21496
853.914	21389
854.048	21306
854.183	21443
854.317	21298
854.451	21466
854.585	21329
854.72	21359
854.854	21374
854.988	21340
855.122	21431
855.256	21256
855.39	21302
855.524	21454
855.658	21462
855.792	21492
855.926	21310
856.06	21340
856.194	21363
856.327	21310
856.461	21294
856.595	21355
856.729	21370
856.862	21504
856.996	21340
857.13	21466
857.263	21492
857.397	21439
857.53	21355
857.664	21340
857.797	21447
857.931	21595
858.064	21332
858.197	21439
858.331	21401
858.464	21416
858.597	21237
858.731	21317
858.864	21351
858.997	21298
859.13	21302
859.263	21500
859.396	21477
859.529	21184
859.662	21397
859.795	21393
859.928	21294
860.061	21523
860.194	21526
860.327	21428
860.46	21370
860.592	21382
860.725	21591
860.858	21545
860.99	21363
861.123	21317
861.256	21256
861.388	21401
861.521	22006
861.653	21233
861.786	21157
861.918	21245
862.05	21264
862.183	21256
862.315	21332
862.447	21378
862.58	21260
862.712	21051
862.844	21089
862.976	21066
863.108	21131
863.24	21405
863.372	20971
863.504	21039
863.636	21081
863.768	20986
863.9	21089
864.032	21119
864.164	21081
864.296	21135
864.428	21176
864.559	21138
864.691	21062
864.823	21055
864.954	21043
865.086	21089
865.217	20960
865.349	20910
865.48	20979
865.612	21001
865.743	21119
865.875	21001
866.006	20986
866.137	20963
866.269	20902
866.4	20895
866.531	20921
866.662	20979
866.793	20804
866.924	20963
867.055	20937
867.186	20918
867.317	20857
867.448	20849
867.579	20960
867.71	20861
867.841	20731
867.972	20990
868.103	20777
868.233	20952
868.364	20883
868.495	20998
868.625	21119
868.756	21294
868.886	21211
869.017	21165
869.147	21123
869.278	21287
869.408	21165
869.539	21070
869.669	21135
869.799	21195
869.929	21180
870.06	21321
870.19	21397
870.32	21382
870.45	21568
870.58	21545
870.71	21633
870.84	21629
870.97	21492
871.1	21641
871.23	21713
871.36	21778
871.489	21553
871.619	21781
871.749	21644
871.879	21713
872.008	21918
872.138	21781
872.267	21591
872.397	21728
872.526	21580
872.656	21622
872.785	21614
872.915	21873
873.044	21812
873.173	21614
873.303	21861
873.432	21808
873.561	21800
873.69	21812
873.819	21770
873.948	21827
874.077	21709
874.206	21679
874.335	21819
874.464	21804
874.593	22032
874.722	21953
874.851	21987
874.979	22048
875.108	22044
875.237	21949
875.365	21937
875.494	21857
875.623	22002
875.751	22048
875.88	22013
876.008	22200
876.136	22128
876.265	22390
876.393	22379
876.521	22481
876.65	22436
876.778	22242
876.906	22352
877.034	22322
877.162	22280
877.29	22223
877.418	22440
877.546	22390
877.674	22329
877.802	22299
877.93	22295
878.058	22268
878.185	22116
878.313	22318
878.441	22219
878.568	22177
878.696	22265
878.824	22337
878.951	22519
879.079	22382
879.206	22611
879.333	22523
879.461	22322
879.588	22398
879.715	22622
879.842	22641
879.97	22352
880.097	22234
880.224	22139
880.351	22204
880.478	22207
880.605	22044
880.732	22086
880.859	22280
880.986	22200
881.112	22177
881.239	22002
881.366	21968
881.493	21778
881.619	21743
881.746	21682
881.872	21785
881.999	21739
882.125	21576
882.252	21827
882.378	21797
882.505	21724
882.631	21656
882.757	21389
882.883	21595
883.01	21397
883.136	21477
883.262	21367
883.388	21283
883.514	21466
883.64	21435
883.766	21367
883.892	21188
884.018	21150
884.143	21389
884.269	21477
884.395	21150
884.52	21009
884.646	21165
884.772	21062
884.897	20887
885.023	21241
885.148	21165
885.274	21275
885.399	21230
885.524	21055
885.65	21058
885.775	21142
885.9	21093
886.025	21066
886.15	21081
886.275	21051
886.4	21005
886.525	21036
886.65	20944
886.775	21043
886.9	21260
887.025	21161
887.149	20967
887.274	20845
887.399	20804
887.523	20781
887.648	20693
887.773	20648
887.897	20960
888.021	20925
888.146	20659
888.27	20982
888.395	20914
888.519	20815
888.643	20902
888.767	20876
888.891	20625
889.015	20648
889.139	20716
889.263	20697
889.387	20758
889.511	20758
889.635	20807
889.759	20518
889.883	20621
890.006	20560
890.13	20636
890.254	20629
890.377	20583
890.501	20355
890.624	20370
890.748	20412
890.871	20267
890.995	20225
891.118	20149
891.241	20206
891.364	20267
891.488	20221
891.611	20248
891.734	20244
891.857	20400
891.98	20225
892.103	20168
892.226	20187
892.349	20069
892.471	20012
892.594	20084
892.717	20142
892.839	20103
892.962	20164
893.085	20115
893.207	20130
893.33	20065
893.452	20062
893.575	20191
893.697	20084
893.819	20290
893.941	20317
894.064	20199
894.186	19993
894.308	19993
894.43	20176
894.552	20225
894.674	20081
894.796	20096
894.918	20077
895.04	20081
895.161	20168
895.283	20187
895.405	19925
895.526	20252
895.648	20050
895.769	20084
895.891	20278
896.012	20145
896.134	20111
896.255	20111
896.376	20107
896.498	20183
896.619	20180
896.74	20088
896.861	20142
896.982	20355
897.103	20423
897.224	20400
897.345	20412
897.466	20351
897.587	20305
897.708	20442
897.828	20317
897.949	20172
898.07	20126
898.19	20183
898.311	20404
898.431	20305
898.552	20332
898.672	20419
898.792	20415
898.913	20305
899.033	20142
899.153	20100
899.273	19978
899.393	20107
899.513	20195
899.633	20084
899.753	20050
899.873	20016
899.993	20039
900.113	19902
900.232	20012
900.352	19986
900.472	19902
900.591	19761
900.711	19868
900.83	19799
900.95	19871
901.069	20008
901.189	19613
901.308	19453
901.427	19521
901.546	19499
901.665	19441
901.784	19373
901.904	19304
902.023	19202
902.141	19080
902.26	18985
902.379	19076
902.498	18989
902.617	18825
902.735	19034
902.854	18935
902.973	18875
903.091	18692
903.21	18597
903.328	18601
903.446	18502
903.565	18441
903.683	18475
903.801	18365
903.919	18388
904.038	18315
904.156	18224
904.274	18296
904.392	18262
904.51	18213
904.627	18121
904.745	18262
904.863	18228
904.981	17935
905.098	17821
905.216	17843
905.334	17790
905.451	17904
905.569	17878
905.686	17805
905.803	17863
905.921	17653
906.038	17710
906.155	17684
906.272	17566
906.389	17604
906.506	17334
906.623	17379
906.74	17296
906.857	17334
906.974	17299
907.091	17532
907.208	17353
907.324	17398
907.441	17341
907.557	17113
907.674	17170
907.79	17083
907.907	17075
908.023	17029
908.139	17151
908.256	17109
908.372	16991
908.488	17014
908.604	16854
908.72	16763
908.836	16858
908.952	16782
909.068	16805
909.184	16911
909.3	16778
909.415	16908
909.531	16801
909.647	16637
909.762	16603
909.878	16508
909.993	16577
910.108	16459
910.224	16432
910.339	16424
910.454	16402
910.57	16360
910.685	16249
910.8	16637
910.915	16462
911.03	16268
911.145	16196
911.259	16090
911.374	16101
911.489	16013
911.604	16048
911.718	15903
911.833	15949
911.947	15804
912.062	15644
912.176	15770
912.291	15907
912.405	15861
912.519	16040
912.633	16173
912.748	15880
912.862	15816
912.976	15705
913.09	15572
913.204	15637
913.318	15663
913.431	15766
913.545	15770
913.659	15724
913.772	15637
913.886	15557
914	15435
914.113	15564
914.226	15557
914.34	15587
914.453	15374
914.566	15458
914.68	15405
914.793	15428
914.906	15070
915.019	15074
915.132	15047
915.245	15108
915.358	15154
915.47	14937
915.583	15039
915.696	15100
915.809	15283
915.921	15237
916.034	14952
916.146	14899
916.259	14994
916.371	15104
916.483	15001
916.595	14937
916.708	14933
916.82	14975
916.932	14937
917.044	14830
917.156	14883
917.268	14716
917.38	14701
917.491	14807
917.603	14746
917.715	14834
917.826	14845
917.938	14667
918.049	14518
918.161	14720
918.272	14788
918.384	14906
918.495	14785
918.606	14484
918.717	14412
918.828	14495
918.939	14518
919.05	14355
919.161	14457
919.272	14324
919.383	14366
919.494	14587
919.604	14724
919.715	14499
919.826	14385
919.936	14427
920.047	14518
920.157	14438
920.267	14644
920.378	14377
920.488	14393
920.598	14629
920.708	14769
920.818	14636
920.928	14488
921.038	14701
921.148	14781
921.258	14396
921.368	14408
921.477	14138
921.587	14157
921.697	14176
921.806	14115
921.916	14046
922.025	13944
922.134	13841
922.244	13822
922.353	13909
922.462	13776
922.571	13670
922.68	13609
922.789	13529
922.898	13578
923.007	13358
923.116	13548
923.224	13567
923.333	13468
923.442	13331
923.55	13274
923.659	13346
923.767	13419
923.876	13335
923.984	13384
924.092	13320
924.201	13297
924.309	13244
924.417	13194
924.525	13149
924.633	13126
924.741	14073
924.849	12973
924.956	13160
925.064	12894
925.172	12920
925.279	12970
925.387	12852
925.494	12932
925.602	13038
925.709	12878
925.816	12798
925.924	12840
926.031	12947
926.138	12833
926.245	12863
926.352	12764
926.459	12882
926.566	12909
926.673	12779
926.779	12646
926.886	12673
926.993	12525
927.099	12448
927.206	12486
927.312	12380
927.419	12460
927.525	12426
927.631	12521
927.737	12403
927.843	12350
927.95	12194
928.056	12346
928.162	12380
928.267	12376
928.373	12814
928.479	12407
928.585	12064
928.69	12186
928.796	12334
928.901	12125
929.007	12026
929.112	12175
929.218	12121
929.323	12026
929.428	11988
929.533	12159
929.638	11931
929.743	11996
929.848	11935
929.953	11961
930.058	11840
930.163	11649
930.267	11805
930.372	11916
930.477	11627
930.581	11958
930.685	11798
930.79	11627
930.894	11570
930.998	11653
931.103	11821
931.207	11345
931.311	11280
931.415	11162
931.519	10942
931.623	10934
