Data from test_V78500241_3460.txt Node
Date: Fri Mar 25 15:33:57 CST 2022
User: usil
Spectrometer: V785-0024
Trigger mode: 0
Integration Time (sec): 4.000000E-1
Scans to average: 1
Nonlinearity correction enabled: false
Boxcar width: 0
Storing dark spectrum: false
XAxis mode: Wavelengths
Number of Pixels in Spectrum: 1024
>>>>>Begin Spectral Data<<<<<
801.071	27207
801.214	27051
801.356	26849
801.499	26933
801.641	26830
801.783	26845
801.926	26762
802.068	26682
802.211	26724
802.353	26602
802.496	26457
802.638	26583
802.78	26347
802.923	26336
803.065	26206
803.208	26313
803.35	26374
803.492	26514
803.635	26556
803.777	26434
803.919	26625
804.061	26906
804.204	26511
804.346	26412
804.488	26476
804.63	26446
804.773	26423
804.915	26545
805.057	26598
805.199	26457
805.341	26495
805.483	26727
805.626	26549
805.768	26556
805.91	26648
806.052	26735
806.194	26602
806.336	26727
806.478	26511
806.62	26552
806.762	26785
806.904	26861
807.046	27150
807.188	27043
807.33	27112
807.472	27017
807.614	27055
807.756	26956
807.898	26899
808.04	26781
808.182	26853
808.324	26891
808.465	26838
808.607	27165
808.749	27264
808.891	27176
809.033	27416
809.174	27283
809.316	27264
809.458	27180
809.6	27127
809.741	27302
809.883	27363
810.025	27485
810.166	27488
810.308	27473
810.45	27545
810.591	27427
810.733	27359
810.875	27051
811.016	27287
811.158	27195
811.299	27374
811.441	27393
811.582	27462
811.724	27096
811.865	27131
812.007	27173
812.148	27066
812.29	27272
812.431	27374
812.573	27523
812.714	27572
812.855	27641
812.997	27781
813.138	27991
813.279	27911
813.421	27713
813.562	27705
813.703	27530
813.845	27389
813.986	27180
814.127	27036
814.268	26849
814.41	26781
814.551	26925
814.692	26918
814.833	26872
814.974	26872
815.115	26902
815.256	26720
815.397	26815
815.539	26754
815.68	26792
815.821	26571
815.962	26606
816.103	26636
816.244	26556
816.385	26442
816.526	26393
816.666	26199
816.807	26119
816.948	26176
817.089	26103
817.23	26119
817.371	26153
817.512	26145
817.653	26035
817.793	26145
817.934	26065
818.075	26210
818.216	26218
818.356	26164
818.497	26031
818.638	25833
818.778	25818
818.919	25917
819.06	25841
819.2	26077
819.341	26100
819.481	25917
819.622	26259
819.762	26347
819.903	26320
820.043	26161
820.184	26221
820.324	26126
820.465	26248
820.605	26248
820.746	26122
820.886	26054
821.026	26324
821.167	26252
821.307	26115
821.447	26096
821.588	26020
821.728	25951
821.868	25712
822.008	25556
822.149	25537
822.289	25586
822.429	25472
822.569	25221
822.709	25198
822.849	25141
822.99	25061
823.13	25034
823.27	24985
823.41	24947
823.55	24764
823.69	24886
823.83	24905
823.97	24779
824.11	24722
824.25	24749
824.389	24696
824.529	24764
824.669	24726
824.809	24840
824.949	24726
825.089	24753
825.228	24817
825.368	24642
825.508	24627
825.648	24654
825.787	24677
825.927	24639
826.067	24585
826.206	24490
826.346	24658
826.485	24738
826.625	24612
826.765	24620
826.904	24654
827.044	24479
827.183	24315
827.323	24338
827.462	24391
827.601	24407
827.741	24213
827.88	24296
828.02	24163
828.159	24239
828.298	24319
828.437	24300
828.577	24247
828.716	24350
828.855	24273
828.994	24117
829.134	24095
829.273	24148
829.412	24076
829.551	23946
829.69	23916
829.829	24186
829.968	24049
830.107	24114
830.246	24022
830.385	24003
830.524	23980
830.663	23916
830.802	23893
830.941	23741
831.08	23589
831.219	23676
831.357	23615
831.496	23863
831.635	23668
831.774	23524
831.913	23520
832.051	23383
832.19	23436
832.329	23387
832.467	23429
832.606	23235
832.744	23273
832.883	23474
833.022	23334
833.16	23250
833.299	23337
833.437	23349
833.576	23353
833.714	23349
833.852	23436
833.991	23364
834.129	23436
834.267	23406
834.406	23444
834.544	23326
834.682	23356
834.821	23440
834.959	23512
835.097	23425
835.235	23414
835.373	23360
835.511	23322
835.65	23299
835.788	23318
835.926	23048
836.064	23151
836.202	23155
836.34	23288
836.478	23421
836.615	23299
836.753	23303
836.891	23246
837.029	23231
837.167	23124
837.305	23143
837.443	23311
837.58	23193
837.718	23147
837.856	23166
837.993	23143
838.131	23105
838.269	23003
838.406	23056
838.544	22915
838.681	22771
838.819	22664
838.956	22668
839.094	22538
839.231	22706
839.369	22618
839.506	23037
839.643	22809
839.781	22645
839.918	22542
840.055	22588
840.193	22546
840.33	22565
840.467	22413
840.604	22622
840.742	22767
840.879	22436
841.016	22557
841.153	22390
841.29	22569
841.427	22398
841.564	22440
841.701	22493
841.838	22440
841.975	22489
842.112	22440
842.249	22360
842.385	22207
842.522	22618
842.659	22246
842.796	22276
842.933	22200
843.069	22166
843.206	22261
843.343	22253
843.479	22314
843.616	22265
843.752	21945
843.889	22082
844.025	22090
844.162	21987
844.298	22143
844.435	22021
844.571	21964
844.708	22139
844.844	22154
844.98	22234
845.117	22219
845.253	22010
845.389	21945
845.525	21953
845.661	21945
845.798	21762
845.934	21743
846.07	21652
846.206	21663
846.342	21755
846.478	21838
846.614	21549
846.75	21420
846.886	21564
847.022	21564
847.158	21568
847.294	21614
847.429	21591
847.565	21462
847.701	21705
847.837	21226
847.972	21233
848.108	21241
848.244	21378
848.379	21226
848.515	21161
848.65	21173
848.786	21135
848.921	21085
849.057	21192
849.192	21222
849.328	21241
849.463	21043
849.598	20979
849.734	21058
849.869	20986
850.004	20960
850.14	20921
850.275	21009
850.41	20800
850.545	20807
850.68	20887
850.815	20914
850.95	20807
851.085	21055
851.22	20944
851.355	20925
851.49	20994
851.625	20921
851.76	20872
851.895	20739
852.03	20731
852.165	20868
852.299	20956
852.434	21043
852.569	20891
852.703	20853
852.838	20876
852.973	21020
853.107	20960
853.242	20819
853.376	20659
853.511	20617
853.645	20731
853.78	20842
853.914	20735
854.048	20609
854.183	20686
854.317	20781
854.451	20876
854.585	20735
854.72	20712
854.854	20853
854.988	20712
855.122	20804
855.256	20571
855.39	20636
855.524	20708
855.658	20773
855.792	20629
855.926	20731
856.06	20845
856.194	20682
856.327	20663
856.461	20598
856.595	20617
856.729	20678
856.862	20800
856.996	20735
857.13	20792
857.263	20762
857.397	20807
857.53	20743
857.664	20785
857.797	20735
857.931	20754
858.064	20739
858.197	20788
858.331	20659
858.464	20659
858.597	20526
858.731	20655
858.864	20663
858.997	20727
859.13	20758
859.263	20606
859.396	20724
859.529	20678
859.662	20625
859.795	20663
859.928	20629
860.061	20815
860.194	20796
860.327	20705
860.46	20746
860.592	20769
860.725	20800
860.858	20693
860.99	20739
861.123	20530
861.256	20632
861.388	20598
861.521	21336
861.653	20522
861.786	20541
861.918	20499
862.05	20640
862.183	20503
862.315	20594
862.447	20777
862.58	20575
862.712	20446
862.844	20469
862.976	20541
863.108	20434
863.24	20933
863.372	20454
863.504	20518
863.636	20427
863.768	20419
863.9	20503
864.032	20218
864.164	20362
864.296	20423
864.428	20499
864.559	20484
864.691	20552
864.823	20408
864.954	20431
865.086	20454
865.217	20332
865.349	20202
865.48	20286
865.612	20347
865.743	20332
865.875	20282
866.006	20256
866.137	20317
866.269	20358
866.4	20278
866.531	20362
866.662	20233
866.793	20339
866.924	20317
867.055	20358
867.186	20305
867.317	20256
867.448	20218
867.579	20244
867.71	20149
867.841	20058
867.972	20320
868.103	20206
868.233	20301
868.364	20339
868.495	20317
868.625	20313
868.756	20629
868.886	20381
869.017	20590
869.147	20670
869.278	20602
869.408	20484
869.539	20492
869.669	20434
869.799	20488
869.929	20617
870.06	20602
870.19	20804
870.32	20788
870.45	20796
870.58	20876
870.71	21074
870.84	21066
870.97	20933
871.1	20925
871.23	20967
871.36	21070
871.489	21013
871.619	21093
871.749	21154
871.879	21214
872.008	21306
872.138	21085
872.267	21001
872.397	20906
872.526	20914
872.656	20948
872.785	20956
872.915	21173
873.044	21199
873.173	21165
873.303	21199
873.432	21192
873.561	21325
873.69	21135
873.819	21138
873.948	21298
874.077	21119
874.206	21104
874.335	21180
874.464	21135
874.593	21428
874.722	21249
874.851	21306
874.979	21382
875.108	21435
875.237	21363
875.365	21340
875.494	21382
875.623	21370
875.751	21382
875.88	21515
876.008	21450
876.136	21526
876.265	21785
876.393	21911
876.521	21983
876.65	21926
876.778	21713
876.906	21724
877.034	21637
877.162	21732
877.29	21641
877.418	21747
877.546	21812
877.674	21705
877.802	21713
877.93	21755
878.058	21720
878.185	21591
878.313	21736
878.441	21709
878.568	21564
878.696	21557
878.824	21690
878.951	21823
879.079	21888
879.206	22090
879.333	21960
879.461	21663
879.588	21739
879.715	21785
879.842	21930
879.97	21854
880.097	21500
880.224	21469
880.351	21576
880.478	21496
880.605	21580
880.732	21660
880.859	21720
880.986	21561
881.112	21629
881.239	21359
881.366	21218
881.493	21207
881.619	21131
881.746	21211
881.872	21135
881.999	21203
882.125	21180
882.252	21127
882.378	21070
882.505	21283
882.631	21036
882.757	20899
882.883	20948
883.01	20845
883.136	20880
883.262	20739
883.388	20705
883.514	20868
883.64	20853
883.766	20754
883.892	20697
884.018	20571
884.143	20868
884.269	20758
884.395	20514
884.52	20522
884.646	20423
884.772	20351
884.897	20339
885.023	20522
885.148	20556
885.274	20712
885.399	20644
885.524	20446
885.65	20537
885.775	20381
885.9	20488
886.025	20682
886.15	20606
886.275	20480
886.4	20484
886.525	20412
886.65	20400
886.775	20332
886.9	20560
887.025	20651
887.149	20454
887.274	20225
887.399	20294
887.523	20309
887.648	20176
887.773	20149
887.897	20278
888.021	20294
888.146	20259
888.27	20381
888.395	20309
888.519	20317
888.643	20301
888.767	20187
888.891	20218
889.015	20039
889.139	20206
889.263	20024
889.387	20107
889.511	20328
889.635	20210
889.759	20012
889.883	20008
890.006	20115
890.13	20161
890.254	20005
890.377	20039
890.501	19928
890.624	19784
890.748	19997
890.871	19849
890.995	19643
891.118	19613
891.241	19772
891.364	19556
891.488	19887
891.611	19605
891.734	19719
891.857	19689
891.98	19670
892.103	19715
892.226	19620
892.349	19552
892.471	19457
892.594	19567
892.717	19578
892.839	19601
892.962	19639
893.085	19609
893.207	19533
893.33	19441
893.452	19514
893.575	19575
893.697	19689
893.819	19693
893.941	19597
894.064	19643
894.186	19483
894.308	19624
894.43	19651
894.552	19628
894.674	19674
894.796	19445
894.918	19491
895.04	19548
895.161	19734
895.283	19624
895.405	19529
895.526	19616
895.648	19510
895.769	19624
895.891	19556
896.012	19624
896.134	19521
896.255	19563
896.376	19597
896.498	19635
896.619	19491
896.74	19506
896.861	19635
896.982	19932
897.103	20008
897.224	19803
897.345	19799
897.466	19750
897.587	19799
897.708	19989
897.828	19928
897.949	19738
898.07	19563
898.19	19791
898.311	19940
898.431	19685
898.552	19868
898.672	19849
898.792	19864
898.913	19826
899.033	19696
899.153	19670
899.273	19510
899.393	19578
899.513	19525
899.633	19590
899.753	19495
899.873	19483
899.993	19624
900.113	19434
900.232	19605
900.352	19407
900.472	19282
900.591	19308
900.711	19354
900.83	19308
900.95	19430
901.069	19381
901.189	19236
901.308	19023
901.427	18977
901.546	19019
901.665	18935
901.784	18989
901.904	18795
902.023	18684
902.141	18486
902.26	18437
902.379	18559
902.498	18391
902.617	18365
902.735	18509
902.854	18281
902.973	18407
903.091	18140
903.21	17961
903.328	18190
903.446	18003
903.565	18026
903.683	17973
903.801	17855
903.919	17946
904.038	17729
904.156	17752
904.274	17859
904.392	17634
904.51	17642
904.627	17623
904.745	17729
904.863	17840
904.981	17573
905.098	17356
905.216	17463
905.334	17395
905.451	17337
905.569	17330
905.686	17395
905.803	17379
905.921	17174
906.038	17273
906.155	17265
906.272	17045
906.389	17048
906.506	16919
906.623	16938
906.74	16831
906.857	16782
906.974	16733
907.091	17006
907.208	17029
907.324	16896
907.441	16755
907.557	16596
907.674	16664
907.79	16421
907.907	16645
908.023	16645
908.139	16615
908.256	16561
908.372	16558
908.488	16516
908.604	16394
908.72	16310
908.836	16306
908.952	16348
909.068	16356
909.184	16550
909.3	16382
909.415	16352
909.531	16459
909.647	16177
909.762	16147
909.878	15953
909.993	16025
910.108	16120
910.224	16063
910.339	16006
910.454	15907
910.57	15945
910.685	15842
910.8	16105
910.915	16040
911.03	15895
911.145	15774
911.259	15747
911.374	15633
911.489	15538
911.604	15572
911.718	15485
911.833	15428
911.947	15355
912.062	15249
912.176	15542
912.291	15374
912.405	15401
912.519	15637
912.633	15580
912.748	15428
912.862	15424
912.976	15211
913.09	15252
913.204	15233
913.318	15340
913.431	15317
913.545	15222
913.659	15344
913.772	15241
913.886	15077
914	15116
914.113	15203
914.226	15264
914.34	15100
914.453	14933
914.566	15017
914.68	14998
914.793	14963
914.906	14781
915.019	14701
915.132	14682
915.245	14674
915.358	14750
915.47	14644
915.583	14651
915.696	14727
915.809	14731
915.921	14815
916.034	14686
916.146	14659
916.259	14579
916.371	14674
916.483	14602
916.595	14560
916.708	14495
916.82	14552
916.932	14503
917.044	14541
917.156	14438
917.268	14252
917.38	14278
917.491	14317
917.603	14324
917.715	14415
917.826	14427
917.938	14237
918.049	14191
918.161	14355
918.272	14412
918.384	14332
918.495	14290
918.606	14252
918.717	14149
918.828	14088
918.939	14210
919.05	14027
919.161	14107
919.272	13826
919.383	13989
919.494	14134
919.604	14301
919.715	14107
919.826	13932
919.936	14058
920.047	14115
920.157	14123
920.267	14225
920.378	14077
920.488	14039
920.598	14134
920.708	14320
920.818	14221
920.928	14206
921.038	14347
921.148	14408
921.258	14050
921.368	13967
921.477	13879
921.587	13868
921.697	13715
921.806	13902
921.916	13670
922.025	13575
922.134	13400
922.244	13430
922.353	13601
922.462	13396
922.571	13377
922.68	13202
922.789	13187
922.898	13156
923.007	13027
923.116	13202
923.224	13088
923.333	13133
923.442	13019
923.55	12928
923.659	13042
923.767	13053
923.876	12897
923.984	13080
924.092	12890
924.201	12894
924.309	12886
924.417	12894
924.525	12768
924.633	12749
924.741	13597
924.849	12582
924.956	12673
925.064	12639
925.172	12441
925.279	12570
925.387	12547
925.494	12623
925.602	12654
925.709	12570
925.816	12486
925.924	12448
926.031	12684
926.138	12525
926.245	12570
926.352	12433
926.459	12517
926.566	12612
926.673	12357
926.779	12296
926.886	12308
926.993	12182
927.099	12197
927.206	12121
927.312	12064
927.419	12182
927.525	12186
927.631	12034
927.737	12049
927.843	12003
927.95	11950
928.056	12034
928.162	12095
928.267	11969
928.373	12601
928.479	12053
928.585	11745
928.69	11920
928.796	11931
928.901	11859
929.007	11752
929.112	11855
929.218	11707
929.323	11680
929.428	11680
929.533	11866
929.638	11623
929.743	11642
929.848	11649
929.953	11627
930.058	11554
930.163	11334
930.267	11341
930.372	11543
930.477	11376
930.581	11570
930.685	11478
930.79	11315
930.894	11322
930.998	11326
931.103	11440
931.207	11090
931.311	10957
931.415	10889
931.519	10725
931.623	10744
