Data from test_V78500241_231.txt Node
Date: Fri Mar 25 15:11:28 CST 2022
User: usil
Spectrometer: V785-0024
Trigger mode: 0
Integration Time (sec): 4.000000E-1
Scans to average: 1
Nonlinearity correction enabled: false
Boxcar width: 0
Storing dark spectrum: false
XAxis mode: Wavelengths
Number of Pixels in Spectrum: 1024
>>>>>Begin Spectral Data<<<<<
801.071	27515
801.214	27458
801.356	27169
801.499	27188
801.641	26990
801.783	27123
801.926	27070
802.068	27142
802.211	26967
802.353	27017
802.496	26746
802.638	26796
802.78	26617
802.923	26526
803.065	26587
803.208	26636
803.35	26568
803.492	26796
803.635	26792
803.777	26708
803.919	26925
804.061	26933
804.204	26910
804.346	26495
804.488	26632
804.63	26727
804.773	26674
804.915	26617
805.057	26815
805.199	26769
805.341	26670
805.483	26796
805.626	26716
805.768	26571
805.91	26826
806.052	26872
806.194	26773
806.336	27036
806.478	26781
806.62	26777
806.762	26876
806.904	26990
807.046	27321
807.188	27211
807.33	27192
807.472	27291
807.614	27180
807.756	27245
807.898	27081
808.04	26929
808.182	26994
808.324	27108
808.465	27116
808.607	27245
808.749	27401
808.891	27431
809.033	27542
809.174	27477
809.316	27351
809.458	27359
809.6	27408
809.741	27538
809.883	27408
810.025	27660
810.166	27709
810.308	27530
810.45	27534
810.591	27496
810.733	27336
810.875	27283
811.016	27272
811.158	27275
811.299	27401
811.441	27496
811.582	27439
811.724	27237
811.865	27237
812.007	27306
812.148	27332
812.29	27306
812.431	27454
812.573	27755
812.714	27679
812.855	27941
812.997	27892
813.138	28021
813.279	27934
813.421	27842
813.562	27880
813.703	27679
813.845	27652
813.986	27256
814.127	27176
814.268	27112
814.41	27096
814.551	26986
814.692	26986
814.833	26990
814.974	26986
815.115	26868
815.256	26830
815.397	26777
815.539	26739
815.68	26762
815.821	26731
815.962	26777
816.103	26655
816.244	26606
816.385	26499
816.526	26374
816.666	26229
816.807	26183
816.948	26161
817.089	26237
817.23	26130
817.371	26210
817.512	26259
817.653	26107
817.793	26031
817.934	26084
818.075	26164
818.216	26176
818.356	26077
818.497	26012
818.638	25894
818.778	25811
818.919	25978
819.06	25856
819.2	25902
819.341	26081
819.481	26142
819.622	26214
819.762	26415
819.903	26271
820.043	26252
820.184	26214
820.324	26115
820.465	26233
820.605	26271
820.746	26077
820.886	25947
821.026	26164
821.167	26126
821.307	26103
821.447	26069
821.588	26043
821.728	25947
821.868	25727
822.008	25415
822.149	25521
822.289	25544
822.429	25221
822.569	25129
822.709	25270
822.849	24935
822.99	25050
823.13	25019
823.27	24875
823.41	24833
823.55	24734
823.69	24825
823.83	24825
823.97	24681
824.11	24498
824.25	24532
824.389	24585
824.529	24825
824.669	24650
824.809	24760
824.949	24745
825.089	24589
825.228	24688
825.368	24528
825.508	24464
825.648	24494
825.787	24490
825.927	24544
826.067	24483
826.206	24334
826.346	24300
826.485	24513
826.625	24399
826.765	24505
826.904	24525
827.044	24216
827.183	24171
827.323	24018
827.462	24117
827.601	24125
827.741	24026
827.88	24209
828.02	23882
828.159	24038
828.298	24197
828.437	24110
828.577	24060
828.716	24201
828.855	23958
828.994	23817
829.134	23878
829.273	23794
829.412	23809
829.551	23741
829.69	23863
829.829	23783
829.968	23866
830.107	23756
830.246	23908
830.385	23859
830.524	23649
830.663	23611
830.802	23581
830.941	23444
831.08	23318
831.219	23417
831.357	23509
831.496	23539
831.635	23372
831.774	23318
831.913	23265
832.051	23296
832.19	23322
832.329	23181
832.467	23075
832.606	23003
832.744	22991
832.883	22968
833.022	22961
833.16	23064
833.299	22987
833.437	23102
833.576	23094
833.714	23166
833.852	23185
833.991	23140
834.129	23143
834.267	23170
834.406	22999
834.544	23223
834.682	23124
834.821	22987
834.959	23242
835.097	23044
835.235	23181
835.373	23003
835.511	23079
835.65	22934
835.788	22748
835.926	22816
836.064	22790
836.202	22668
836.34	23003
836.478	23094
836.615	22873
836.753	22873
836.891	23098
837.029	22915
837.167	22820
837.305	22782
837.443	22790
837.58	22721
837.718	22812
837.856	22637
837.993	22736
838.131	22733
838.269	22557
838.406	22710
838.544	22615
838.681	22310
838.819	22390
838.956	22200
839.094	22276
839.231	22284
839.369	22310
839.506	22645
839.643	22580
839.781	22261
839.918	22150
840.055	22131
840.193	22261
840.33	22135
840.467	22246
840.604	22166
840.742	22440
840.879	22128
841.016	22196
841.153	22044
841.29	22230
841.427	22238
841.564	22223
841.701	22112
841.838	22139
841.975	21949
842.112	22040
842.249	21926
842.385	21911
842.522	22025
842.659	21785
842.796	21842
842.933	21854
843.069	21785
843.206	21797
843.343	21953
843.479	21983
843.616	21949
843.752	21629
843.889	21614
844.025	21759
844.162	21526
844.298	21831
844.435	21648
844.571	21568
844.708	21625
844.844	21869
844.98	21724
845.117	21682
845.253	21629
845.389	21572
845.525	21538
845.661	21519
845.798	21374
845.934	21477
846.07	21298
846.206	21355
846.342	21454
846.478	21313
846.614	21165
846.75	21055
846.886	21066
847.022	21230
847.158	21127
847.294	21070
847.429	21157
847.565	21119
847.701	21279
847.837	20842
847.972	20811
848.108	20845
848.244	20807
848.379	20781
848.515	20727
848.65	20598
848.786	20678
848.921	20659
849.057	20830
849.192	20842
849.328	20746
849.463	20720
849.598	20708
849.734	20571
849.869	20556
850.004	20374
850.14	20495
850.275	20400
850.41	20377
850.545	20450
850.68	20442
850.815	20503
850.95	20389
851.085	20518
851.22	20594
851.355	20442
851.49	20370
851.625	20522
851.76	20343
851.895	20404
852.03	20347
852.165	20339
852.299	20537
852.434	20552
852.569	20492
852.703	20374
852.838	20503
852.973	20545
853.107	20571
853.242	20324
853.376	20237
853.511	20077
853.645	20233
853.78	20404
853.914	20252
854.048	20202
854.183	20267
854.317	20210
854.451	20457
854.585	20100
854.72	20149
854.854	20393
854.988	20157
855.122	20267
855.256	20031
855.39	20191
855.524	20244
855.658	20294
855.792	20240
855.926	20259
856.06	20366
856.194	20358
856.327	20195
856.461	20088
856.595	20180
856.729	20172
856.862	20305
856.996	20263
857.13	20286
857.263	20362
857.397	20278
857.53	20134
857.664	20221
857.797	20377
857.931	20396
858.064	20332
858.197	20290
858.331	20122
858.464	20233
858.597	20142
858.731	20244
858.864	20134
858.997	20214
859.13	20126
859.263	20195
859.396	20324
859.529	20206
859.662	20130
859.795	20168
859.928	20294
860.061	20294
860.194	20423
860.327	20259
860.46	20157
860.592	20248
860.725	20301
860.858	20191
860.99	20210
861.123	20024
861.256	20058
861.388	20122
861.521	20979
861.653	20001
861.786	20001
861.918	20134
862.05	20145
862.183	20202
862.315	20278
862.447	20275
862.58	20157
862.712	19944
862.844	19970
862.976	20054
863.108	20035
863.24	20438
863.372	19864
863.504	19841
863.636	19883
863.768	19989
863.9	19970
864.032	19814
864.164	19879
864.296	19864
864.428	19951
864.559	19970
864.691	20035
864.823	19955
864.954	19906
865.086	19917
865.217	19849
865.349	19791
865.48	19677
865.612	19769
865.743	19963
865.875	19864
866.006	19845
866.137	19830
866.269	19833
866.4	19803
866.531	19761
866.662	19742
866.793	19776
866.924	19750
867.055	19681
867.186	19719
867.317	19704
867.448	19594
867.579	19791
867.71	19704
867.841	19734
867.972	19693
868.103	19704
868.233	19746
868.364	19712
868.495	19814
868.625	19856
868.756	20008
868.886	19993
869.017	20001
869.147	20142
869.278	20180
869.408	19936
869.539	19906
869.669	20142
869.799	19997
869.929	20103
870.06	20088
870.19	20221
870.32	20229
870.45	20218
870.58	20389
870.71	20492
870.84	20533
870.97	20290
871.1	20400
871.23	20507
871.36	20518
871.489	20320
871.619	20594
871.749	20674
871.879	20640
872.008	20667
872.138	20461
872.267	20659
872.397	20370
872.526	20328
872.656	20389
872.785	20381
872.915	20473
873.044	20712
873.173	20701
873.303	20705
873.432	20708
873.561	20655
873.69	20640
873.819	20621
873.948	20731
874.077	20651
874.206	20484
874.335	20606
874.464	20636
874.593	20929
874.722	20804
874.851	20948
874.979	20899
875.108	20944
875.237	20800
875.365	20762
875.494	20899
875.623	20952
875.751	20750
875.88	20804
876.008	21020
876.136	21055
876.265	21211
876.393	21519
876.521	21313
876.65	21351
876.778	21306
876.906	21275
877.034	21199
877.162	21222
877.29	21214
877.418	21405
877.546	21268
877.674	21176
877.802	21199
877.93	21169
878.058	21195
878.185	21135
878.313	21230
878.441	21112
878.568	21104
878.696	21161
878.824	21154
878.951	21249
879.079	21408
879.206	21462
879.333	21367
879.461	21252
879.588	21450
879.715	21389
879.842	21374
879.97	21207
880.097	21017
880.224	21066
880.351	21013
880.478	20998
880.605	21032
880.732	20948
880.859	21374
880.986	21096
881.112	21047
881.239	20914
881.366	20864
881.493	20636
881.619	20621
881.746	20720
881.872	20629
881.999	20667
882.125	20674
882.252	20689
882.378	20720
882.505	20842
882.631	20522
882.757	20427
882.883	20427
883.01	20613
883.136	20275
883.262	20183
883.388	20351
883.514	20305
883.64	20366
883.766	20362
883.892	20240
884.018	20256
884.143	20256
884.269	20339
884.395	20005
884.52	20005
884.646	20024
884.772	20122
884.897	19845
885.023	20035
885.148	20050
885.274	20199
885.399	20100
885.524	19959
885.65	20058
885.775	20046
885.9	20016
886.025	20077
886.15	20142
886.275	19982
886.4	19986
886.525	19807
886.65	19894
886.775	19909
886.9	20187
887.025	20263
887.149	20024
887.274	19799
887.399	19719
887.523	19723
887.648	19799
887.773	19734
887.897	19784
888.021	19769
888.146	19700
888.27	19841
888.395	19845
888.519	19814
888.643	19856
888.767	19898
888.891	19681
889.015	19632
889.139	19651
889.263	19559
889.387	19685
889.511	19780
889.635	19791
889.759	19674
889.883	19666
890.006	19658
890.13	19651
890.254	19537
890.377	19533
890.501	19240
890.624	19293
890.748	19476
890.871	19209
890.995	19118
891.118	19034
891.241	19289
891.364	19202
891.488	19255
891.611	19183
891.734	19179
891.857	19247
891.98	19209
892.103	19164
892.226	19255
892.349	19133
892.471	19027
892.594	19050
892.717	19312
892.839	19126
892.962	19152
893.085	19164
893.207	19160
893.33	18905
893.452	18928
893.575	19126
893.697	18928
893.819	19202
893.941	19335
894.064	19164
894.186	19069
894.308	18970
894.43	19065
894.552	19297
894.674	19175
894.796	19000
894.918	19053
895.04	19050
895.161	19133
895.283	19107
895.405	19084
895.526	19069
895.648	19194
895.769	19183
895.891	19122
896.012	19129
896.134	19164
896.255	19168
896.376	18996
896.498	19152
896.619	19175
896.74	19088
896.861	19171
896.982	19525
897.103	19525
897.224	19457
897.345	19335
897.466	19343
897.587	19373
897.708	19373
897.828	19373
897.949	19346
898.07	19133
898.19	19270
898.311	19335
898.431	19285
898.552	19289
898.672	19445
898.792	19373
898.913	19354
899.033	19160
899.153	19053
899.273	18970
899.393	19046
899.513	19091
899.633	19168
899.753	19126
899.873	19000
899.993	19194
900.113	18985
900.232	19012
900.352	19027
900.472	18848
900.591	18829
900.711	18848
900.83	18867
900.95	18989
901.069	18962
901.189	18730
901.308	18616
901.427	18521
901.546	18498
901.665	18559
901.784	18521
901.904	18376
902.023	18350
902.141	18045
902.26	18079
902.379	18098
902.498	17980
902.617	18003
902.735	17977
902.854	17931
902.973	17973
903.091	17665
903.21	17600
903.328	17752
903.446	17627
903.565	17463
903.683	17474
903.801	17395
903.919	17440
904.038	17410
904.156	17368
904.274	17398
904.392	17170
904.51	17204
904.627	17265
904.745	17448
904.863	17254
904.981	17048
905.098	16930
905.216	16961
905.334	16972
905.451	16854
905.569	16908
905.686	16949
905.803	16847
905.921	16675
906.038	16805
906.155	16835
906.272	16672
906.389	16645
906.506	16596
906.623	16500
906.74	16512
906.857	16287
906.974	16489
907.091	16580
907.208	16603
907.324	16466
907.441	16428
907.557	16246
907.674	16169
907.79	16124
907.907	16150
908.023	16211
908.139	16135
908.256	16215
908.372	16040
908.488	16017
908.604	15812
908.72	15831
908.836	15907
908.952	15789
909.068	15922
909.184	16002
909.3	15880
909.415	15964
909.531	15816
909.647	15667
909.762	15637
909.878	15542
909.993	15629
910.108	15572
910.224	15587
910.339	15652
910.454	15526
910.57	15310
910.685	15329
910.8	15614
910.915	15587
911.03	15435
911.145	15268
911.259	15256
911.374	15169
911.489	15150
911.604	15108
911.718	14975
911.833	14998
911.947	14792
912.062	14765
912.176	14895
912.291	14891
912.405	14887
912.519	15051
912.633	15112
912.748	15009
912.862	14925
912.976	14807
913.09	14640
913.204	14712
913.318	14689
913.431	14853
913.545	14842
913.659	14872
913.772	14754
913.886	14621
914	14625
914.113	14655
914.226	14708
914.34	14632
914.453	14511
914.566	14549
914.68	14579
914.793	14457
914.906	14324
915.019	14195
915.132	14225
915.245	14294
915.358	14305
915.47	14221
915.583	14282
915.696	14252
915.809	14332
915.921	14419
916.034	14195
916.146	14050
916.259	14103
916.371	14256
916.483	14168
916.595	14020
916.708	14100
916.82	14062
916.932	14016
917.044	14046
917.156	14088
917.268	13909
917.38	13986
917.491	13913
917.603	13894
917.715	14008
917.826	14020
917.938	13879
918.049	13791
918.161	13902
918.272	14039
918.384	13986
918.495	13898
918.606	13700
918.717	13620
918.828	13647
918.939	13719
919.05	13609
919.161	13738
919.272	13453
919.383	13578
919.494	13731
919.604	13898
919.715	13586
919.826	13601
919.936	13639
920.047	13651
920.157	13662
920.267	13883
920.378	13689
920.488	13544
920.598	13841
920.708	13974
920.818	13795
920.928	13750
921.038	13830
921.148	13841
921.258	13696
921.368	13525
921.477	13529
921.587	13339
921.697	13384
921.806	13480
921.916	13278
922.025	13000
922.134	13031
922.244	12981
922.353	13107
922.462	12993
922.571	12882
922.68	12673
922.789	12768
922.898	12688
923.007	12684
923.116	12707
923.224	12620
923.333	12642
923.442	12555
923.55	12433
923.659	12585
923.767	12620
923.876	12467
923.984	12585
924.092	12429
924.201	12426
924.309	12395
924.417	12380
924.525	12376
924.633	12403
924.741	13228
924.849	12163
924.956	12315
925.064	12216
925.172	12155
925.279	12117
925.387	12277
925.494	12186
925.602	12300
925.709	12247
925.816	12087
925.924	12155
926.031	12205
926.138	12110
926.245	12133
926.352	12060
926.459	12171
926.566	12197
926.673	12060
926.779	11946
926.886	11912
926.993	11756
927.099	11794
927.206	11760
927.312	11699
927.419	11767
927.525	11779
927.631	11756
927.737	11619
927.843	11566
927.95	11520
928.056	11562
928.162	11615
928.267	11608
928.373	12087
928.479	11718
928.585	11410
928.69	11554
928.796	11615
928.901	11440
929.007	11337
929.112	11490
929.218	11402
929.323	11395
929.428	11284
929.533	11471
929.638	11231
929.743	11356
929.848	11395
929.953	11337
930.058	11075
930.163	11064
930.267	11094
930.372	11265
930.477	10949
930.581	11254
930.685	11181
930.79	10858
930.894	10949
930.998	10869
931.103	11067
931.207	10668
931.311	10500
931.415	10542
931.519	10253
931.623	10329
