Data from test_V78500241_2660.txt Node
Date: Fri Mar 25 15:28:22 CST 2022
User: usil
Spectrometer: V785-0024
Trigger mode: 0
Integration Time (sec): 4.000000E-1
Scans to average: 1
Nonlinearity correction enabled: false
Boxcar width: 0
Storing dark spectrum: false
XAxis mode: Wavelengths
Number of Pixels in Spectrum: 1024
>>>>>Begin Spectral Data<<<<<
801.071	26857
801.214	26823
801.356	26617
801.499	26473
801.641	26404
801.783	26320
801.926	26442
802.068	26381
802.211	26332
802.353	26244
802.496	26012
802.638	25966
802.78	26081
802.923	25849
803.065	25928
803.208	25970
803.35	25959
803.492	26062
803.635	26229
803.777	26001
803.919	26153
804.061	26446
804.204	26202
804.346	26001
804.488	26168
804.63	26119
804.773	26054
804.915	26058
805.057	26278
805.199	26145
805.341	26126
805.483	26358
805.626	26282
805.768	26103
805.91	26233
806.052	26252
806.194	26191
806.336	26419
806.478	26339
806.62	26229
806.762	26313
806.904	26571
807.046	26743
807.188	26625
807.33	26655
807.472	26754
807.614	26587
807.756	26579
807.898	26530
808.04	26351
808.182	26499
808.324	26594
808.465	26621
808.607	26754
808.749	26823
808.891	27005
809.033	27024
809.174	26861
809.316	26861
809.458	26800
809.6	26883
809.741	26842
809.883	27005
810.025	27123
810.166	27089
810.308	27116
810.45	27047
810.591	26986
810.733	26940
810.875	26739
811.016	26769
811.158	26689
811.299	26925
811.441	27150
811.582	27036
811.724	26796
811.865	26910
812.007	26785
812.148	26693
812.29	26811
812.431	26979
812.573	27127
812.714	27100
812.855	27199
812.997	27332
813.138	27386
813.279	27298
813.421	27317
813.562	27214
813.703	27081
813.845	27028
813.986	26727
814.127	26640
814.268	26579
814.41	26469
814.551	26259
814.692	26526
814.833	26374
814.974	26404
815.115	26587
815.256	26267
815.397	26453
815.539	26419
815.68	26320
815.821	26168
815.962	26218
816.103	26153
816.244	26103
816.385	26081
816.526	26005
816.666	25852
816.807	25696
816.948	25772
817.089	25894
817.23	25696
817.371	25750
817.512	25712
817.653	25525
817.793	25582
817.934	25712
818.075	25750
818.216	25712
818.356	25681
818.497	25590
818.638	25426
818.778	25422
818.919	25365
819.06	25441
819.2	25464
819.341	25666
819.481	25597
819.622	25830
819.762	26130
819.903	26008
820.043	25917
820.184	25753
820.324	25772
820.465	25913
820.605	25795
820.746	25833
820.886	25620
821.026	25803
821.167	25734
821.307	25776
821.447	25620
821.588	25518
821.728	25521
821.868	25282
822.008	25065
822.149	25076
822.289	25187
822.429	24848
822.569	24837
822.709	24909
822.849	24536
822.99	24738
823.13	24616
823.27	24551
823.41	24475
823.55	24384
823.69	24486
823.83	24517
823.97	24334
824.11	24163
824.25	24220
824.389	24300
824.529	24281
824.669	24369
824.809	24338
824.949	24372
825.089	24334
825.228	24270
825.368	24038
825.508	24266
825.648	24053
825.787	24232
825.927	24220
826.067	24125
826.206	24201
826.346	24213
826.485	24273
826.625	24125
826.765	24426
826.904	24201
827.044	23927
827.183	24022
827.323	23764
827.462	23961
827.601	23882
827.741	23779
827.88	23973
828.02	23798
828.159	23847
828.298	23874
828.437	24003
828.577	23828
828.716	24060
828.855	23832
828.994	23589
829.134	23668
829.273	23741
829.412	23535
829.551	23516
829.69	23661
829.829	23634
829.968	23733
830.107	23779
830.246	23638
830.385	23604
830.524	23463
830.663	23493
830.802	23353
830.941	23353
831.08	23299
831.219	23345
831.357	23277
831.496	23482
831.635	23239
831.774	23098
831.913	22980
832.051	23010
832.19	22934
832.329	22995
832.467	23064
832.606	22862
832.744	22847
832.883	22919
833.022	22820
833.16	22892
833.299	22923
833.437	22911
833.576	22930
833.714	22873
833.852	22949
833.991	22915
834.129	23025
834.267	22934
834.406	22908
834.544	22984
834.682	23025
834.821	22980
834.959	23037
835.097	22961
835.235	23090
835.373	22987
835.511	22930
835.65	22831
835.788	22885
835.926	22694
836.064	22626
836.202	22691
836.34	22866
836.478	22866
836.615	22797
836.753	22824
836.891	22862
837.029	22953
837.167	22698
837.305	22820
837.443	22778
837.58	22637
837.718	22622
837.856	22634
837.993	22550
838.131	22596
838.269	22554
838.406	22561
838.544	22405
838.681	22379
838.819	22322
838.956	22078
839.094	22173
839.231	22154
839.369	22344
839.506	22561
839.643	22432
839.781	22086
839.918	22112
840.055	22162
840.193	22120
840.33	22048
840.467	22093
840.604	22211
840.742	22344
840.879	21964
841.016	22040
841.153	22029
841.29	22147
841.427	22078
841.564	22109
841.701	22074
841.838	22048
841.975	21915
842.112	21964
842.249	22044
842.385	21903
842.522	22181
842.659	22051
842.796	21766
842.933	21888
843.069	21747
843.206	21850
843.343	21842
843.479	21884
843.616	21804
843.752	21625
843.889	21629
844.025	21732
844.162	21511
844.298	21679
844.435	21728
844.571	21511
844.708	21610
844.844	21827
844.98	21698
845.117	21671
845.253	21576
845.389	21420
845.525	21485
845.661	21511
845.798	21310
845.934	21431
846.07	21252
846.206	21374
846.342	21561
846.478	21283
846.614	21127
846.75	20971
846.886	21013
847.022	21119
847.158	21165
847.294	21085
847.429	21165
847.565	21024
847.701	21279
847.837	20830
847.972	20701
848.108	20933
848.244	20796
848.379	20758
848.515	20606
848.65	20769
848.786	20743
848.921	20800
849.057	20857
849.192	20693
849.328	20629
849.463	20705
849.598	20686
849.734	20476
849.869	20518
850.004	20465
850.14	20518
850.275	20393
850.41	20434
850.545	20389
850.68	20309
850.815	20454
850.95	20473
851.085	20617
851.22	20438
851.355	20526
851.49	20400
851.625	20457
851.76	20419
851.895	20347
852.03	20446
852.165	20415
852.299	20412
852.434	20526
852.569	20549
852.703	20454
852.838	20602
852.973	20461
853.107	20530
853.242	20492
853.376	20282
853.511	20122
853.645	20240
853.78	20408
853.914	20374
854.048	20305
854.183	20233
854.317	20305
854.451	20571
854.585	20263
854.72	20271
854.854	20389
854.988	20240
855.122	20366
855.256	20126
855.39	20317
855.524	20419
855.658	20252
855.792	20229
855.926	20351
856.06	20275
856.194	20404
856.327	20305
856.461	20214
856.595	20301
856.729	20218
856.862	20438
856.996	20271
857.13	20324
857.263	20476
857.397	20339
857.53	20214
857.664	20309
857.797	20351
857.931	20267
858.064	20415
858.197	20423
858.331	20210
858.464	20248
858.597	20218
858.731	20256
858.864	20263
858.997	20252
859.13	20237
859.263	20202
859.396	20442
859.529	20233
859.662	20164
859.795	20244
859.928	20294
860.061	20347
860.194	20484
860.327	20415
860.46	20050
860.592	20347
860.725	20488
860.858	20484
860.99	20301
861.123	20225
861.256	20122
861.388	20275
861.521	20876
861.653	20214
861.786	20054
861.918	20081
862.05	20107
862.183	20282
862.315	20225
862.447	20294
862.58	20229
862.712	20054
862.844	20043
862.976	19989
863.108	20020
863.24	20438
863.372	19955
863.504	20058
863.636	19947
863.768	20088
863.9	19963
864.032	20012
864.164	19932
864.296	20073
864.428	20103
864.559	20039
864.691	20046
864.823	20031
864.954	19883
865.086	19959
865.217	19921
865.349	19894
865.48	19883
865.612	19803
865.743	19982
865.875	19997
866.006	19909
866.137	20012
866.269	19803
866.4	19925
866.531	19860
866.662	19712
866.793	19883
866.924	19830
867.055	19871
867.186	19951
867.317	19814
867.448	19818
867.579	19799
867.71	19780
867.841	19795
867.972	19932
868.103	19871
868.233	19852
868.364	19769
868.495	19936
868.625	20069
868.756	20176
868.886	20054
869.017	19974
869.147	20134
869.278	20073
869.408	20058
869.539	20195
869.669	20168
869.799	20138
869.929	20374
870.06	20202
870.19	20507
870.32	20355
870.45	20404
870.58	20492
870.71	20495
870.84	20461
870.97	20442
871.1	20480
871.23	20651
871.36	20590
871.489	20629
871.619	20724
871.749	20663
871.879	20667
872.008	20644
872.138	20621
872.267	20807
872.397	20579
872.526	20434
872.656	20530
872.785	20613
872.915	20727
873.044	20830
873.173	20705
873.303	20765
873.432	20746
873.561	20785
873.69	20667
873.819	20788
873.948	20750
874.077	20830
874.206	20640
874.335	20758
874.464	20857
874.593	21017
874.722	20811
874.851	21036
874.979	20929
875.108	21058
875.237	20944
875.365	20891
875.494	20937
875.623	21009
875.751	20921
875.88	20998
876.008	21135
876.136	21180
876.265	21317
876.393	21519
876.521	21443
876.65	21378
876.778	21466
876.906	21310
877.034	21214
877.162	21332
877.29	21233
877.418	21420
877.546	21374
877.674	21420
877.802	21313
877.93	21214
878.058	21252
878.185	21157
878.313	21252
878.441	21428
878.568	21241
878.696	21233
878.824	21348
878.951	21500
879.079	21587
879.206	21603
879.333	21420
879.461	21302
879.588	21401
879.715	21481
879.842	21405
879.97	21389
880.097	21154
880.224	21169
880.351	21180
880.478	21252
880.605	21066
880.732	21180
880.859	21359
880.986	21116
881.112	21112
881.239	20963
881.366	20914
881.493	20720
881.619	20739
881.746	20773
881.872	20621
881.999	20648
882.125	20712
882.252	20682
882.378	20651
882.505	20883
882.631	20526
882.757	20446
882.883	20526
883.01	20370
883.136	20381
883.262	20377
883.388	20351
883.514	20484
883.64	20423
883.766	20370
883.892	20168
884.018	20339
884.143	20415
884.269	20427
884.395	20084
884.52	20122
884.646	20145
884.772	20024
884.897	20058
885.023	20092
885.148	20138
885.274	20210
885.399	20145
885.524	20054
885.65	20168
885.775	20138
885.9	20195
886.025	20305
886.15	20149
886.275	19997
886.4	19974
886.525	20164
886.65	19982
886.775	20058
886.9	20240
887.025	20377
887.149	20107
887.274	19757
887.399	19837
887.523	19917
887.648	19906
887.773	19799
887.897	20046
888.021	19932
888.146	19906
888.27	19986
888.395	19917
888.519	19902
888.643	19917
888.767	19898
888.891	19788
889.015	19677
889.139	19731
889.263	19632
889.387	19776
889.511	19826
889.635	19849
889.759	19571
889.883	19658
890.006	19635
890.13	19753
890.254	19586
890.377	19487
890.501	19403
890.624	19343
890.748	19460
890.871	19324
890.995	19228
891.118	19072
891.241	19202
891.364	19293
891.488	19419
891.611	19213
891.734	19251
891.857	19327
891.98	19270
892.103	19358
892.226	19232
892.349	19156
892.471	19031
892.594	19244
892.717	19247
892.839	19225
892.962	19221
893.085	19270
893.207	19072
893.33	19187
893.452	19099
893.575	19202
893.697	19019
893.819	19343
893.941	19441
894.064	19312
894.186	19114
894.308	19107
894.43	19255
894.552	19293
894.674	19331
894.796	19145
894.918	19244
895.04	19156
895.161	19183
895.283	19297
895.405	19183
895.526	19187
895.648	19114
895.769	19225
895.891	19247
896.012	19384
896.134	19327
896.255	19160
896.376	19107
896.498	19137
896.619	19251
896.74	19187
896.861	19343
896.982	19529
897.103	19666
897.224	19350
897.345	19381
897.466	19346
897.587	19312
897.708	19548
897.828	19540
897.949	19419
898.07	19354
898.19	19392
898.311	19556
898.431	19438
898.552	19407
898.672	19476
898.792	19441
898.913	19529
899.033	19388
899.153	19247
899.273	19259
899.393	19164
899.513	19270
899.633	19175
899.753	19274
899.873	19137
899.993	19160
900.113	19126
900.232	19217
900.352	19168
900.472	18989
900.591	18962
900.711	19061
900.83	18962
900.95	19091
901.069	19000
901.189	18726
901.308	18688
901.427	18604
901.546	18563
901.665	18658
901.784	18601
901.904	18452
902.023	18277
902.141	18102
902.26	18220
902.379	18155
902.498	18041
902.617	18060
902.735	18133
902.854	18114
902.973	17969
903.091	17847
903.21	17805
903.328	17847
903.446	17630
903.565	17535
903.683	17707
903.801	17455
903.919	17619
904.038	17425
904.156	17410
904.274	17444
904.392	17379
904.51	17288
904.627	17425
904.745	17425
904.863	17459
904.981	17288
905.098	16949
905.216	16965
905.334	17204
905.451	17003
905.569	16984
905.686	17128
905.803	17022
905.921	16793
906.038	16946
906.155	16843
906.272	16793
906.389	16793
906.506	16580
906.623	16618
906.74	16542
906.857	16455
906.974	16489
907.091	16569
907.208	16733
907.324	16637
907.441	16558
907.557	16284
907.674	16356
907.79	16367
907.907	16280
908.023	16333
908.139	16295
908.256	16226
908.372	16375
908.488	16150
908.604	16032
908.72	16086
908.836	16101
908.952	16010
909.068	16055
909.184	16097
909.3	16055
909.415	16017
909.531	15983
909.647	15823
909.762	15835
909.878	15755
909.993	15854
910.108	15622
910.224	15648
910.339	15781
910.454	15663
910.57	15599
910.685	15542
910.8	15812
910.915	15705
911.03	15496
911.145	15466
911.259	15378
911.374	15233
911.489	15344
911.604	15268
911.718	15074
911.833	15207
911.947	15123
912.062	15032
912.176	15184
912.291	15150
912.405	15104
912.519	15317
912.633	15249
912.748	15195
912.862	15119
912.976	14971
913.09	14819
913.204	14914
913.318	14963
913.431	15097
913.545	15085
913.659	15047
913.772	14887
913.886	14762
914	14811
914.113	14819
914.226	14883
914.34	14842
914.453	14720
914.566	14746
914.68	14644
914.793	14678
914.906	14465
915.019	14324
915.132	14206
915.245	14438
915.358	14389
915.47	14396
915.583	14305
915.696	14347
915.809	14419
915.921	14564
916.034	14328
916.146	14263
916.259	14168
916.371	14381
916.483	14347
916.595	14298
916.708	14187
916.82	14210
916.932	14210
917.044	14221
917.156	14115
917.268	14043
917.38	14107
917.491	14138
917.603	14043
917.715	14107
917.826	14199
917.938	14031
918.049	13925
918.161	14043
918.272	14142
918.384	14164
918.495	14035
918.606	13879
918.717	13807
918.828	13936
918.939	13978
919.05	13776
919.161	13761
919.272	13662
919.383	13731
919.494	13868
919.604	14005
919.715	13875
919.826	13791
919.936	13799
920.047	13932
920.157	13883
920.267	14008
920.378	13833
920.488	13704
920.598	13951
920.708	14092
920.818	14020
920.928	13993
921.038	14096
921.148	13970
921.258	13761
921.368	13636
921.477	13556
921.587	13540
921.697	13460
921.806	13609
921.916	13438
922.025	13331
922.134	13259
922.244	13225
922.353	13149
922.462	13099
922.571	13069
922.68	12989
922.789	12882
922.898	12951
923.007	12768
923.116	13023
923.224	12886
923.333	12776
923.442	12688
923.55	12703
923.659	12772
923.767	12852
923.876	12665
923.984	12783
924.092	12593
924.201	12715
924.309	12635
924.417	12532
924.525	12513
924.633	12646
924.741	13415
924.849	12334
924.956	12475
925.064	12353
925.172	12357
925.279	12334
925.387	12330
925.494	12346
925.602	12448
925.709	12369
925.816	12327
925.924	12144
926.031	12403
926.138	12258
926.245	12300
926.352	12190
926.459	12319
926.566	12357
926.673	12213
926.779	12060
926.886	12091
926.993	11980
927.099	11897
927.206	11840
927.312	11863
927.419	11908
927.525	11912
927.631	11954
927.737	11798
927.843	11752
927.95	11657
928.056	11737
928.162	11798
928.267	11767
928.373	12308
928.479	11847
928.585	11551
928.69	11726
928.796	11745
928.901	11627
929.007	11501
929.112	11653
929.218	11547
929.323	11535
929.428	11478
929.533	11592
929.638	11444
929.743	11444
929.848	11471
929.953	11406
930.058	11326
930.163	11273
930.267	11132
930.372	11372
930.477	11136
930.581	11448
930.685	11189
930.79	11022
930.894	11132
930.998	11041
931.103	11193
931.207	10881
931.311	10793
931.415	10672
931.519	10436
931.623	10516
