Data from test_V78500241_2036.txt Node
Date: Fri Mar 25 15:24:02 CST 2022
User: usil
Spectrometer: V785-0024
Trigger mode: 0
Integration Time (sec): 4.000000E-1
Scans to average: 1
Nonlinearity correction enabled: false
Boxcar width: 0
Storing dark spectrum: false
XAxis mode: Wavelengths
Number of Pixels in Spectrum: 1024
>>>>>Begin Spectral Data<<<<<
801.071	27869
801.214	27622
801.356	27587
801.499	27542
801.641	27287
801.783	27279
801.926	27355
802.068	27355
802.211	27249
802.353	27184
802.496	26963
802.638	27051
802.78	27047
802.923	27005
803.065	26876
803.208	27009
803.35	27051
803.492	27169
803.635	27264
803.777	26998
803.919	27176
804.061	27644
804.204	27192
804.346	27127
804.488	27104
804.63	27294
804.773	27127
804.915	27104
805.057	27226
805.199	27154
805.341	27317
805.483	27336
805.626	27325
805.768	27081
805.91	27291
806.052	27283
806.194	27131
806.336	27466
806.478	27256
806.62	27302
806.762	27389
806.904	27515
807.046	27850
807.188	27698
807.33	27644
807.472	27622
807.614	27648
807.756	27698
807.898	27469
808.04	27534
808.182	27644
808.324	27519
808.465	27663
808.607	27857
808.749	27983
808.891	28147
809.033	28078
809.174	27987
809.316	27842
809.458	27876
809.6	27895
809.741	28078
809.883	28025
810.025	28375
810.166	28276
810.308	28185
810.45	28150
810.591	28169
810.733	28154
810.875	27945
811.016	27838
811.158	27770
811.299	27949
811.441	27979
811.582	28017
811.724	27937
811.865	27926
812.007	27774
812.148	27827
812.29	27934
812.431	28154
812.573	28265
812.714	28303
812.855	28424
812.997	28489
813.138	28634
813.279	28599
813.421	28470
813.562	28337
813.703	28215
813.845	28230
813.986	27800
814.127	27724
814.268	27603
814.41	27603
814.551	27675
814.692	27663
814.833	27614
814.974	27500
815.115	27671
815.256	27507
815.397	27500
815.539	27583
815.68	27374
815.821	27355
815.962	27340
816.103	27207
816.244	27291
816.385	27256
816.526	27112
816.666	27032
816.807	26940
816.948	26925
817.089	27024
817.23	26872
817.371	26853
817.512	26887
817.653	26906
817.793	26872
817.934	26887
818.075	26667
818.216	26902
818.356	26864
818.497	26823
818.638	26598
818.778	26625
818.919	26743
819.06	26724
819.2	26815
819.341	26853
819.481	26902
819.622	27020
819.762	27348
819.903	27142
820.043	27165
820.184	26960
820.324	27009
820.465	27039
820.605	27093
820.746	26975
820.886	26960
821.026	26834
821.167	26887
821.307	27043
821.447	26948
821.588	26838
821.728	26754
821.868	26389
822.008	26450
822.149	26324
822.289	26419
822.429	26168
822.569	26035
822.709	26054
822.849	25887
822.99	26035
823.13	25803
823.27	25803
823.41	25704
823.55	25578
823.69	25826
823.83	25647
823.97	25597
824.11	25571
824.25	25354
824.389	25552
824.529	25419
824.669	25544
824.809	25635
824.949	25479
825.089	25529
825.228	25704
825.368	25377
825.508	25362
825.648	25354
825.787	25430
825.927	25396
826.067	25346
826.206	25343
826.346	25441
826.485	25403
826.625	25255
826.765	25430
826.904	25350
827.044	25148
827.183	25221
827.323	25076
827.462	25076
827.601	25080
827.741	25069
827.88	25103
828.02	24924
828.159	25084
828.298	25152
828.437	25198
828.577	24943
828.716	25152
828.855	25012
828.994	24821
829.134	24840
829.273	24787
829.412	24852
829.551	24673
829.69	24928
829.829	24916
829.968	24871
830.107	24825
830.246	24806
830.385	24661
830.524	24585
830.663	24498
830.802	24574
830.941	24483
831.08	24281
831.219	24426
831.357	24525
831.496	24498
831.635	24410
831.774	24277
831.913	24209
832.051	24228
832.19	24270
832.329	24205
832.467	24114
832.606	24057
832.744	24011
832.883	24087
833.022	24034
833.16	23927
833.299	24209
833.437	24038
833.576	24239
833.714	24121
833.852	24224
833.991	24102
834.129	24296
834.267	24281
834.406	24148
834.544	24140
834.682	24266
834.821	24129
834.959	24247
835.097	23988
835.235	24205
835.373	23984
835.511	24152
835.65	24011
835.788	23916
835.926	23931
836.064	23802
836.202	23893
836.34	23931
836.478	24121
836.615	23996
836.753	23882
836.891	24053
837.029	24098
837.167	23923
837.305	23798
837.443	23779
837.58	23805
837.718	23878
837.856	23741
837.993	23642
838.131	23840
838.269	23543
838.406	23745
838.544	23684
838.681	23459
838.819	23520
838.956	23189
839.094	23223
839.231	23246
839.369	23516
839.506	23707
839.643	23486
839.781	23265
839.918	23326
840.055	23216
840.193	23330
840.33	23181
840.467	23151
840.604	23288
840.742	23429
840.879	23109
841.016	23071
841.153	23174
841.29	23170
841.427	23235
841.564	23250
841.701	23094
841.838	23048
841.975	23060
842.112	23159
842.249	23006
842.385	22828
842.522	23140
842.659	23033
842.796	22968
842.933	22968
843.069	22782
843.206	22900
843.343	22968
843.479	22946
843.616	23033
843.752	22755
843.889	22790
844.025	22828
844.162	22820
844.298	22812
844.435	22801
844.571	22565
844.708	22759
844.844	22938
844.98	22919
845.117	22866
845.253	22630
845.389	22569
845.525	22615
845.661	22596
845.798	22382
845.934	22523
846.07	22440
846.206	22455
846.342	22516
846.478	22462
846.614	22276
846.75	22147
846.886	22135
847.022	22291
847.158	22242
847.294	22242
847.429	22219
847.565	22074
847.701	22459
847.837	21972
847.972	21873
848.108	22032
848.244	22055
848.379	21903
848.515	21762
848.65	21770
848.786	21880
848.921	21755
849.057	21755
849.192	21808
849.328	21865
849.463	21880
849.598	21679
849.734	21770
849.869	21759
850.004	21420
850.14	21698
850.275	21618
850.41	21511
850.545	21485
850.68	21370
850.815	21644
850.95	21530
851.085	21720
851.22	21762
851.355	21614
851.49	21412
851.625	21454
851.76	21481
851.895	21542
852.03	21557
852.165	21431
852.299	21644
852.434	21603
852.569	21545
852.703	21572
852.838	21637
852.973	21648
853.107	21660
853.242	21485
853.376	21382
853.511	21298
853.645	21348
853.78	21344
853.914	21412
854.048	21291
854.183	21268
854.317	21431
854.451	21564
854.585	21291
854.72	21359
854.854	21435
854.988	21161
855.122	21439
855.256	21260
855.39	21359
855.524	21386
855.658	21363
855.792	21378
855.926	21447
856.06	21370
856.194	21439
856.327	21279
856.461	21329
856.595	21291
856.729	21424
856.862	21511
856.996	21435
857.13	21412
857.263	21462
857.397	21332
857.53	21496
857.664	21454
857.797	21420
857.931	21557
858.064	21321
858.197	21545
858.331	21431
858.464	21214
858.597	21325
858.731	21336
858.864	21386
858.997	21374
859.13	21378
859.263	21165
859.396	21511
859.529	21321
859.662	21294
859.795	21325
859.928	21272
860.061	21599
860.194	21534
860.327	21488
860.46	21397
860.592	21420
860.725	21416
860.858	21606
860.99	21363
861.123	21351
861.256	21268
861.388	21408
861.521	22070
861.653	21184
861.786	21100
861.918	21214
862.05	21245
862.183	21306
862.315	21431
862.447	21336
862.58	21469
862.712	21020
862.844	21028
862.976	21119
863.108	21096
863.24	21401
863.372	21066
863.504	20990
863.636	21096
863.768	21226
863.9	21123
864.032	20998
864.164	20979
864.296	21005
864.428	21218
864.559	21108
864.691	21028
864.823	21100
864.954	21173
865.086	21127
865.217	21116
865.349	20906
865.48	20887
865.612	21077
865.743	21096
865.875	20982
866.006	20929
866.137	20986
866.269	20971
866.4	20819
866.531	20925
866.662	20857
866.793	20765
866.924	20857
867.055	20826
867.186	20948
867.317	20826
867.448	20758
867.579	20796
867.71	20777
867.841	20807
867.972	20925
868.103	20796
868.233	20941
868.364	20883
868.495	20998
868.625	21077
868.756	21222
868.886	20990
869.017	21195
869.147	21256
869.278	21306
869.408	21165
869.539	21203
869.669	21188
869.799	21142
869.929	21291
870.06	21264
870.19	21443
870.32	21363
870.45	21473
870.58	21545
870.71	21637
870.84	21675
870.97	21500
871.1	21603
871.23	21747
871.36	21778
871.489	21705
871.619	21759
871.749	21751
871.879	21774
872.008	21895
872.138	21690
872.267	21709
872.397	21530
872.526	21496
872.656	21435
872.785	21553
872.915	21751
873.044	21892
873.173	21671
873.303	21804
873.432	21842
873.561	21880
873.69	21713
873.819	21709
873.948	21770
874.077	21922
874.206	21751
874.335	21717
874.464	21892
874.593	22040
874.722	21755
874.851	22013
874.979	21987
875.108	21873
875.237	21884
875.365	21861
875.494	21873
875.623	22002
875.751	21983
875.88	21979
876.008	22067
876.136	22238
876.265	22455
876.393	22561
876.521	22390
876.65	22462
876.778	22554
876.906	22268
877.034	22276
877.162	22261
877.29	22341
877.418	22299
877.546	22379
877.674	22348
877.802	22310
877.93	22337
878.058	22341
878.185	22238
878.313	22310
878.441	22291
878.568	22055
878.696	22253
878.824	22459
878.951	22443
879.079	22455
879.206	22641
879.333	22557
879.461	22325
879.588	22363
879.715	22535
879.842	22656
879.97	22413
880.097	22173
880.224	22097
880.351	22109
880.478	22211
880.605	22131
880.732	22078
880.859	22352
880.986	22185
881.112	22112
881.239	21903
881.366	21964
881.493	21789
881.619	21724
881.746	21789
881.872	21671
881.999	21641
882.125	21694
882.252	21720
882.378	21743
882.505	21842
882.631	21519
882.757	21454
882.883	21534
883.01	21526
883.136	21283
883.262	21260
883.388	21264
883.514	21310
883.64	21496
883.766	21340
883.892	21192
884.018	21131
884.143	21481
884.269	21469
884.395	21104
884.52	21074
884.646	21100
884.772	20971
884.897	20925
885.023	21047
885.148	21176
885.274	21169
885.399	21085
885.524	21203
885.65	21047
885.775	21032
885.9	21074
886.025	21203
886.15	21154
886.275	21062
886.4	20979
886.525	20975
886.65	21112
886.775	20994
886.9	21017
887.025	21306
887.149	21074
887.274	20861
887.399	20716
887.523	20948
887.648	20830
887.773	20724
887.897	20887
888.021	20800
888.146	20758
888.27	20944
888.395	20899
888.519	20933
888.643	20849
888.767	21005
888.891	20682
889.015	20640
889.139	20708
889.263	20636
889.387	20769
889.511	20853
889.635	20781
889.759	20663
889.883	20545
890.006	20701
890.13	20636
890.254	20632
890.377	20495
890.501	20499
890.624	20385
890.748	20412
890.871	20088
890.995	20111
891.118	20161
891.241	20183
891.364	20252
891.488	20320
891.611	20210
891.734	20218
891.857	20275
891.98	20031
892.103	20282
892.226	20111
892.349	20225
892.471	20001
892.594	20046
892.717	20115
892.839	20172
892.962	20084
893.085	20214
893.207	20126
893.33	19944
893.452	20142
893.575	20142
893.697	20058
893.819	20298
893.941	20278
894.064	20218
894.186	20039
894.308	20035
894.43	20168
894.552	20263
894.674	20164
894.796	19997
894.918	20161
895.04	20138
895.161	20084
895.283	20062
895.405	20024
895.526	20096
895.648	19974
895.769	19989
895.891	20149
896.012	20153
896.134	20252
896.255	20195
896.376	20039
896.498	20153
896.619	20145
896.74	20084
896.861	20126
896.982	20271
897.103	20602
897.224	20473
897.345	20282
897.466	20282
897.587	20298
897.708	20385
897.828	20366
897.949	20263
898.07	20161
898.19	20195
898.311	20469
898.431	20252
898.552	20336
898.672	20358
898.792	20427
898.913	20256
899.033	20161
899.153	20187
899.273	20046
899.393	20153
899.513	19936
899.633	20084
899.753	20122
899.873	20043
899.993	20062
900.113	20005
900.232	20008
900.352	19928
900.472	19845
900.591	19852
900.711	19887
900.83	19818
900.95	19871
901.069	19921
901.189	19662
901.308	19540
901.427	19571
901.546	19453
901.665	19438
901.784	19518
901.904	19308
902.023	19145
902.141	18977
902.26	18981
902.379	18993
902.498	18958
902.617	18962
902.735	18958
902.854	18993
902.973	18798
903.091	18589
903.21	18639
903.328	18597
903.446	18494
903.565	18448
903.683	18494
903.801	18433
903.919	18525
904.038	18388
904.156	18194
904.274	18338
904.392	18148
904.51	18110
904.627	18205
904.745	18171
904.863	18209
904.981	17942
905.098	17863
905.216	17904
905.334	17897
905.451	17817
905.569	17935
905.686	17908
905.803	17821
905.921	17596
906.038	17764
906.155	17665
906.272	17592
906.389	17520
906.506	17406
906.623	17368
906.74	17387
906.857	17208
906.974	17296
907.091	17341
907.208	17471
907.324	17501
907.441	17311
907.557	17094
907.674	17037
907.79	17029
907.907	17033
908.023	17067
908.139	17006
908.256	17048
908.372	17090
908.488	16961
908.604	16824
908.72	16828
908.836	16767
908.952	16858
909.068	16828
909.184	16873
909.3	16782
909.415	16820
909.531	16771
909.647	16672
909.762	16580
909.878	16493
909.993	16603
910.108	16569
910.224	16413
910.339	16462
910.454	16394
910.57	16284
910.685	16226
910.8	16596
910.915	16440
911.03	16322
911.145	16086
911.259	16207
911.374	16105
911.489	16051
911.604	16040
911.718	15865
911.833	15911
911.947	15713
912.062	15576
912.176	15876
912.291	15774
912.405	15876
912.519	16017
912.633	15998
912.748	15827
912.862	15842
912.976	15713
913.09	15606
913.204	15656
913.318	15751
913.431	15694
913.545	15812
913.659	15846
913.772	15694
913.886	15595
914	15488
914.113	15553
914.226	15610
914.34	15504
914.453	15351
914.566	15545
914.68	15401
914.793	15397
914.906	15214
915.019	15222
915.132	14979
915.245	15104
915.358	15157
915.47	15192
915.583	15108
915.696	15180
915.809	15283
915.921	15195
916.034	15066
916.146	15074
916.259	15028
916.371	15222
916.483	15062
916.595	14971
916.708	14963
916.82	14952
916.932	14914
917.044	14895
917.156	14899
917.268	14762
917.38	14834
917.491	14773
917.603	14804
917.715	14876
917.826	14842
917.938	14785
918.049	14659
918.161	14758
918.272	14796
918.384	14872
918.495	14651
918.606	14598
918.717	14541
918.828	14545
918.939	14590
919.05	14484
919.161	14511
919.272	14343
919.383	14423
919.494	14507
919.604	14758
919.715	14556
919.826	14434
919.936	14438
920.047	14545
920.157	14514
920.267	14773
920.378	14537
920.488	14526
920.598	14674
920.708	14845
920.818	14678
920.928	14636
921.038	14777
921.148	14765
921.258	14476
921.368	14423
921.477	14263
921.587	14256
921.697	14065
921.806	14278
921.916	14138
922.025	13928
922.134	13993
922.244	13845
922.353	13913
922.462	13738
922.571	13769
922.68	13502
922.789	13540
922.898	13491
923.007	13464
923.116	13540
923.224	13434
923.333	13525
923.442	13430
923.55	13377
923.659	13388
923.767	13495
923.876	13346
923.984	13384
924.092	13285
924.201	13377
924.309	13324
924.417	13255
924.525	13209
924.633	13266
924.741	13970
924.849	12996
924.956	13160
925.064	13034
925.172	12935
925.279	12935
925.387	12985
925.494	12905
925.602	13027
925.709	12966
925.816	12825
925.924	12935
926.031	12905
926.138	12871
926.245	12966
926.352	12814
926.459	12890
926.566	13031
926.673	12772
926.779	12760
926.886	12684
926.993	12608
927.099	12445
927.206	12429
927.312	12475
927.419	12536
927.525	12490
927.631	12540
927.737	12445
927.843	12361
927.95	12251
928.056	12296
928.162	12369
928.267	12357
928.373	13015
928.479	12384
928.585	12155
928.69	12281
928.796	12384
928.901	12163
929.007	12095
929.112	12182
929.218	12041
929.323	12053
929.428	12026
929.533	12216
929.638	11897
929.743	12011
929.848	12060
929.953	11996
930.058	11931
930.163	11710
930.267	11783
930.372	11855
930.477	11752
930.581	11920
930.685	11809
930.79	11684
930.894	11589
930.998	11589
931.103	11775
931.207	11376
931.311	11273
931.415	11235
931.519	11064
931.623	10984
