Data from test_V78500241_134.txt Node
Date: Fri Mar 25 15:10:47 CST 2022
User: usil
Spectrometer: V785-0024
Trigger mode: 0
Integration Time (sec): 4.000000E-1
Scans to average: 1
Nonlinearity correction enabled: false
Boxcar width: 0
Storing dark spectrum: false
XAxis mode: Wavelengths
Number of Pixels in Spectrum: 1024
>>>>>Begin Spectral Data<<<<<
801.071	28356
801.214	28219
801.356	27861
801.499	27819
801.641	27759
801.783	27816
801.926	27736
802.068	27759
802.211	27625
802.353	27656
802.496	27397
802.638	27511
802.78	27386
802.923	27450
803.065	27237
803.208	27306
803.35	27264
803.492	27488
803.635	27412
803.777	27386
803.919	27367
804.061	27709
804.204	27469
804.346	27424
804.488	27408
804.63	27416
804.773	27279
804.915	27397
805.057	27492
805.199	27249
805.341	27424
805.483	27557
805.626	27389
805.768	27473
805.91	27564
806.052	27534
806.194	27443
806.336	27720
806.478	27348
806.62	27420
806.762	27660
806.904	27622
807.046	27964
807.188	27953
807.33	27888
807.472	27899
807.614	27625
807.756	27861
807.898	27766
808.04	27652
808.182	27618
808.324	27671
808.465	27751
808.607	27918
808.749	28021
808.891	28082
809.033	28265
809.174	28124
809.316	28074
809.458	28006
809.6	27998
809.741	28166
809.883	28078
810.025	28257
810.166	28371
810.308	28112
810.45	28276
810.591	28181
810.733	28139
810.875	27983
811.016	27857
811.158	27766
811.299	27994
811.441	27979
811.582	28032
811.724	27937
811.865	27941
812.007	27926
812.148	27930
812.29	27873
812.431	28093
812.573	28379
812.714	28531
812.855	28535
812.997	28519
813.138	28710
813.279	28550
813.421	28360
813.562	28432
813.703	28166
813.845	28112
813.986	27949
814.127	27804
814.268	27637
814.41	27648
814.551	27595
814.692	27641
814.833	27439
814.974	27523
815.115	27545
815.256	27275
815.397	27332
815.539	27370
815.68	27245
815.821	27249
815.962	27329
816.103	27344
816.244	27264
816.385	26998
816.526	26940
816.666	27028
816.807	26762
816.948	26864
817.089	26762
817.23	26899
817.371	26864
817.512	26720
817.653	26773
817.793	26674
817.934	26568
818.075	26720
818.216	26788
818.356	26693
818.497	26587
818.638	26503
818.778	26309
818.919	26408
819.06	26518
819.2	26720
819.341	26568
819.481	26739
819.622	26746
819.762	26975
819.903	26979
820.043	26712
820.184	26819
820.324	26758
820.465	26876
820.605	26716
820.746	26708
820.886	26533
821.026	26697
821.167	26701
821.307	26796
821.447	26602
821.588	26537
821.728	26374
821.868	26271
822.008	26225
822.149	26138
822.289	26050
822.429	25845
822.569	25799
822.709	25776
822.849	25544
822.99	25624
823.13	25620
823.27	25518
823.41	25499
823.55	25331
823.69	25362
823.83	25457
823.97	25285
824.11	25129
824.25	25156
824.389	25141
824.529	25263
824.669	25198
824.809	25377
824.949	25168
825.089	25088
825.228	25145
825.368	24989
825.508	25031
825.648	24985
825.787	25107
825.927	24992
826.067	25027
826.206	24928
826.346	25141
826.485	24962
826.625	24947
826.765	25156
826.904	25038
827.044	24829
827.183	24646
827.323	24711
827.462	24757
827.601	24593
827.741	24703
827.88	24669
828.02	24612
828.159	24593
828.298	24631
828.437	24844
828.577	24517
828.716	24707
828.855	24631
828.994	24300
829.134	24414
829.273	24448
829.412	24311
829.551	24319
829.69	24247
829.829	24399
829.968	24384
830.107	24380
830.246	24308
830.385	24270
830.524	24174
830.663	24125
830.802	23965
830.941	23935
831.08	23889
831.219	23965
831.357	23954
831.496	24114
831.635	23882
831.774	23847
831.913	23684
832.051	23737
832.19	23634
832.329	23638
832.467	23665
832.606	23531
832.744	23581
832.883	23649
833.022	23353
833.16	23459
833.299	23531
833.437	23543
833.576	23531
833.714	23676
833.852	23646
833.991	23600
834.129	23691
834.267	23710
834.406	23512
834.544	23577
834.682	23528
834.821	23630
834.959	23710
835.097	23554
835.235	23512
835.373	23516
835.511	23528
835.65	23459
835.788	23547
835.926	23181
836.064	23204
836.202	23292
836.34	23398
836.478	23535
836.615	23440
836.753	23360
836.891	23547
837.029	23505
837.167	23414
837.305	23280
837.443	23330
837.58	23235
837.718	23368
837.856	23239
837.993	23193
838.131	23025
838.269	23044
838.406	23124
838.544	22991
838.681	22828
838.819	22850
838.956	22691
839.094	22641
839.231	22702
839.369	22896
839.506	22927
839.643	22889
839.781	22672
839.918	22554
840.055	22672
840.193	22599
840.33	22512
840.467	22531
840.604	22618
840.742	22771
840.879	22527
841.016	22500
841.153	22466
841.29	22706
841.427	22577
841.564	22535
841.701	22592
841.838	22493
841.975	22421
842.112	22508
842.249	22242
842.385	22367
842.522	22523
842.659	22322
842.796	22230
842.933	22242
843.069	22150
843.206	22261
843.343	22280
843.479	22299
843.616	22230
843.752	22169
843.889	22116
844.025	22135
844.162	21998
844.298	22051
844.435	21998
844.571	22063
844.708	22074
844.844	22234
844.98	22169
845.117	22063
845.253	21892
845.389	21850
845.525	21937
845.661	21892
845.798	21701
845.934	21903
846.07	21614
846.206	21785
846.342	21865
846.478	21614
846.614	21454
846.75	21515
846.886	21443
847.022	21580
847.158	21416
847.294	21523
847.429	21458
847.565	21466
847.701	21717
847.837	21138
847.972	21275
848.108	21226
848.244	21329
848.379	21112
848.515	21001
848.65	21001
848.786	20986
848.921	21036
849.057	21188
849.192	21036
849.328	20990
849.463	21020
849.598	20933
849.734	20899
849.869	20800
850.004	20765
850.14	20887
850.275	20769
850.41	20712
850.545	20636
850.68	20705
850.815	20853
850.95	20667
851.085	20891
851.22	20925
851.355	20864
851.49	20845
851.625	20644
851.76	20651
851.895	20621
852.03	20670
852.165	20807
852.299	20670
852.434	20716
852.569	20785
852.703	20739
852.838	20872
852.973	20910
853.107	20876
853.242	20682
853.376	20564
853.511	20457
853.645	20533
853.78	20670
853.914	20606
854.048	20393
854.183	20537
854.317	20625
854.451	20727
854.585	20583
854.72	20571
854.854	20667
854.988	20507
855.122	20514
855.256	20488
855.39	20469
855.524	20613
855.658	20568
855.792	20590
855.926	20412
856.06	20579
856.194	20587
856.327	20556
856.461	20412
856.595	20473
856.729	20575
856.862	20568
856.996	20556
857.13	20606
857.263	20670
857.397	20651
857.53	20469
857.664	20549
857.797	20629
857.931	20518
858.064	20560
858.197	20636
858.331	20465
858.464	20495
858.597	20492
858.731	20442
858.864	20469
858.997	20400
859.13	20636
859.263	20537
859.396	20621
859.529	20377
859.662	20495
859.795	20377
859.928	20522
860.061	20648
860.194	20731
860.327	20651
860.46	20488
860.592	20613
860.725	20708
860.858	20484
860.99	20442
861.123	20377
861.256	20423
861.388	20499
861.521	21123
861.653	20313
861.786	20301
861.918	20366
862.05	20415
862.183	20533
862.315	20427
862.447	20598
862.58	20526
862.712	20267
862.844	20248
862.976	20339
863.108	20339
863.24	20663
863.372	20103
863.504	20263
863.636	20183
863.768	20332
863.9	20290
864.032	20088
864.164	20172
864.296	20240
864.428	20225
864.559	20298
864.691	20263
864.823	20191
864.954	20214
865.086	20172
865.217	20115
865.349	20084
865.48	20180
865.612	20054
865.743	20191
865.875	20103
866.006	20050
866.137	20100
866.269	20199
866.4	20103
866.531	20084
866.662	20005
866.793	20001
866.924	19944
867.055	20084
867.186	20077
867.317	20088
867.448	20050
867.579	19974
867.71	19887
867.841	19852
867.972	20001
868.103	20058
868.233	19963
868.364	20096
868.495	20077
868.625	20305
868.756	20339
868.886	20263
869.017	20221
869.147	20389
869.278	20366
869.408	20320
869.539	20271
869.669	20221
869.799	20244
869.929	20328
870.06	20438
870.19	20492
870.32	20613
870.45	20522
870.58	20575
870.71	20800
870.84	20811
870.97	20617
871.1	20678
871.23	20876
871.36	20826
871.489	20750
871.619	20842
871.749	20868
871.879	20834
872.008	21043
872.138	20956
872.267	20883
872.397	20735
872.526	20686
872.656	20648
872.785	20697
872.915	20906
873.044	20979
873.173	20804
873.303	20952
873.432	20937
873.561	20933
873.69	20948
873.819	20823
873.948	21047
874.077	20861
874.206	20826
874.335	20941
874.464	21104
874.593	21154
874.722	21173
874.851	21252
874.979	21176
875.108	21142
875.237	21112
875.365	20937
875.494	21028
875.623	21161
875.751	21169
875.88	21207
876.008	21119
876.136	21306
876.265	21496
876.393	21656
876.521	21705
876.65	21694
876.778	21496
876.906	21435
877.034	21397
877.162	21447
877.29	21405
877.418	21405
877.546	21618
877.674	21477
877.802	21500
877.93	21523
878.058	21488
878.185	21397
878.313	21424
878.441	21492
878.568	21329
878.696	21367
878.824	21477
878.951	21504
879.079	21614
879.206	21907
879.333	21610
879.461	21572
879.588	21523
879.715	21690
879.842	21679
879.97	21545
880.097	21306
880.224	21317
880.351	21504
880.478	21275
880.605	21173
880.732	21359
880.859	21485
880.986	21226
881.112	21218
881.239	21119
881.366	21142
881.493	21039
881.619	21020
881.746	20861
881.872	20979
881.999	20807
882.125	20918
882.252	20963
882.378	20910
882.505	21005
882.631	20788
882.757	20689
882.883	20781
883.01	20590
883.136	20556
883.262	20419
883.388	20549
883.514	20674
883.64	20693
883.766	20598
883.892	20336
884.018	20393
884.143	20609
884.269	20655
884.395	20419
884.52	20263
884.646	20278
884.772	20138
884.897	20237
885.023	20313
885.148	20351
885.274	20343
885.399	20461
885.524	20259
885.65	20282
885.775	20320
885.9	20278
886.025	20362
886.15	20263
886.275	20301
886.4	20164
886.525	20248
886.65	20122
886.775	20206
886.9	20355
887.025	20412
887.149	20351
887.274	20164
887.399	20096
887.523	20073
887.648	19951
887.773	19997
887.897	20115
888.021	19986
888.146	19970
888.27	20092
888.395	20103
888.519	20039
888.643	19986
888.767	20062
888.891	19887
889.015	19814
889.139	19868
889.263	19738
889.387	19898
889.511	20046
889.635	19887
889.759	19807
889.883	19791
890.006	19833
890.13	19982
890.254	19780
890.377	19757
890.501	19544
890.624	19445
890.748	19582
890.871	19483
890.995	19430
891.118	19335
891.241	19354
891.364	19411
891.488	19597
891.611	19438
891.734	19472
891.857	19407
891.98	19335
892.103	19597
892.226	19403
892.349	19316
892.471	19228
892.594	19327
892.717	19480
892.839	19293
892.962	19289
893.085	19487
893.207	19369
893.33	19190
893.452	19327
893.575	19331
893.697	19316
893.819	19457
893.941	19491
894.064	19434
894.186	19365
894.308	19278
894.43	19544
894.552	19400
894.674	19502
894.796	19126
894.918	19362
895.04	19282
895.161	19384
895.283	19331
895.405	19289
895.526	19293
895.648	19225
895.769	19369
895.891	19400
896.012	19403
896.134	19407
896.255	19346
896.376	19255
896.498	19407
896.619	19422
896.74	19343
896.861	19506
896.982	19746
897.103	19852
897.224	19712
897.345	19643
897.466	19544
897.587	19651
897.708	19605
897.828	19601
897.949	19533
898.07	19426
898.19	19491
898.311	19700
898.431	19525
898.552	19552
898.672	19647
898.792	19643
898.913	19613
899.033	19445
899.153	19274
899.273	19213
899.393	19362
899.513	19236
899.633	19278
899.753	19308
899.873	19148
899.993	19259
900.113	19316
900.232	19263
900.352	19240
900.472	19031
900.591	19206
900.711	19084
900.83	19031
900.95	19133
901.069	19232
901.189	18973
901.308	18844
901.427	18764
901.546	18665
901.665	18764
901.784	18798
901.904	18684
902.023	18399
902.141	18254
902.26	18243
902.379	18281
902.498	18232
902.617	18121
902.735	18262
902.854	18060
902.973	18038
903.091	17771
903.21	17832
903.328	18011
903.446	17809
903.565	17665
903.683	17703
903.801	17558
903.919	17596
904.038	17737
904.156	17493
904.274	17558
904.392	17429
904.51	17360
904.627	17474
904.745	17482
904.863	17558
904.981	17277
905.098	17113
905.216	17079
905.334	17231
905.451	17143
905.569	17075
905.686	17075
905.803	17098
905.921	16862
906.038	16999
906.155	16938
906.272	16839
906.389	16767
906.506	16622
906.623	16748
906.74	16615
906.857	16565
906.974	16599
907.091	16637
907.208	16782
907.324	16672
907.441	16546
907.557	16417
907.674	16508
907.79	16276
907.907	16352
908.023	16421
908.139	16246
908.256	16204
908.372	16215
908.488	16303
908.604	16101
908.72	16105
908.836	16128
908.952	15930
909.068	16086
909.184	16097
909.3	16010
909.415	16173
909.531	16055
909.647	15846
909.762	15709
909.878	15736
909.993	15766
910.108	15682
910.224	15622
910.339	15766
910.454	15572
910.57	15606
910.685	15534
910.8	15724
910.915	15720
911.03	15686
911.145	15454
911.259	15298
911.374	15355
911.489	15252
911.604	15119
911.718	15112
911.833	15127
911.947	14948
912.062	14998
912.176	15077
912.291	15108
912.405	15043
912.519	15222
912.633	15233
912.748	15188
912.862	15081
912.976	14952
913.09	14807
913.204	14781
913.318	14834
913.431	14944
913.545	15032
913.659	15020
913.772	14902
913.886	14743
914	14724
914.113	14804
914.226	14842
914.34	14853
914.453	14705
914.566	14735
914.68	14594
914.793	14610
914.906	14423
915.019	14415
915.132	14237
915.245	14415
915.358	14389
915.47	14400
915.583	14438
915.696	14332
915.809	14526
915.921	14530
916.034	14244
916.146	14263
916.259	14259
916.371	14396
916.483	14347
916.595	14206
916.708	14176
916.82	14191
916.932	14187
917.044	14210
917.156	14134
917.268	14035
917.38	14020
917.491	14039
917.603	14062
917.715	14130
917.826	14168
917.938	14012
918.049	13864
918.161	13883
918.272	14157
918.384	14081
918.495	13890
918.606	13738
918.717	13788
918.828	13731
918.939	13887
919.05	13738
919.161	13681
919.272	13499
919.383	13738
919.494	13765
919.604	13837
919.715	13879
919.826	13643
919.936	13685
920.047	13849
920.157	13799
920.267	13841
920.378	13803
920.488	13852
920.598	13947
920.708	14100
920.818	13860
920.928	13898
921.038	14088
921.148	14008
921.258	13750
921.368	13700
921.477	13563
921.587	13449
921.697	13377
921.806	13495
921.916	13411
922.025	13236
922.134	13122
922.244	13065
922.353	13236
922.462	13084
922.571	12966
922.68	12867
922.789	12886
922.898	12821
923.007	12711
923.116	12768
923.224	12779
923.333	12817
923.442	12563
923.55	12620
923.659	12681
923.767	12650
923.876	12563
923.984	12646
924.092	12494
924.201	12623
924.309	12509
924.417	12540
924.525	12498
924.633	12445
924.741	13217
924.849	12213
924.956	12372
925.064	12285
925.172	12209
925.279	12209
925.387	12315
925.494	12213
925.602	12384
925.709	12330
925.816	12190
925.924	12171
926.031	12270
926.138	12186
926.245	12144
926.352	12098
926.459	12289
926.566	12308
926.673	12171
926.779	12026
926.886	11904
926.993	11939
927.099	11866
927.206	11767
927.312	11824
927.419	11802
927.525	11840
927.631	11908
927.737	11798
927.843	11688
927.95	11532
928.056	11699
928.162	11672
928.267	11802
928.373	12258
928.479	11737
928.585	11528
928.69	11657
928.796	11646
928.901	11554
929.007	11349
929.112	11558
929.218	11512
929.323	11440
929.428	11440
929.533	11562
929.638	11391
929.743	11368
929.848	11379
929.953	11379
930.058	11277
930.163	11083
930.267	11136
930.372	11288
930.477	11029
930.581	11216
930.685	11181
930.79	10930
930.894	11033
930.998	10873
931.103	11102
931.207	10801
931.311	10615
931.415	10573
931.519	10443
931.623	10337
