Data from test_V78500241_3592.txt Node
Date: Fri Mar 25 15:34:52 CST 2022
User: usil
Spectrometer: V785-0024
Trigger mode: 0
Integration Time (sec): 4.000000E-1
Scans to average: 1
Nonlinearity correction enabled: false
Boxcar width: 0
Storing dark spectrum: false
XAxis mode: Wavelengths
Number of Pixels in Spectrum: 1024
>>>>>Begin Spectral Data<<<<<
801.071	27515
801.214	27310
801.356	26902
801.499	26933
801.641	26910
801.783	26872
801.926	27009
802.068	26986
802.211	26842
802.353	26716
802.496	26583
802.638	26587
802.78	26606
802.923	26438
803.065	26347
803.208	26328
803.35	26648
803.492	26682
803.635	26587
803.777	26545
803.919	26697
804.061	27024
804.204	26735
804.346	26533
804.488	26473
804.63	26663
804.773	26473
804.915	26701
805.057	26819
805.199	26651
805.341	26750
805.483	26781
805.626	26689
805.768	26826
805.91	26746
806.052	26708
806.194	26758
806.336	26944
806.478	26674
806.62	26701
806.762	26792
806.904	27024
807.046	27173
807.188	27074
807.33	27104
807.472	27173
807.614	27085
807.756	27062
807.898	27039
808.04	26990
808.182	26864
808.324	27047
808.465	27055
808.607	27180
808.749	27397
808.891	27359
809.033	27591
809.174	27393
809.316	27397
809.458	27382
809.6	27195
809.741	27332
809.883	27420
810.025	27679
810.166	27595
810.308	27637
810.45	27610
810.591	27435
810.733	27294
810.875	27355
811.016	27412
811.158	27298
811.299	27420
811.441	27530
811.582	27515
811.724	27321
811.865	27382
812.007	27321
812.148	27351
812.29	27386
812.431	27625
812.573	27637
812.714	27770
812.855	27888
812.997	27926
813.138	28029
813.279	28021
813.421	28010
813.562	27861
813.703	27778
813.845	27408
813.986	27412
814.127	27055
814.268	27161
814.41	27032
814.551	27055
814.692	27043
814.833	26948
814.974	26921
815.115	26986
815.256	26982
815.397	26830
815.539	26811
815.68	26834
815.821	26632
815.962	26724
816.103	26735
816.244	26674
816.385	26526
816.526	26541
816.666	26400
816.807	26309
816.948	26256
817.089	26404
817.23	26332
817.371	26221
817.512	26313
817.653	26313
817.793	26278
817.934	26313
818.075	26374
818.216	26377
818.356	26126
818.497	26225
818.638	26008
818.778	26130
818.919	26081
819.06	26081
819.2	26168
819.341	26199
819.481	26244
819.622	26355
819.762	26708
819.903	26476
820.043	26499
820.184	26473
820.324	26362
820.465	26492
820.605	26560
820.746	26450
820.886	26275
821.026	26351
821.167	26415
821.307	26377
821.447	26347
821.588	26309
821.728	26088
821.868	26077
822.008	25849
822.149	25890
822.289	25841
822.429	25499
822.569	25411
822.709	25430
822.849	25247
822.99	25324
823.13	25266
823.27	25209
823.41	25004
823.55	25057
823.69	25190
823.83	25072
823.97	25183
824.11	24848
824.25	24882
824.389	24951
824.529	24951
824.669	24962
824.809	25065
824.949	25027
825.089	24989
825.228	24894
825.368	24814
825.508	24673
825.648	24916
825.787	24833
825.927	24753
826.067	24700
826.206	24791
826.346	24795
826.485	24894
826.625	24840
826.765	24871
826.904	24932
827.044	24654
827.183	24559
827.323	24414
827.462	24502
827.601	24490
827.741	24315
827.88	24467
828.02	24403
828.159	24452
828.298	24384
828.437	24536
828.577	24391
828.716	24563
828.855	24437
828.994	24258
829.134	24220
829.273	24296
829.412	24300
829.551	24270
829.69	24239
829.829	24285
829.968	24327
830.107	24369
830.246	24342
830.385	24296
830.524	24292
830.663	24091
830.802	23969
830.941	23874
831.08	23771
831.219	23908
831.357	23969
831.496	24003
831.635	23874
831.774	23691
831.913	23710
832.051	23657
832.19	23615
832.329	23741
832.467	23528
832.606	23440
832.744	23433
832.883	23558
833.022	23619
833.16	23570
833.299	23646
833.437	23516
833.576	23528
833.714	23497
833.852	23680
833.991	23733
834.129	23752
834.267	23794
834.406	23604
834.544	23783
834.682	23615
834.821	23558
834.959	23722
835.097	23566
835.235	23722
835.373	23611
835.511	23596
835.65	23505
835.788	23547
835.926	23261
836.064	23208
836.202	23364
836.34	23493
836.478	23642
836.615	23459
836.753	23459
836.891	23589
837.029	23524
837.167	23326
837.305	23368
837.443	23330
837.58	23231
837.718	23242
837.856	23345
837.993	23254
838.131	23261
838.269	23231
838.406	23284
838.544	23071
838.681	22911
838.819	22976
838.956	22782
839.094	22675
839.231	22889
839.369	22991
839.506	23121
839.643	23025
839.781	22824
839.918	22755
840.055	22797
840.193	22797
840.33	22649
840.467	22683
840.604	22683
840.742	22991
840.879	22599
841.016	22489
841.153	22611
841.29	22816
841.427	22626
841.564	22679
841.701	22691
841.838	22698
841.975	22580
842.112	22729
842.249	22516
842.385	22618
842.522	22793
842.659	22451
842.796	22421
842.933	22478
843.069	22523
843.206	22348
843.343	22398
843.479	22405
843.616	22523
843.752	22318
843.889	22101
844.025	22344
844.162	22314
844.298	22375
844.435	22272
844.571	22253
844.708	22341
844.844	22409
844.98	22402
845.117	22493
845.253	22139
845.389	22090
845.525	22173
845.661	22192
845.798	21956
845.934	22067
846.07	21934
846.206	21911
846.342	22192
846.478	22063
846.614	21918
846.75	21660
846.886	21629
847.022	21804
847.158	21686
847.294	21660
847.429	21728
847.565	21804
847.701	21857
847.837	21408
847.972	21405
848.108	21583
848.244	21424
848.379	21310
848.515	21291
848.65	21252
848.786	21370
848.921	21431
849.057	21317
849.192	21370
849.328	21378
849.463	21397
849.598	21268
849.734	21233
849.869	21195
850.004	21127
850.14	21157
850.275	21123
850.41	21047
850.545	21032
850.68	21047
850.815	21154
850.95	21222
851.085	21317
851.22	21199
851.355	21142
851.49	21032
851.625	21146
851.76	21089
851.895	21055
852.03	21039
852.165	21039
852.299	21036
852.434	21081
852.569	21093
852.703	21138
852.838	21237
852.973	21245
853.107	21070
853.242	21089
853.376	20880
853.511	20838
853.645	20933
853.78	21066
853.914	21051
854.048	20842
854.183	20819
854.317	20925
854.451	21013
854.585	20933
854.72	20796
854.854	21013
854.988	20826
855.122	20925
855.256	20811
855.39	20845
855.524	20975
855.658	21009
855.792	20921
855.926	20891
856.06	20819
856.194	21051
856.327	20815
856.461	20838
856.595	20857
856.729	20967
856.862	20967
856.996	20868
857.13	20895
857.263	20960
857.397	20910
857.53	20842
857.664	20880
857.797	20948
857.931	21036
858.064	20937
858.197	20952
858.331	20941
858.464	20788
858.597	20906
858.731	20762
858.864	20971
858.997	20895
859.13	20963
859.263	20883
859.396	21047
859.529	20853
859.662	20857
859.795	20861
859.928	20952
860.061	21089
860.194	21066
860.327	21051
860.46	20796
860.592	21096
860.725	21032
860.858	21036
860.99	20952
861.123	20781
861.256	20906
861.388	20857
861.521	21682
861.653	20785
861.786	20701
861.918	20777
862.05	20773
862.183	20830
862.315	20902
862.447	20948
862.58	20762
862.712	20659
862.844	20640
862.976	20708
863.108	20651
863.24	20952
863.372	20636
863.504	20541
863.636	20526
863.768	20655
863.9	20613
864.032	20663
864.164	20644
864.296	20537
864.428	20735
864.559	20678
864.691	20765
864.823	20617
864.954	20686
865.086	20579
865.217	20492
865.349	20480
865.48	20484
865.612	20499
865.743	20712
865.875	20518
866.006	20514
866.137	20533
866.269	20457
866.4	20488
866.531	20473
866.662	20381
866.793	20446
866.924	20514
867.055	20575
867.186	20530
867.317	20355
867.448	20358
867.579	20522
867.71	20374
867.841	20385
867.972	20488
868.103	20465
868.233	20507
868.364	20636
868.495	20526
868.625	20731
868.756	20834
868.886	20511
869.017	20541
869.147	20819
869.278	20914
869.408	20739
869.539	20697
869.669	20754
869.799	20731
869.929	20895
870.06	20823
870.19	20948
870.32	21001
870.45	20925
870.58	21077
870.71	21268
870.84	21089
870.97	21039
871.1	21017
871.23	21230
871.36	21332
871.489	21218
871.619	21230
871.749	21340
871.879	21378
872.008	21393
872.138	21340
872.267	21351
872.397	21138
872.526	21146
872.656	21161
872.785	21161
872.915	21310
873.044	21496
873.173	21321
873.303	21447
873.432	21298
873.561	21473
873.69	21447
873.819	21294
873.948	21428
874.077	21447
874.206	21325
874.335	21481
874.464	21447
874.593	21583
874.722	21595
874.851	21595
874.979	21720
875.108	21622
875.237	21549
875.365	21526
875.494	21462
875.623	21682
875.751	21428
875.88	21694
876.008	21637
876.136	21804
876.265	21975
876.393	22120
876.521	22093
876.65	22036
876.778	22093
876.906	21972
877.034	21903
877.162	22044
877.29	21861
877.418	21953
877.546	21926
877.674	21998
877.802	21869
877.93	21994
878.058	21964
878.185	21694
878.313	21835
878.441	21941
878.568	21869
878.696	21778
878.824	21884
878.951	22086
879.079	22166
879.206	22238
879.333	22067
879.461	21903
879.588	22101
879.715	22029
879.842	22173
879.97	21956
880.097	21747
880.224	21789
880.351	21941
880.478	21793
880.605	21709
880.732	21831
880.859	22036
880.986	21701
881.112	21736
881.239	21701
881.366	21424
881.493	21378
881.619	21287
881.746	21374
881.872	21370
881.999	21226
882.125	21157
882.252	21466
882.378	21317
882.505	21313
882.631	21294
882.757	21108
882.883	21142
883.01	20986
883.136	20941
883.262	20765
883.388	20899
883.514	21066
883.64	21116
883.766	21013
883.892	20750
884.018	20830
884.143	20967
884.269	20982
884.395	20788
884.52	20689
884.646	20815
884.772	20545
884.897	20556
885.023	20587
885.148	20868
885.274	20788
885.399	20769
885.524	20682
885.65	20640
885.775	20602
885.9	20606
886.025	20792
886.15	20773
886.275	20716
886.4	20454
886.525	20587
886.65	20682
886.775	20594
886.9	20769
887.025	20918
887.149	20682
887.274	20454
887.399	20339
887.523	20438
887.648	20396
887.773	20229
887.897	20514
888.021	20393
888.146	20446
888.27	20511
888.395	20560
888.519	20503
888.643	20381
888.767	20484
888.891	20393
889.015	20278
889.139	20294
889.263	20153
889.387	20419
889.511	20423
889.635	20313
889.759	20195
889.883	20317
890.006	20282
890.13	20328
890.254	20130
890.377	20161
890.501	20024
890.624	19978
890.748	20103
890.871	19959
890.995	19833
891.118	19795
891.241	19830
891.364	19791
891.488	19963
891.611	19799
891.734	19772
891.857	19909
891.98	19818
892.103	19826
892.226	19845
892.349	19799
892.471	19529
892.594	19765
892.717	19822
892.839	19643
892.962	19647
893.085	19837
893.207	19700
893.33	19594
893.452	19632
893.575	19708
893.697	19799
893.819	19963
893.941	19986
894.064	19951
894.186	19616
894.308	19594
894.43	19841
894.552	20001
894.674	19822
894.796	19616
894.918	19685
895.04	19750
895.161	19738
895.283	19830
895.405	19700
895.526	19719
895.648	19609
895.769	19712
895.891	19814
896.012	19868
896.134	19890
896.255	19780
896.376	19571
896.498	19662
896.619	19856
896.74	19700
896.861	19852
896.982	20180
897.103	20176
897.224	20016
897.345	20062
897.466	19955
897.587	19951
897.708	20065
897.828	20062
897.949	19868
898.07	19845
898.19	19921
898.311	20077
898.431	19944
898.552	20027
898.672	20103
898.792	20111
898.913	19997
899.033	19788
899.153	19791
899.273	19567
899.393	19807
899.513	19689
899.633	19693
899.753	19723
899.873	19704
899.993	19689
900.113	19715
900.232	19712
900.352	19540
900.472	19552
900.591	19453
900.711	19582
900.83	19563
900.95	19559
901.069	19609
901.189	19373
901.308	19152
901.427	19069
901.546	19031
901.665	19114
901.784	19160
901.904	18947
902.023	18928
902.141	18703
902.26	18738
902.379	18650
902.498	18604
902.617	18547
902.735	18578
902.854	18578
902.973	18555
903.091	18232
903.21	18384
903.328	18247
903.446	18285
903.565	18072
903.683	18022
903.801	17958
903.919	18140
904.038	18098
904.156	17813
904.274	17954
904.392	17885
904.51	17828
904.627	17946
904.745	17904
904.863	17935
904.981	17589
905.098	17497
905.216	17505
905.334	17646
905.451	17581
905.569	17459
905.686	17596
905.803	17562
905.921	17406
906.038	17535
906.155	17364
906.272	17193
906.389	17265
906.506	17159
906.623	17029
906.74	17033
906.857	17003
906.974	16946
907.091	17075
907.208	17265
907.324	17102
907.441	16927
907.557	16911
907.674	16858
907.79	16767
907.907	16748
908.023	16873
908.139	16786
908.256	16683
908.372	16679
908.488	16713
908.604	16512
908.72	16474
908.836	16546
908.952	16519
909.068	16527
909.184	16550
909.3	16512
909.415	16584
909.531	16577
909.647	16318
909.762	16257
909.878	16131
909.993	16181
910.108	16257
910.224	16082
910.339	16162
910.454	16059
910.57	15983
910.685	15945
910.8	16284
910.915	16226
911.03	16158
911.145	15888
911.259	15873
911.374	15835
911.489	15827
911.604	15717
911.718	15682
911.833	15572
911.947	15477
912.062	15450
912.176	15637
912.291	15534
912.405	15526
912.519	15720
912.633	15762
912.748	15690
912.862	15553
912.976	15412
913.09	15249
913.204	15416
913.318	15412
913.431	15511
913.545	15408
913.659	15511
913.772	15287
913.886	15195
914	15176
914.113	15344
914.226	15294
914.34	15275
914.453	15127
914.566	15279
914.68	15100
914.793	14902
914.906	14861
915.019	14845
915.132	14727
915.245	14739
915.358	14754
915.47	14792
915.583	14838
915.696	14876
915.809	14956
915.921	14986
916.034	14819
916.146	14746
916.259	14731
916.371	14769
916.483	14769
916.595	14659
916.708	14686
916.82	14708
916.932	14625
917.044	14655
917.156	14552
917.268	14594
917.38	14579
917.491	14454
917.603	14556
917.715	14522
917.826	14537
917.938	14434
918.049	14259
918.161	14488
918.272	14545
918.384	14579
918.495	14423
918.606	14328
918.717	14191
918.828	14396
918.939	14339
919.05	14130
919.161	14290
919.272	14062
919.383	14153
919.494	14252
919.604	14427
919.715	14149
919.826	14107
919.936	14180
920.047	14343
920.157	14229
920.267	14377
920.378	14271
920.488	14096
920.598	14366
920.708	14454
920.818	14351
920.928	14366
921.038	14522
921.148	14442
921.258	14164
921.368	13982
921.477	13974
921.587	13913
921.697	13818
921.806	14020
921.916	13769
922.025	13628
922.134	13647
922.244	13525
922.353	13639
922.462	13533
922.571	13468
922.68	13293
922.789	13274
922.898	13304
923.007	13228
923.116	13324
923.224	13228
923.333	13209
923.442	13190
923.55	13107
923.659	13012
923.767	13175
923.876	13065
923.984	13129
924.092	12920
924.201	12985
924.309	13084
924.417	13046
924.525	12890
924.633	12973
924.741	13883
924.849	12745
924.956	12875
925.064	12627
925.172	12597
925.279	12768
925.387	12715
925.494	12612
925.602	12810
925.709	12692
925.816	12589
925.924	12662
926.031	12707
926.138	12623
926.245	12669
926.352	12506
926.459	12669
926.566	12654
926.673	12612
926.779	12494
926.886	12475
926.993	12270
927.099	12258
927.206	12201
927.312	12167
927.419	12323
927.525	12258
927.631	12308
927.737	12171
927.843	12019
927.95	11980
928.056	12083
928.162	12114
928.267	12152
928.373	12631
928.479	12155
928.585	11969
928.69	12026
928.796	12095
928.901	11946
929.007	11813
929.112	11954
929.218	11927
929.323	11824
929.428	11828
929.533	11920
929.638	11771
929.743	11821
929.848	11764
929.953	11764
930.058	11642
930.163	11551
930.267	11509
930.372	11623
930.477	11558
930.581	11657
930.685	11474
930.79	11360
930.894	11368
930.998	11425
931.103	11501
931.207	11155
931.311	11094
931.415	10976
931.519	10763
931.623	10801
