Data from test_V78500241_3152.txt Node
Date: Fri Mar 25 15:31:48 CST 2022
User: usil
Spectrometer: V785-0024
Trigger mode: 0
Integration Time (sec): 4.000000E-1
Scans to average: 1
Nonlinearity correction enabled: false
Boxcar width: 0
Storing dark spectrum: false
XAxis mode: Wavelengths
Number of Pixels in Spectrum: 1024
>>>>>Begin Spectral Data<<<<<
801.071	27310
801.214	27249
801.356	27089
801.499	26948
801.641	26868
801.783	26777
801.926	26727
802.068	26731
802.211	26568
802.353	26606
802.496	26469
802.638	26564
802.78	26404
802.923	26362
803.065	26294
803.208	26225
803.35	26374
803.492	26503
803.635	26659
803.777	26617
803.919	26465
804.061	26960
804.204	26625
804.346	26511
804.488	26423
804.63	26537
804.773	26514
804.915	26495
805.057	26731
805.199	26476
805.341	26594
805.483	26640
805.626	26590
805.768	26545
805.91	26788
806.052	26617
806.194	26670
806.336	26754
806.478	26701
806.62	26507
806.762	26845
806.904	26963
807.046	27237
807.188	27051
807.33	27226
807.472	26952
807.614	27123
807.756	26967
807.898	26986
808.04	26838
808.182	26998
808.324	26880
808.465	26815
808.607	27112
808.749	27142
808.891	27233
809.033	27294
809.174	27469
809.316	27218
809.458	27260
809.6	27184
809.741	27199
809.883	27447
810.025	27439
810.166	27595
810.308	27507
810.45	27500
810.591	27321
810.733	27249
810.875	27207
811.016	27138
811.158	27165
811.299	27306
811.441	27511
811.582	27408
811.724	27370
811.865	27100
812.007	27188
812.148	27135
812.29	27355
812.431	27367
812.573	27443
812.714	27606
812.855	27667
812.997	27823
813.138	27956
813.279	27930
813.421	27667
813.562	27633
813.703	27641
813.845	27473
813.986	27218
814.127	26952
814.268	27051
814.41	26940
814.551	26960
814.692	26956
814.833	26864
814.974	26979
815.115	27112
815.256	26777
815.397	26807
815.539	26804
815.68	26678
815.821	26575
815.962	26739
816.103	26609
816.244	26545
816.385	26415
816.526	26518
816.666	26244
816.807	26187
816.948	26225
817.089	26278
817.23	26187
817.371	26176
817.512	26043
817.653	26187
817.793	26142
817.934	26138
818.075	26225
818.216	26191
818.356	25997
818.497	26100
818.638	25887
818.778	25909
818.919	25894
819.06	25887
819.2	26202
819.341	26126
819.481	26244
819.622	26294
819.762	26518
819.903	26465
820.043	26377
820.184	26187
820.324	26214
820.465	26317
820.605	26298
820.746	26153
820.886	26244
821.026	26237
821.167	26172
821.307	26240
821.447	26183
821.588	26088
821.728	26012
821.868	25708
822.008	25578
822.149	25753
822.289	25544
822.429	25373
822.569	25491
822.709	25392
822.849	25164
822.99	25263
823.13	25046
823.27	25209
823.41	25053
823.55	24905
823.69	24916
823.83	24821
823.97	24901
824.11	24745
824.25	24810
824.389	24802
824.529	24863
824.669	24760
824.809	24833
824.949	24894
825.089	24810
825.228	24798
825.368	24593
825.508	24532
825.648	24661
825.787	24620
825.927	24787
826.067	24509
826.206	24665
826.346	24650
826.485	24658
826.625	24791
826.765	24772
826.904	24661
827.044	24460
827.183	24490
827.323	24357
827.462	24327
827.601	24361
827.741	24338
827.88	24372
828.02	24304
828.159	24194
828.298	24300
828.437	24414
828.577	24319
828.716	24452
828.855	24300
828.994	24026
829.134	24095
829.273	24228
829.412	24060
829.551	24060
829.69	23939
829.829	24152
829.968	24182
830.107	24144
830.246	24003
830.385	24011
830.524	24011
830.663	23828
830.802	23885
830.941	23623
831.08	23729
831.219	23714
831.357	23809
831.496	23866
831.635	23745
831.774	23543
831.913	23611
832.051	23452
832.19	23440
832.329	23474
832.467	23524
832.606	23189
832.744	23368
832.883	23364
833.022	23334
833.16	23273
833.299	23531
833.437	23341
833.576	23414
833.714	23452
833.852	23551
833.991	23535
834.129	23570
834.267	23455
834.406	23482
834.544	23440
834.682	23372
834.821	23444
834.959	23653
835.097	23387
835.235	23482
835.373	23417
835.511	23391
835.65	23288
835.788	23353
835.926	23250
836.064	23090
836.202	23155
836.34	23299
836.478	23402
836.615	23345
836.753	23258
836.891	23242
837.029	23353
837.167	23307
837.305	23200
837.443	23288
837.58	23018
837.718	23189
837.856	23159
837.993	23105
838.131	23140
838.269	23071
838.406	23121
838.544	23022
838.681	22797
838.819	22862
838.956	22611
839.094	22641
839.231	22702
839.369	22706
839.506	23010
839.643	22900
839.781	22641
839.918	22565
840.055	22546
840.193	22561
840.33	22577
840.467	22481
840.604	22618
840.742	22820
840.879	22428
841.016	22493
841.153	22592
841.29	22546
841.427	22481
841.564	22599
841.701	22615
841.838	22478
841.975	22443
842.112	22451
842.249	22531
842.385	22352
842.522	22611
842.659	22421
842.796	22295
842.933	22215
843.069	22303
843.206	22303
843.343	22322
843.479	22268
843.616	22261
843.752	22044
843.889	22112
844.025	22219
844.162	22044
844.298	22173
844.435	21991
844.571	22021
844.708	22101
844.844	22246
844.98	22181
845.117	22032
845.253	22006
845.389	22032
845.525	22017
845.661	21903
845.798	21793
845.934	21968
846.07	21717
846.206	21861
846.342	21899
846.478	21789
846.614	21690
846.75	21587
846.886	21557
847.022	21618
847.158	21542
847.294	21614
847.429	21500
847.565	21572
847.701	21717
847.837	21298
847.972	21302
848.108	21306
848.244	21340
848.379	21150
848.515	21036
848.65	21150
848.786	21070
848.921	21199
849.057	21249
849.192	21180
849.328	21249
849.463	21058
849.598	21055
849.734	20960
849.869	21131
850.004	20914
850.14	20948
850.275	20956
850.41	20849
850.545	20994
850.68	20746
850.815	20914
850.95	20849
851.085	21119
851.22	21032
851.355	20941
851.49	20925
851.625	20838
851.76	20830
851.895	20887
852.03	20800
852.165	20982
852.299	20948
852.434	20982
852.569	20918
852.703	20857
852.838	20925
852.973	21039
853.107	20899
853.242	20796
853.376	20842
853.511	20598
853.645	20750
853.78	20880
853.914	20670
854.048	20655
854.183	20705
854.317	20842
854.451	21001
854.585	20765
854.72	20765
854.854	20785
854.988	20659
855.122	20720
855.256	20613
855.39	20735
855.524	20796
855.658	20758
855.792	20765
855.926	20739
856.06	20758
856.194	20735
856.327	20678
856.461	20602
856.595	20739
856.729	20659
856.862	20872
856.996	20743
857.13	20712
857.263	20724
857.397	20811
857.53	20750
857.664	20891
857.797	20762
857.931	20785
858.064	20693
858.197	20811
858.331	20735
858.464	20720
858.597	20602
858.731	20640
858.864	20724
858.997	20560
859.13	20785
859.263	20678
859.396	20849
859.529	20800
859.662	20663
859.795	20750
859.928	20682
860.061	20868
860.194	20986
860.327	20800
860.46	20773
860.592	20826
860.725	20921
860.858	20887
860.99	20712
861.123	20701
861.256	20682
861.388	20670
861.521	21214
861.653	20621
861.786	20602
861.918	20560
862.05	20644
862.183	20689
862.315	20644
862.447	20826
862.58	20667
862.712	20499
862.844	20362
862.976	20613
863.108	20469
863.24	20891
863.372	20400
863.504	20446
863.636	20450
863.768	20514
863.9	20461
864.032	20263
864.164	20415
864.296	20560
864.428	20602
864.559	20381
864.691	20537
864.823	20568
864.954	20423
865.086	20389
865.217	20351
865.349	20377
865.48	20404
865.612	20419
865.743	20541
865.875	20332
866.006	20320
866.137	20286
866.269	20427
866.4	20404
866.531	20195
866.662	20282
866.793	20339
866.924	20233
867.055	20278
867.186	20377
867.317	20366
867.448	20301
867.579	20290
867.71	20237
867.841	20142
867.972	20366
868.103	20252
868.233	20404
868.364	20317
868.495	20259
868.625	20476
868.756	20602
868.886	20594
869.017	20606
869.147	20686
869.278	20609
869.408	20568
869.539	20571
869.669	20533
869.799	20632
869.929	20556
870.06	20674
870.19	20899
870.32	20746
870.45	20887
870.58	20975
870.71	21024
870.84	20979
870.97	20956
871.1	20792
871.23	21085
871.36	21062
871.489	21066
871.619	21058
871.749	21192
871.879	21241
872.008	21230
872.138	21173
872.267	21074
872.397	21085
872.526	20944
872.656	20952
872.785	21047
872.915	21116
873.044	21077
873.173	21146
873.303	21173
873.432	21218
873.561	21344
873.69	21104
873.819	21188
873.948	21180
874.077	21096
874.206	21077
874.335	21188
874.464	21294
874.593	21336
874.722	21401
874.851	21466
874.979	21534
875.108	21458
875.237	21275
875.365	21268
875.494	21435
875.623	21507
875.751	21321
875.88	21511
876.008	21557
876.136	21542
876.265	21842
876.393	21873
876.521	21945
876.65	21903
876.778	21816
876.906	21724
877.034	21778
877.162	21739
877.29	21644
877.418	21739
877.546	21770
877.674	21869
877.802	21762
877.93	21686
878.058	21720
878.185	21595
878.313	21793
878.441	21736
878.568	21477
878.696	21709
878.824	21694
878.951	21732
879.079	21915
879.206	22029
879.333	21823
879.461	21770
879.588	21774
879.715	21926
879.842	21983
879.97	21781
880.097	21606
880.224	21462
880.351	21663
880.478	21545
880.605	21549
880.732	21557
880.859	21717
880.986	21625
881.112	21538
881.239	21511
881.366	21310
881.493	21199
881.619	21135
881.746	21226
881.872	21180
881.999	21108
882.125	21135
882.252	21173
882.378	21096
882.505	21264
882.631	20967
882.757	20826
882.883	20952
883.01	20834
883.136	20887
883.262	20788
883.388	20670
883.514	20899
883.64	20769
883.766	20743
883.892	20701
884.018	20754
884.143	20857
884.269	20925
884.395	20640
884.52	20530
884.646	20507
884.772	20393
884.897	20431
885.023	20541
885.148	20514
885.274	20720
885.399	20598
885.524	20579
885.65	20571
885.775	20507
885.9	20415
886.025	20636
886.15	20552
886.275	20457
886.4	20355
886.525	20415
886.65	20366
886.775	20438
886.9	20587
887.025	20705
887.149	20480
887.274	20347
887.399	20248
887.523	20252
887.648	20237
887.773	20240
887.897	20469
888.021	20332
888.146	20149
888.27	20415
888.395	20332
888.519	20336
888.643	20240
888.767	20248
888.891	20092
889.015	20183
889.139	20126
889.263	20054
889.387	20313
889.511	20168
889.635	20233
889.759	20012
889.883	20115
890.006	20081
890.13	20278
890.254	20031
890.377	19898
890.501	19963
890.624	19898
890.748	19795
890.871	19761
890.995	19609
891.118	19590
891.241	19708
891.364	19655
891.488	19845
891.611	19731
891.734	19715
891.857	19708
891.98	19586
892.103	19677
892.226	19613
892.349	19544
892.471	19514
892.594	19521
892.717	19658
892.839	19609
892.962	19548
893.085	19609
893.207	19521
893.33	19426
893.452	19476
893.575	19628
893.697	19655
893.819	19734
893.941	19818
894.064	19830
894.186	19552
894.308	19384
894.43	19708
894.552	19776
894.674	19750
894.796	19400
894.918	19445
895.04	19556
895.161	19670
895.283	19632
895.405	19571
895.526	19628
895.648	19468
895.769	19666
895.891	19708
896.012	19689
896.134	19658
896.255	19700
896.376	19495
896.498	19537
896.619	19613
896.74	19537
896.861	19727
896.982	19856
897.103	20062
897.224	19833
897.345	19814
897.466	19784
897.587	19780
897.708	19883
897.828	19936
897.949	19719
898.07	19700
898.19	19772
898.311	19830
898.431	19765
898.552	19788
898.672	19883
898.792	20005
898.913	19738
899.033	19658
899.153	19674
899.273	19518
899.393	19540
899.513	19605
899.633	19616
899.753	19556
899.873	19518
899.993	19651
900.113	19453
900.232	19590
900.352	19403
900.472	19384
900.591	19388
900.711	19403
900.83	19327
900.95	19396
901.069	19502
901.189	19301
901.308	18993
901.427	18852
901.546	18970
901.665	19042
901.784	18844
901.904	18856
902.023	18753
902.141	18479
902.26	18517
902.379	18555
902.498	18506
902.617	18437
902.735	18528
902.854	18467
902.973	18330
903.091	18163
903.21	18110
903.328	18174
903.446	18087
903.565	17958
903.683	17958
903.801	17908
903.919	17904
904.038	17939
904.156	17882
904.274	17783
904.392	17634
904.51	17676
904.627	17638
904.745	17821
904.863	17771
904.981	17524
905.098	17334
905.216	17372
905.334	17349
905.451	17307
905.569	17360
905.686	17364
905.803	17410
905.921	17223
906.038	17242
906.155	17174
906.272	17094
906.389	17261
906.506	16881
906.623	16923
906.74	16831
906.857	16828
906.974	16866
907.091	16930
907.208	16968
907.324	16949
907.441	16771
907.557	16637
907.674	16683
907.79	16713
907.907	16607
908.023	16596
908.139	16698
908.256	16683
908.372	16637
908.488	16546
908.604	16436
908.72	16523
908.836	16371
908.952	16318
909.068	16424
909.184	16424
909.3	16356
909.415	16371
909.531	16421
909.647	16185
909.762	16078
909.878	16082
909.993	16074
910.108	16051
910.224	16044
910.339	15975
910.454	16029
910.57	15994
910.685	15888
910.8	16185
910.915	16059
911.03	15899
911.145	15675
911.259	15671
911.374	15629
911.489	15576
911.604	15538
911.718	15488
911.833	15515
911.947	15351
912.062	15348
912.176	15443
912.291	15450
912.405	15500
912.519	15663
912.633	15660
912.748	15408
912.862	15397
912.976	15306
913.09	15199
913.204	15184
913.318	15230
913.431	15408
913.545	15302
913.659	15351
913.772	15157
913.886	15104
914	15131
914.113	15237
914.226	15169
914.34	15043
914.453	14986
914.566	15039
914.68	14982
914.793	14910
914.906	14750
915.019	14701
915.132	14613
915.245	14670
915.358	14617
915.47	14670
915.583	14674
915.696	14632
915.809	14777
915.921	14830
916.034	14590
916.146	14606
916.259	14617
916.371	14674
916.483	14663
916.595	14530
916.708	14560
916.82	14571
916.932	14415
917.044	14446
917.156	14427
917.268	14377
917.38	14362
917.491	14393
917.603	14412
917.715	14434
917.826	14351
917.938	14313
918.049	14191
918.161	14286
918.272	14408
918.384	14370
918.495	14248
918.606	14191
918.717	14077
918.828	14107
918.939	14180
919.05	14031
919.161	14111
919.272	13894
919.383	14043
919.494	14126
919.604	14282
919.715	14069
919.826	14024
919.936	14046
920.047	14168
920.157	14008
920.267	14313
920.378	14103
920.488	14130
920.598	14309
920.708	14374
920.818	14240
920.928	14210
921.038	14377
921.148	14423
921.258	13959
921.368	13978
921.477	13875
921.587	13890
921.697	13666
921.806	13864
921.916	13712
922.025	13563
922.134	13571
922.244	13453
922.353	13556
922.462	13400
922.571	13274
922.68	13168
922.789	13183
922.898	13171
923.007	13107
923.116	13247
923.224	13183
923.333	13091
923.442	13046
923.55	12977
923.659	13053
923.767	13034
923.876	12951
923.984	12966
924.092	12817
924.201	12913
924.309	12905
924.417	12878
924.525	12817
924.633	12894
924.741	13723
924.849	12654
924.956	12753
925.064	12623
925.172	12517
925.279	12608
925.387	12623
925.494	12642
925.602	12677
925.709	12684
925.816	12422
925.924	12429
926.031	12612
926.138	12585
926.245	12513
926.352	12475
926.459	12551
926.566	12654
926.673	12475
926.779	12384
926.886	12239
926.993	12251
927.099	12171
927.206	12190
927.312	12125
927.419	12216
927.525	12133
927.631	12190
927.737	12091
927.843	11977
927.95	11885
928.056	11973
928.162	12015
928.267	12011
928.373	12642
928.479	12049
928.585	11809
928.69	11942
928.796	11927
928.901	11889
929.007	11714
929.112	11878
929.218	11783
929.323	11707
929.428	11741
929.533	11745
929.638	11596
929.743	11668
929.848	11676
929.953	11764
930.058	11532
930.163	11364
930.267	11482
930.372	11592
930.477	11368
930.581	11585
930.685	11417
930.79	11303
930.894	11414
930.998	11261
931.103	11356
931.207	11064
931.311	10980
931.415	10911
931.519	10744
931.623	10668
