Data from test_V78500241_482.txt Node
Date: Fri Mar 25 15:13:12 CST 2022
User: usil
Spectrometer: V785-0024
Trigger mode: 0
Integration Time (sec): 4.000000E-1
Scans to average: 1
Nonlinearity correction enabled: false
Boxcar width: 0
Storing dark spectrum: false
XAxis mode: Wavelengths
Number of Pixels in Spectrum: 1024
>>>>>Begin Spectral Data<<<<<
801.071	27386
801.214	27412
801.356	27081
801.499	27127
801.641	26979
801.783	27009
801.926	27066
802.068	26956
802.211	26921
802.353	26800
802.496	26731
802.638	26636
802.78	26632
802.923	26663
803.065	26590
803.208	26583
803.35	26667
803.492	26739
803.635	26792
803.777	26864
803.919	26686
804.061	27165
804.204	26788
804.346	26952
804.488	26670
804.63	26830
804.773	26632
804.915	26811
805.057	26845
805.199	26746
805.341	26887
805.483	26971
805.626	26906
805.768	26777
805.91	26986
806.052	26883
806.194	26781
806.336	27161
806.478	27005
806.62	26830
806.762	26982
806.904	27203
807.046	27496
807.188	27348
807.33	27370
807.472	27405
807.614	27268
807.756	27051
807.898	27222
808.04	26975
808.182	27207
808.324	27131
808.465	27272
808.607	27416
808.749	27492
808.891	27641
809.033	27591
809.174	27523
809.316	27572
809.458	27534
809.6	27450
809.741	27583
809.883	27561
810.025	27880
810.166	27838
810.308	27793
810.45	27751
810.591	27599
810.733	27591
810.875	27469
811.016	27348
811.158	27344
811.299	27648
811.441	27728
811.582	27766
811.724	27462
811.865	27519
812.007	27526
812.148	27564
812.29	27564
812.431	27606
812.573	27732
812.714	27888
812.855	28109
812.997	28109
813.138	28276
813.279	28204
813.421	28074
813.562	27983
813.703	27831
813.845	27724
813.986	27420
814.127	27180
814.268	27085
814.41	27272
814.551	27203
814.692	27264
814.833	27150
814.974	27188
815.115	27169
815.256	27093
815.397	27104
815.539	27032
815.68	26994
815.821	26998
815.962	27013
816.103	26933
816.244	26990
816.385	26735
816.526	26739
816.666	26739
816.807	26480
816.948	26598
817.089	26575
817.23	26579
817.371	26480
817.512	26503
817.653	26488
817.793	26476
817.934	26434
818.075	26503
818.216	26427
818.356	26423
818.497	26355
818.638	26271
818.778	26202
818.919	26309
819.06	26187
819.2	26320
819.341	26488
819.481	26499
819.622	26750
819.762	26864
819.903	26644
820.043	26655
820.184	26480
820.324	26583
820.465	26571
820.605	26640
820.746	26613
820.886	26556
821.026	26625
821.167	26503
821.307	26648
821.447	26590
821.588	26507
821.728	26317
821.868	26081
822.008	25826
822.149	25932
822.289	25818
822.429	25727
822.569	25750
822.709	25491
822.849	25537
822.99	25441
823.13	25464
823.27	25369
823.41	25312
823.55	25137
823.69	25324
823.83	25206
823.97	25084
824.11	25091
824.25	25107
824.389	25057
824.529	25076
824.669	25046
824.809	25164
824.949	25236
825.089	25019
825.228	25065
825.368	24981
825.508	24760
825.648	24863
825.787	24981
825.927	25122
826.067	24897
826.206	25015
826.346	24882
826.485	24943
826.625	24890
826.765	25133
826.904	24935
827.044	24730
827.183	24593
827.323	24566
827.462	24726
827.601	24677
827.741	24631
827.88	24654
828.02	24574
828.159	24604
828.298	24601
828.437	24730
828.577	24669
828.716	24700
828.855	24665
828.994	24388
829.134	24216
829.273	24536
829.412	24433
829.551	24186
829.69	24486
829.829	24452
829.968	24342
830.107	24350
830.246	24372
830.385	24258
830.524	24243
830.663	24125
830.802	24167
830.941	24034
831.08	23920
831.219	24091
831.357	24034
831.496	24296
831.635	23939
831.774	23847
831.913	23946
832.051	23832
832.19	23817
832.329	23760
832.467	23699
832.606	23611
832.744	23581
832.883	23554
833.022	23627
833.16	23714
833.299	23760
833.437	23718
833.576	23695
833.714	23847
833.852	23745
833.991	23707
834.129	23798
834.267	23718
834.406	23680
834.544	23832
834.682	23646
834.821	23798
834.959	23821
835.097	23668
835.235	23775
835.373	23699
835.511	23745
835.65	23501
835.788	23783
835.926	23490
836.064	23360
836.202	23372
836.34	23638
836.478	23589
836.615	23562
836.753	23707
836.891	23608
837.029	23672
837.167	23623
837.305	23512
837.443	23509
837.58	23341
837.718	23573
837.856	23429
837.993	23406
838.131	23482
838.269	23322
838.406	23288
838.544	23318
838.681	23033
838.819	23044
838.956	22934
839.094	22908
839.231	23025
839.369	23052
839.506	23334
839.643	23041
839.781	22774
839.918	22824
840.055	22877
840.193	22900
840.33	22900
840.467	22752
840.604	22831
840.742	23220
840.879	22698
841.016	22710
841.153	22744
841.29	22968
841.427	22755
841.564	22778
841.701	22698
841.838	22774
841.975	22706
842.112	22717
842.249	22694
842.385	22584
842.522	22744
842.659	22660
842.796	22672
842.933	22489
843.069	22675
843.206	22424
843.343	22725
843.479	22580
843.616	22561
843.752	22268
843.889	22379
844.025	22440
844.162	22253
844.298	22436
844.435	22337
844.571	22318
844.708	22363
844.844	22599
844.98	22554
845.117	22348
845.253	22291
845.389	22204
845.525	22131
845.661	22276
845.798	22112
845.934	22177
846.07	21983
846.206	22192
846.342	22242
846.478	22070
846.614	21892
846.75	21728
846.886	21838
847.022	21987
847.158	21907
847.294	21819
847.429	21945
847.565	21838
847.701	22078
847.837	21580
847.972	21488
848.108	21625
848.244	21610
848.379	21595
848.515	21424
848.65	21393
848.786	21492
848.921	21477
849.057	21576
849.192	21428
849.328	21435
849.463	21557
849.598	21405
849.734	21298
849.869	21272
850.004	21302
850.14	21233
850.275	21268
850.41	21081
850.545	21066
850.68	21135
850.815	21252
850.95	21146
851.085	21329
851.22	21317
851.355	21211
851.49	21104
851.625	21256
851.76	21039
851.895	21096
852.03	21020
852.165	21287
852.299	21211
852.434	21370
852.569	21192
852.703	21233
852.838	21332
852.973	21256
853.107	21401
853.242	21123
853.376	21066
853.511	20921
853.645	20861
853.78	21135
853.914	21001
854.048	20887
854.183	21005
854.317	21150
854.451	21260
854.585	20975
854.72	20998
854.854	21032
854.988	20998
855.122	21028
855.256	20963
855.39	20975
855.524	20986
855.658	21066
855.792	21055
855.926	21051
856.06	21074
856.194	21112
856.327	21085
856.461	20944
856.595	21070
856.729	21009
856.862	21173
856.996	21089
857.13	21119
857.263	21070
857.397	20986
857.53	21051
857.664	20994
857.797	21074
857.931	21051
858.064	21047
858.197	20994
858.331	21024
858.464	20986
858.597	20899
858.731	20967
858.864	21062
858.997	20842
859.13	20994
859.263	21047
859.396	21112
859.529	20941
859.662	20914
859.795	20853
859.928	21051
860.061	21165
860.194	21237
860.327	21047
860.46	21013
860.592	21138
860.725	21062
860.858	21150
860.99	21013
861.123	20998
861.256	20777
861.388	21013
861.521	21785
861.653	20872
861.786	20800
861.918	20823
862.05	20861
862.183	20933
862.315	20960
862.447	21066
862.58	20781
862.712	20758
862.844	20746
862.976	20861
863.108	20838
863.24	21188
863.372	20663
863.504	20674
863.636	20598
863.768	20731
863.9	20773
864.032	20689
864.164	20686
864.296	20902
864.428	20815
864.559	20819
864.691	20796
864.823	20857
864.954	20758
865.086	20697
865.217	20663
865.349	20621
865.48	20712
865.612	20670
865.743	20743
865.875	20731
866.006	20594
866.137	20648
866.269	20644
866.4	20663
866.531	20667
866.662	20564
866.793	20526
866.924	20594
867.055	20571
867.186	20484
867.317	20537
867.448	20423
867.579	20556
867.71	20495
867.841	20423
867.972	20526
868.103	20549
868.233	20568
868.364	20609
868.495	20697
868.625	20872
868.756	21013
868.886	20762
869.017	20785
869.147	20929
869.278	20857
869.408	20876
869.539	20724
869.669	20819
869.799	20921
869.929	20960
870.06	21085
870.19	21176
870.32	21131
870.45	21112
870.58	21264
870.71	21302
870.84	21252
870.97	21127
871.1	21249
871.23	21344
871.36	21264
871.489	21313
871.619	21351
871.749	21348
871.879	21458
872.008	21481
872.138	21374
872.267	21408
872.397	21412
872.526	21154
872.656	21142
872.785	21211
872.915	21405
873.044	21564
873.173	21466
873.303	21393
873.432	21424
873.561	21500
873.69	21500
873.819	21447
873.948	21625
874.077	21481
874.206	21393
874.335	21439
874.464	21561
874.593	21679
874.722	21633
874.851	21804
874.979	21591
875.108	21652
875.237	21526
875.365	21382
875.494	21667
875.623	21766
875.751	21591
875.88	21583
876.008	21838
876.136	21892
876.265	22051
876.393	22181
876.521	22067
876.65	22101
876.778	22112
876.906	21972
877.034	22017
877.162	21937
877.29	21994
877.418	22063
877.546	22078
877.674	21968
877.802	21903
877.93	22048
878.058	22006
878.185	21915
878.313	22040
878.441	21941
878.568	21945
878.696	21918
878.824	22002
878.951	22139
879.079	22162
879.206	22348
879.333	22150
879.461	22029
879.588	22131
879.715	22162
879.842	22322
879.97	21994
880.097	21838
880.224	21762
880.351	21953
880.478	21804
880.605	21694
880.732	21831
880.859	22040
880.986	21838
881.112	21800
881.239	21606
881.366	21545
881.493	21473
881.619	21344
881.746	21439
881.872	21336
881.999	21298
882.125	21393
882.252	21439
882.378	21302
882.505	21576
882.631	21218
882.757	20994
882.883	21169
883.01	21081
883.136	20921
883.262	20975
883.388	20960
883.514	21024
883.64	21169
883.766	21085
883.892	20804
884.018	20971
884.143	20979
884.269	21116
884.395	20887
884.52	20762
884.646	20804
884.772	20590
884.897	20724
885.023	20842
885.148	20845
885.274	21009
885.399	20857
885.524	20708
885.65	20705
885.775	20777
885.9	20838
886.025	20765
886.15	20800
886.275	20705
886.4	20705
886.525	20762
886.65	20640
886.775	20762
886.9	20819
887.025	20975
887.149	20823
887.274	20514
887.399	20617
887.523	20488
887.648	20514
887.773	20404
887.897	20579
888.021	20526
888.146	20507
888.27	20602
888.395	20640
888.519	20613
888.643	20590
888.767	20541
888.891	20511
889.015	20385
889.139	20393
889.263	20332
889.387	20533
889.511	20552
889.635	20423
889.759	20324
889.883	20263
890.006	20256
890.13	20351
890.254	20229
890.377	20294
890.501	20237
890.624	20096
890.748	20081
890.871	19940
890.995	19883
891.118	19887
891.241	19928
891.364	19864
891.488	20111
891.611	19898
891.734	19959
891.857	19970
891.98	19837
892.103	19902
892.226	19818
892.349	19856
892.471	19647
892.594	19738
892.717	19909
892.839	19738
892.962	19875
893.085	19845
893.207	19811
893.33	19677
893.452	19765
893.575	19913
893.697	19875
893.819	19974
893.941	19917
894.064	19951
894.186	19746
894.308	19738
894.43	19902
894.552	20031
894.674	19841
894.796	19723
894.918	19738
895.04	19727
895.161	19879
895.283	19807
895.405	19620
895.526	19845
895.648	19807
895.769	19791
895.891	19868
896.012	19917
896.134	19902
896.255	19902
896.376	19643
896.498	19868
896.619	19841
896.74	19944
896.861	19864
896.982	20221
897.103	20229
897.224	20077
897.345	20012
897.466	20005
897.587	20020
897.708	20214
897.828	20153
897.949	19974
898.07	19727
898.19	20005
898.311	20027
898.431	19963
898.552	20077
898.672	20081
898.792	20077
898.913	20020
899.033	19951
899.153	19868
899.273	19753
899.393	19738
899.513	19803
899.633	19734
899.753	19818
899.873	19826
899.993	19799
900.113	19753
900.232	19734
900.352	19731
900.472	19575
900.591	19506
900.711	19529
900.83	19499
900.95	19635
901.069	19628
901.189	19438
901.308	19255
901.427	19152
901.546	19259
901.665	19137
901.784	19194
901.904	19053
902.023	18943
902.141	18665
902.26	18688
902.379	18741
902.498	18563
902.617	18601
902.735	18741
902.854	18688
902.973	18620
903.091	18353
903.21	18311
903.328	18372
903.446	18251
903.565	18140
903.683	18095
903.801	18049
903.919	18091
904.038	18121
904.156	17916
904.274	18057
904.392	17817
904.51	17935
904.627	17901
904.745	17980
904.863	17923
904.981	17741
905.098	17630
905.216	17619
905.334	17722
905.451	17653
905.569	17619
905.686	17687
905.803	17710
905.921	17398
906.038	17524
906.155	17486
906.272	17200
906.389	17322
906.506	17151
906.623	17220
906.74	17204
906.857	17018
906.974	16972
907.091	17254
907.208	17288
907.324	17220
907.441	16984
907.557	16949
907.674	16824
907.79	16793
907.907	16866
908.023	16843
908.139	16858
908.256	16835
908.372	16763
908.488	16733
908.604	16698
908.72	16531
908.836	16634
908.952	16569
909.068	16611
909.184	16759
909.3	16554
909.415	16565
909.531	16417
909.647	16379
909.762	16287
909.878	16268
909.993	16314
910.108	16287
910.224	16303
910.339	16192
910.454	16284
910.57	16071
910.685	15922
910.8	16284
910.915	16272
911.03	16029
911.145	15953
911.259	15854
911.374	15854
911.489	15854
911.604	15739
911.718	15629
911.833	15698
911.947	15519
912.062	15473
912.176	15572
912.291	15675
912.405	15644
912.519	15816
912.633	15789
912.748	15713
912.862	15564
912.976	15542
913.09	15359
913.204	15447
913.318	15485
913.431	15462
913.545	15595
913.659	15542
913.772	15450
913.886	15378
914	15199
914.113	15355
914.226	15412
914.34	15264
914.453	15157
914.566	15382
914.68	15081
914.793	15135
914.906	14937
915.019	14861
915.132	14864
915.245	14910
915.358	14986
915.47	14914
915.583	14952
915.696	14804
915.809	14948
915.921	14952
916.034	14830
916.146	14815
916.259	14743
916.371	14804
916.483	14815
916.595	14777
916.708	14765
916.82	14720
916.932	14594
917.044	14693
917.156	14651
917.268	14541
917.38	14621
917.491	14522
917.603	14492
917.715	14636
917.826	14640
917.938	14552
918.049	14389
918.161	14503
918.272	14659
918.384	14606
918.495	14541
918.606	14313
918.717	14248
918.828	14336
918.939	14320
919.05	14309
919.161	14221
919.272	14065
919.383	14237
919.494	14358
919.604	14511
919.715	14358
919.826	14119
919.936	14187
920.047	14423
920.157	14233
920.267	14317
920.378	14313
920.488	14259
920.598	14393
920.708	14590
920.818	14454
920.928	14454
921.038	14541
921.148	14545
921.258	14233
921.368	14081
921.477	14001
921.587	13967
921.697	13947
921.806	14161
921.916	13818
922.025	13784
922.134	13605
922.244	13647
922.353	13620
922.462	13556
922.571	13514
922.68	13430
922.789	13221
922.898	13304
923.007	13270
923.116	13411
923.224	13206
923.333	13247
923.442	13183
923.55	13164
923.659	13206
923.767	13198
923.876	13038
923.984	13206
924.092	12996
924.201	13107
924.309	13110
924.417	13103
924.525	12935
924.633	12981
924.741	13936
924.849	12776
924.956	12947
925.064	12787
925.172	12642
925.279	12753
925.387	12738
925.494	12787
925.602	12829
925.709	12875
925.816	12601
925.924	12719
926.031	12703
926.138	12646
926.245	12658
926.352	12460
926.459	12703
926.566	12730
926.673	12650
926.779	12627
926.886	12388
926.993	12338
927.099	12315
927.206	12243
927.312	12330
927.419	12369
927.525	12323
927.631	12342
927.737	12273
927.843	12140
927.95	12095
928.056	12087
928.162	12129
928.267	12247
928.373	12700
928.479	12194
928.585	11973
928.69	12053
928.796	12125
928.901	11996
929.007	11885
929.112	11980
929.218	11977
929.323	11923
929.428	11771
929.533	12053
929.638	11832
929.743	11779
929.848	11923
929.953	11775
930.058	11665
930.163	11547
930.267	11505
930.372	11718
930.477	11520
930.581	11714
930.685	11646
930.79	11410
930.894	11452
930.998	11509
931.103	11543
931.207	11235
931.311	11143
931.415	11105
931.519	10839
931.623	10854
