Data from test_V78500241_2067.txt Node
Date: Fri Mar 25 15:24:15 CST 2022
User: usil
Spectrometer: V785-0024
Trigger mode: 0
Integration Time (sec): 4.000000E-1
Scans to average: 1
Nonlinearity correction enabled: false
Boxcar width: 0
Storing dark spectrum: false
XAxis mode: Wavelengths
Number of Pixels in Spectrum: 1024
>>>>>Begin Spectral Data<<<<<
801.071	27865
801.214	27675
801.356	27542
801.499	27492
801.641	27382
801.783	27222
801.926	27294
802.068	27272
802.211	27230
802.353	27116
802.496	27036
802.638	26864
802.78	26979
802.923	26929
803.065	26830
803.208	26895
803.35	26933
803.492	27150
803.635	27150
803.777	26960
803.919	27169
804.061	27466
804.204	27237
804.346	27127
804.488	27100
804.63	27173
804.773	26975
804.915	27161
805.057	27359
805.199	27188
805.341	27298
805.483	27325
805.626	27268
805.768	27230
805.91	27363
806.052	27367
806.194	27211
806.336	27473
806.478	27382
806.62	27477
806.762	27359
806.904	27519
807.046	27759
807.188	27576
807.33	27793
807.472	27743
807.614	27557
807.756	27698
807.898	27667
808.04	27633
808.182	27481
808.324	27583
808.465	27523
808.607	27751
808.749	27968
808.891	28059
809.033	28063
809.174	27964
809.316	27835
809.458	27937
809.6	27888
809.741	27998
809.883	28013
810.025	28284
810.166	28242
810.308	28101
810.45	28200
810.591	28040
810.733	28070
810.875	27865
811.016	27785
811.158	27797
811.299	27914
811.441	27972
811.582	28093
811.724	27846
811.865	27991
812.007	27804
812.148	27960
812.29	27888
812.431	27979
812.573	28074
812.714	28223
812.855	28512
812.997	28478
813.138	28634
813.279	28603
813.421	28428
813.562	28363
813.703	28177
813.845	27934
813.986	27873
814.127	27827
814.268	27511
814.41	27648
814.551	27629
814.692	27427
814.833	27526
814.974	27545
815.115	27595
815.256	27359
815.397	27507
815.539	27427
815.68	27378
815.821	27370
815.962	27454
816.103	27325
816.244	27340
816.385	27157
816.526	27096
816.666	26982
816.807	26823
816.948	26902
817.089	26910
817.23	26895
817.371	26819
817.512	26891
817.653	26792
817.793	26746
817.934	26891
818.075	27142
818.216	26857
818.356	26811
818.497	26815
818.638	26560
818.778	26560
818.919	26530
819.06	26746
819.2	26815
819.341	26781
819.481	26842
819.622	27024
819.762	27249
819.903	27108
820.043	26994
820.184	27089
820.324	27039
820.465	26940
820.605	26929
820.746	27104
820.886	26804
821.026	27028
821.167	26792
821.307	26940
821.447	26887
821.588	26758
821.728	26693
821.868	26621
822.008	26438
822.149	26461
822.289	26210
822.429	26062
822.569	25993
822.709	25982
822.849	26001
822.99	25963
823.13	25795
823.27	25731
823.41	25670
823.55	25674
823.69	25696
823.83	25693
823.97	25651
824.11	25495
824.25	25502
824.389	25468
824.529	25559
824.669	25483
824.809	25518
824.949	25514
825.089	25510
825.228	25430
825.368	25362
825.508	25362
825.648	25373
825.787	25362
825.927	25491
826.067	25297
826.206	25168
826.346	25403
826.485	25407
826.625	25377
826.765	25487
826.904	25285
827.044	25240
827.183	25099
827.323	25141
827.462	25091
827.601	24932
827.741	24977
827.88	25042
828.02	24985
828.159	24966
828.298	25027
828.437	25038
828.577	25023
828.716	25080
828.855	24871
828.994	24768
829.134	24783
829.273	24802
829.412	24753
829.551	24692
829.69	24817
829.829	24821
829.968	24966
830.107	24787
830.246	24684
830.385	24669
830.524	24700
830.663	24502
830.802	24498
830.941	24551
831.08	24251
831.219	24452
831.357	24369
831.496	24719
831.635	24327
831.774	24247
831.913	24209
832.051	24057
832.19	24095
832.329	24079
832.467	24163
832.606	23961
832.744	23984
832.883	24064
833.022	24057
833.16	23999
833.299	23977
833.437	23969
833.576	24110
833.714	24121
833.852	24106
833.991	24186
834.129	24213
834.267	24174
834.406	24049
834.544	24205
834.682	23954
834.821	24098
834.959	24155
835.097	24015
835.235	24232
835.373	24155
835.511	23904
835.65	23996
835.788	23954
835.926	23878
836.064	23760
836.202	23817
836.34	23935
836.478	24079
836.615	23855
836.753	23779
836.891	23965
837.029	23863
837.167	23859
837.305	23889
837.443	23756
837.58	23703
837.718	23790
837.856	23840
837.993	23634
838.131	23741
838.269	23551
838.406	23668
838.544	23509
838.681	23501
838.819	23425
838.956	23299
839.094	23315
839.231	23292
839.369	23467
839.506	23558
839.643	23516
839.781	23174
839.918	23174
840.055	23216
840.193	23307
840.33	23147
840.467	23204
840.604	23121
840.742	23299
840.879	23033
841.016	23060
841.153	23124
841.29	23292
841.427	23231
841.564	23178
841.701	23124
841.838	23124
841.975	23003
842.112	23094
842.249	22949
842.385	22873
842.522	23071
842.659	22927
842.796	22980
842.933	22885
843.069	22873
843.206	22881
843.343	23010
843.479	22866
843.616	22869
843.752	22630
843.889	22713
844.025	22896
844.162	22618
844.298	22752
844.435	22626
844.571	22637
844.708	22717
844.844	22812
844.98	22843
845.117	22767
845.253	22622
845.389	22550
845.525	22672
845.661	22546
845.798	22413
845.934	22390
846.07	22337
846.206	22489
846.342	22641
846.478	22386
846.614	22105
846.75	22067
846.886	22147
847.022	22230
847.158	22196
847.294	22124
847.429	22272
847.565	22074
847.701	22402
847.837	21854
847.972	21884
848.108	21888
848.244	22002
848.379	21713
848.515	21682
848.65	21770
848.786	21819
848.921	21732
849.057	21770
849.192	21884
849.328	21667
849.463	21717
849.598	21823
849.734	21720
849.869	21488
850.004	21507
850.14	21603
850.275	21564
850.41	21355
850.545	21538
850.68	21511
850.815	21549
850.95	21393
851.085	21720
851.22	21606
851.355	21511
851.49	21511
851.625	21469
851.76	21370
851.895	21401
852.03	21469
852.165	21359
852.299	21416
852.434	21504
852.569	21500
852.703	21492
852.838	21534
852.973	21587
853.107	21679
853.242	21447
853.376	21226
853.511	21230
853.645	21268
853.78	21428
853.914	21344
854.048	21283
854.183	21405
854.317	21374
854.451	21389
854.585	21332
854.72	21382
854.854	21329
854.988	21264
855.122	21351
855.256	21226
855.39	21218
855.524	21382
855.658	21287
855.792	21252
855.926	21370
856.06	21378
856.194	21481
856.327	21272
856.461	21207
856.595	21150
856.729	21332
856.862	21310
856.996	21370
857.13	21428
857.263	21405
857.397	21310
857.53	21344
857.664	21291
857.797	21348
857.931	21435
858.064	21374
858.197	21450
858.331	21340
858.464	21241
858.597	21169
858.731	21207
858.864	21294
858.997	21268
859.13	21272
859.263	21389
859.396	21332
859.529	21332
859.662	21336
859.795	21279
859.928	21325
860.061	21466
860.194	21549
860.327	21359
860.46	21348
860.592	21542
860.725	21393
860.858	21374
860.99	21332
861.123	21203
861.256	21237
861.388	21336
861.521	21934
861.653	21241
861.786	21138
861.918	21138
862.05	21154
862.183	21363
862.315	21222
862.447	21397
862.58	21195
862.712	21157
862.844	21017
862.976	21161
863.108	21150
863.24	21389
863.372	21020
863.504	21119
863.636	20982
863.768	21135
863.9	20948
864.032	20933
864.164	20952
864.296	21146
864.428	21100
864.559	21001
864.691	21188
864.823	21138
864.954	20956
865.086	20887
865.217	21047
865.349	20731
865.48	20872
865.612	20986
865.743	21070
865.875	20914
866.006	20929
866.137	20906
866.269	20914
866.4	20906
866.531	20826
866.662	20864
866.793	20834
866.924	20826
867.055	20727
867.186	20826
867.317	20819
867.448	20674
867.579	20887
867.71	20895
867.841	20697
867.972	20845
868.103	20868
868.233	20864
868.364	20773
868.495	20986
868.625	21020
868.756	21093
868.886	21039
869.017	21089
869.147	21260
869.278	21180
869.408	21173
869.539	21074
869.669	21173
869.799	21116
869.929	21237
870.06	21214
870.19	21428
870.32	21477
870.45	21507
870.58	21485
870.71	21641
870.84	21595
870.97	21428
871.1	21420
871.23	21610
871.36	21595
871.489	21591
871.619	21606
871.749	21660
871.879	21625
872.008	21728
872.138	21724
872.267	21637
872.397	21564
872.526	21641
872.656	21564
872.785	21675
872.915	21675
873.044	21797
873.173	21762
873.303	21728
873.432	21770
873.561	21781
873.69	21648
873.819	21652
873.948	21789
874.077	21736
874.206	21644
874.335	21679
874.464	21918
874.593	21972
874.722	21964
874.851	21895
874.979	21960
875.108	21964
875.237	21865
875.365	21732
875.494	21941
875.623	22002
875.751	21899
875.88	21899
876.008	22082
876.136	22131
876.265	22379
876.393	22485
876.521	22398
876.65	22371
876.778	22211
876.906	22360
877.034	22287
877.162	22253
877.29	22215
877.418	22284
877.546	22287
877.674	22344
877.802	22299
877.93	22276
878.058	22147
878.185	22204
878.313	22166
878.441	22440
878.568	22109
878.696	22238
878.824	22413
878.951	22436
879.079	22413
879.206	22672
879.333	22546
879.461	22310
879.588	22481
879.715	22386
879.842	22622
879.97	22291
880.097	22181
880.224	22143
880.351	22105
880.478	22124
880.605	22166
880.732	22036
880.859	22337
880.986	22150
881.112	22238
881.239	22059
881.366	21724
881.493	21800
881.619	21583
881.746	21720
881.872	21705
881.999	21690
882.125	21637
882.252	21732
882.378	21641
882.505	21610
882.631	21652
882.757	21363
882.883	21473
883.01	21462
883.136	21370
883.262	21241
883.388	21249
883.514	21367
883.64	21401
883.766	21370
883.892	21135
884.018	21207
884.143	21336
884.269	21374
884.395	21146
884.52	21024
884.646	21017
884.772	21039
884.897	20952
885.023	21058
885.148	21017
885.274	21169
885.399	21192
885.524	20906
885.65	21074
885.775	21039
885.9	21013
886.025	21104
886.15	21100
886.275	20960
886.4	20944
886.525	20982
886.65	20902
886.775	20967
886.9	21077
887.025	21180
887.149	21119
887.274	20788
887.399	20769
887.523	20762
887.648	20727
887.773	20678
887.897	20834
888.021	20842
888.146	20674
888.27	20819
888.395	20899
888.519	20781
888.643	20849
888.767	20880
888.891	20746
889.015	20606
889.139	20644
889.263	20450
889.387	20678
889.511	20880
889.635	20724
889.759	20549
889.883	20609
890.006	20705
890.13	20678
890.254	20556
890.377	20560
890.501	20389
890.624	20301
890.748	20465
890.871	20168
890.995	20088
891.118	20176
891.241	20229
891.364	20259
891.488	20278
891.611	20126
891.734	20187
891.857	20309
891.98	20180
892.103	20191
892.226	20191
892.349	20115
892.471	20058
892.594	20130
892.717	20077
892.839	20096
892.962	20016
893.085	20153
893.207	20031
893.33	19814
893.452	19978
893.575	20081
893.697	20191
893.819	20183
893.941	20286
894.064	20172
894.186	20039
894.308	19917
894.43	20096
894.552	20218
894.674	20142
894.796	19974
894.918	20115
895.04	20046
895.161	20111
895.283	20107
895.405	20024
895.526	20088
895.648	20073
895.769	20111
895.891	20145
896.012	20088
896.134	20020
896.255	20081
896.376	20001
896.498	20062
896.619	20054
896.74	20069
896.861	20077
896.982	20362
897.103	20587
897.224	20328
897.345	20195
897.466	20278
897.587	20324
897.708	20275
897.828	20206
897.949	20294
898.07	20176
898.19	20221
898.311	20210
898.431	20187
898.552	20187
898.672	20286
898.792	20309
898.913	20256
899.033	20096
899.153	20069
899.273	19967
899.393	20069
899.513	19993
899.633	19993
899.753	20119
899.873	19909
899.993	20122
900.113	19997
900.232	19932
900.352	19909
900.472	19769
900.591	19799
900.711	19826
900.83	19674
900.95	19909
901.069	19894
901.189	19685
901.308	19510
901.427	19244
901.546	19472
901.665	19434
901.784	19422
901.904	19202
902.023	19160
902.141	19046
902.26	18916
902.379	19008
902.498	18916
902.617	18821
902.735	18916
902.854	18954
902.973	18837
903.091	18665
903.21	18589
903.328	18597
903.446	18506
903.565	18422
903.683	18315
903.801	18243
903.919	18391
904.038	18365
904.156	18133
904.274	18235
904.392	18064
904.51	18213
904.627	18060
904.745	18201
904.863	18174
904.981	17923
905.098	17824
905.216	17779
905.334	17882
905.451	17756
905.569	17817
905.686	17840
905.803	17817
905.921	17543
906.038	17672
906.155	17589
906.272	17512
906.389	17493
906.506	17444
906.623	17478
906.74	17379
906.857	17326
906.974	17258
907.091	17448
907.208	17463
907.324	17493
907.441	17242
907.557	17178
907.674	17071
907.79	16919
907.907	17064
908.023	17022
908.139	17117
908.256	16972
908.372	16923
908.488	16824
908.604	16885
908.72	16892
908.836	16866
908.952	16790
909.068	16763
909.184	16877
909.3	16767
909.415	16862
909.531	16831
909.647	16535
909.762	16455
909.878	16527
909.993	16489
910.108	16497
910.224	16428
910.339	16405
910.454	16405
910.57	16356
910.685	16230
910.8	16538
910.915	16466
911.03	16253
911.145	16261
911.259	16169
911.374	16082
911.489	16048
911.604	15903
911.718	15743
911.833	15838
911.947	15781
912.062	15671
912.176	15827
912.291	15816
912.405	15759
912.519	16032
912.633	16029
912.748	15842
912.862	15827
912.976	15656
913.09	15526
913.204	15656
913.318	15690
913.431	15774
913.545	15728
913.659	15679
913.772	15606
913.886	15545
914	15458
914.113	15557
914.226	15576
914.34	15500
914.453	15382
914.566	15408
914.68	15351
914.793	15287
914.906	15142
915.019	15070
915.132	15020
915.245	15051
915.358	15108
915.47	15135
915.583	15036
915.696	15070
915.809	15226
915.921	15180
916.034	15100
916.146	14982
916.259	14830
916.371	15093
916.483	14979
916.595	14857
916.708	14842
916.82	14914
916.932	14899
917.044	14883
917.156	14830
917.268	14648
917.38	14750
917.491	14587
917.603	14750
917.715	14701
917.826	14743
917.938	14674
918.049	14484
918.161	14545
918.272	14815
918.384	14773
918.495	14640
918.606	14549
918.717	14442
918.828	14457
918.939	14488
919.05	14396
919.161	14446
919.272	14256
919.383	14434
919.494	14442
919.604	14686
919.715	14415
919.826	14294
919.936	14400
920.047	14518
920.157	14419
920.267	14640
920.378	14461
920.488	14355
920.598	14629
920.708	14765
920.818	14514
920.928	14541
921.038	14762
921.148	14792
921.258	14355
921.368	14202
921.477	14199
921.587	14221
921.697	14077
921.806	14119
921.916	14077
922.025	13826
922.134	13871
922.244	13765
922.353	13849
922.462	13746
922.571	13655
922.68	13495
922.789	13354
922.898	13544
923.007	13419
923.116	13499
923.224	13457
923.333	13483
923.442	13327
923.55	13289
923.659	13282
923.767	13316
923.876	13217
923.984	13373
924.092	13202
924.201	13255
924.309	13266
924.417	13114
924.525	13171
924.633	13156
924.741	13906
924.849	12890
924.956	13042
925.064	13000
925.172	12798
925.279	12715
925.387	12897
925.494	12897
925.602	12943
925.709	12852
925.816	12760
925.924	12745
926.031	12890
926.138	12840
926.245	12905
926.352	12711
926.459	12859
926.566	12859
926.673	12764
926.779	12696
926.886	12650
926.993	12437
927.099	12471
927.206	12452
927.312	12338
927.419	12486
927.525	12429
927.631	12490
927.737	12380
927.843	12247
927.95	12228
928.056	12254
928.162	12304
928.267	12300
928.373	12894
928.479	12319
928.585	12102
928.69	12136
928.796	12292
928.901	12155
929.007	12068
929.112	12133
929.218	12178
929.323	12117
929.428	11912
929.533	12072
929.638	11920
929.743	11958
929.848	12049
929.953	11927
930.058	11832
930.163	11775
930.267	11627
930.372	11737
930.477	11634
930.581	11859
930.685	11668
930.79	11589
930.894	11581
930.998	11532
931.103	11665
931.207	11265
931.311	11288
931.415	11170
931.519	10957
931.623	10942
