Data from test_V78500241_208.txt Node
Date: Fri Mar 25 15:11:18 CST 2022
User: usil
Spectrometer: V785-0024
Trigger mode: 0
Integration Time (sec): 4.000000E-1
Scans to average: 1
Nonlinearity correction enabled: false
Boxcar width: 0
Storing dark spectrum: false
XAxis mode: Wavelengths
Number of Pixels in Spectrum: 1024
>>>>>Begin Spectral Data<<<<<
801.071	27964
801.214	27937
801.356	27736
801.499	27671
801.641	27542
801.783	27485
801.926	27561
802.068	27321
802.211	27291
802.353	27367
802.496	27233
802.638	27218
802.78	27169
802.923	26998
803.065	27154
803.208	26994
803.35	27001
803.492	27184
803.635	27310
803.777	27043
803.919	27180
804.061	27519
804.204	27351
804.346	27180
804.488	27176
804.63	27096
804.773	27192
804.915	27138
805.057	27329
805.199	27188
805.341	27173
805.483	27165
805.626	27291
805.768	27294
805.91	27275
806.052	27256
806.194	27260
806.336	27488
806.478	27302
806.62	27184
806.762	27275
806.904	27534
807.046	27717
807.188	27660
807.33	27580
807.472	27682
807.614	27477
807.756	27545
807.898	27462
808.04	27397
808.182	27298
808.324	27504
808.465	27370
808.607	27686
808.749	27876
808.891	27983
809.033	27953
809.174	27876
809.316	27899
809.458	27987
809.6	27899
809.741	27914
809.883	28078
810.025	27975
810.166	28120
810.308	28131
810.45	28040
810.591	27888
810.733	27812
810.875	27663
811.016	27747
811.158	27831
811.299	27922
811.441	27892
811.582	28006
811.724	27850
811.865	27743
812.007	27739
812.148	27720
812.29	27892
812.431	27964
812.573	28181
812.714	28105
812.855	28204
812.997	28436
813.138	28500
813.279	28348
813.421	28303
813.562	28303
813.703	28181
813.845	28032
813.986	27835
814.127	27606
814.268	27485
814.41	27530
814.551	27386
814.692	27557
814.833	27492
814.974	27405
815.115	27557
815.256	27294
815.397	27157
815.539	27222
815.68	27161
815.821	27192
815.962	27287
816.103	27233
816.244	27108
816.385	27005
816.526	26807
816.666	26689
816.807	26590
816.948	26716
817.089	26697
817.23	26754
817.371	26560
817.512	26613
817.653	26651
817.793	26613
817.934	26568
818.075	26678
818.216	26773
818.356	26499
818.497	26522
818.638	26240
818.778	26252
818.919	26385
819.06	26377
819.2	26469
819.341	26408
819.481	26514
819.622	26629
819.762	26929
819.903	26906
820.043	26564
820.184	26678
820.324	26621
820.465	26636
820.605	26629
820.746	26644
820.886	26473
821.026	26564
821.167	26579
821.307	26667
821.447	26495
821.588	26503
821.728	26324
821.868	26153
822.008	26065
822.149	26001
822.289	25978
822.429	25761
822.569	25712
822.709	25674
822.849	25594
822.99	25457
823.13	25426
823.27	25483
823.41	25316
823.55	25213
823.69	25247
823.83	25232
823.97	25293
824.11	25110
824.25	25023
824.389	24981
824.529	25232
824.669	25091
824.809	25156
824.949	25228
825.089	25122
825.228	25084
825.368	25015
825.508	25012
825.648	24989
825.787	25008
825.927	24985
826.067	24909
826.206	24871
826.346	24951
826.485	24958
826.625	24779
826.765	24977
826.904	24871
827.044	24593
827.183	24658
827.323	24642
827.462	24658
827.601	24741
827.741	24555
827.88	24639
828.02	24525
828.159	24566
828.298	24650
828.437	24642
828.577	24464
828.716	24665
828.855	24494
828.994	24273
829.134	24220
829.273	24338
829.412	24201
829.551	24213
829.69	24235
829.829	24399
829.968	24422
830.107	24308
830.246	24308
830.385	24270
830.524	24117
830.663	24178
830.802	23980
830.941	23901
831.08	23809
831.219	23809
831.357	23965
831.496	24091
831.635	23863
831.774	23638
831.913	23756
832.051	23630
832.19	23608
832.329	23543
832.467	23634
832.606	23573
832.744	23425
832.883	23577
833.022	23406
833.16	23531
833.299	23566
833.437	23551
833.576	23535
833.714	23566
833.852	23737
833.991	23634
834.129	23562
834.267	23604
834.406	23490
834.544	23551
834.682	23535
834.821	23535
834.959	23779
835.097	23440
835.235	23501
835.373	23547
835.511	23455
835.65	23372
835.788	23516
835.926	23242
836.064	23128
836.202	23212
836.34	23326
836.478	23448
836.615	23383
836.753	23280
836.891	23486
837.029	23421
837.167	23356
837.305	23231
837.443	23227
837.58	23151
837.718	23315
837.856	23368
837.993	23117
838.131	23273
838.269	23044
838.406	23056
838.544	22934
838.681	22862
838.819	22896
838.956	22752
839.094	22615
839.231	22774
839.369	22885
839.506	22991
839.643	22980
839.781	22694
839.918	22535
840.055	22607
840.193	22596
840.33	22641
840.467	22554
840.604	22523
840.742	22729
840.879	22417
841.016	22554
841.153	22504
841.29	22596
841.427	22516
841.564	22615
841.701	22527
841.838	22550
841.975	22394
842.112	22398
842.249	22344
842.385	22394
842.522	22497
842.659	22428
842.796	22379
842.933	22341
843.069	22238
843.206	22253
843.343	22352
843.479	22265
843.616	22325
843.752	22120
843.889	22181
844.025	22295
844.162	22093
844.298	22173
844.435	22143
844.571	21884
844.708	22029
844.844	22109
844.98	22185
845.117	22109
845.253	22013
845.389	21922
845.525	21907
845.661	21888
845.798	21679
845.934	21770
846.07	21766
846.206	21899
846.342	21812
846.478	21732
846.614	21641
846.75	21416
846.886	21450
847.022	21599
847.158	21519
847.294	21534
847.429	21610
847.565	21542
847.701	21736
847.837	21275
847.972	21222
848.108	21252
848.244	21241
848.379	21062
848.515	21127
848.65	21093
848.786	21070
848.921	21089
849.057	21104
849.192	21165
849.328	21184
849.463	21146
849.598	21055
849.734	20921
849.869	20906
850.004	20857
850.14	20857
850.275	20769
850.41	20853
850.545	20788
850.68	20910
850.815	20754
850.95	20739
851.085	20998
851.22	20914
851.355	20849
851.49	20880
851.625	20758
851.76	20823
851.895	20640
852.03	20807
852.165	20686
852.299	20872
852.434	20857
852.569	20842
852.703	20800
852.838	20857
852.973	20895
853.107	20826
853.242	20686
853.376	20682
853.511	20499
853.645	20560
853.78	20724
853.914	20708
854.048	20575
854.183	20617
854.317	20625
854.451	20796
854.585	20575
854.72	20636
854.854	20648
854.988	20537
855.122	20625
855.256	20450
855.39	20484
855.524	20708
855.658	20689
855.792	20629
855.926	20697
856.06	20667
856.194	20735
856.327	20724
856.461	20621
856.595	20495
856.729	20568
856.862	20617
856.996	20731
857.13	20636
857.263	20705
857.397	20590
857.53	20541
857.664	20686
857.797	20693
857.931	20663
858.064	20583
858.197	20720
858.331	20602
858.464	20476
858.597	20606
858.731	20590
858.864	20609
858.997	20659
859.13	20606
859.263	20587
859.396	20697
859.529	20552
859.662	20545
859.795	20507
859.928	20552
860.061	20826
860.194	20796
860.327	20636
860.46	20556
860.592	20686
860.725	20754
860.858	20686
860.99	20564
861.123	20427
861.256	20533
861.388	20526
861.521	21260
861.653	20419
861.786	20332
861.918	20412
862.05	20522
862.183	20473
862.315	20678
862.447	20735
862.58	20511
862.712	20377
862.844	20237
862.976	20400
863.108	20377
863.24	20659
863.372	20286
863.504	20233
863.636	20320
863.768	20317
863.9	20339
864.032	20183
864.164	20320
864.296	20252
864.428	20381
864.559	20290
864.691	20309
864.823	20313
864.954	20187
865.086	20290
865.217	20256
865.349	20130
865.48	20298
865.612	20130
865.743	20229
865.875	20191
866.006	20206
866.137	20332
866.269	20157
866.4	20229
866.531	20199
866.662	20157
866.793	20183
866.924	20062
867.055	20161
867.186	20187
867.317	19940
867.448	20035
867.579	20069
867.71	20100
867.841	20100
867.972	20153
868.103	20145
868.233	20172
868.364	20107
868.495	20172
868.625	20328
868.756	20526
868.886	20339
869.017	20374
869.147	20358
869.278	20530
869.408	20358
869.539	20324
869.669	20446
869.799	20336
869.929	20518
870.06	20404
870.19	20594
870.32	20594
870.45	20758
870.58	20724
870.71	20887
870.84	20925
870.97	20758
871.1	20807
871.23	21009
871.36	20994
871.489	20804
871.619	20807
871.749	20933
871.879	20994
872.008	21188
872.138	20941
872.267	20921
872.397	20750
872.526	20708
872.656	20697
872.785	20689
872.915	20883
873.044	21089
873.173	20906
873.303	20952
873.432	21032
873.561	21058
873.69	20906
873.819	21024
873.948	21017
874.077	21009
874.206	21024
874.335	21077
874.464	21203
874.593	21249
874.722	21157
874.851	21275
874.979	21226
875.108	21275
875.237	21230
875.365	21112
875.494	21275
875.623	21260
875.751	21222
875.88	21272
876.008	21325
876.136	21298
876.265	21591
876.393	21713
876.521	21766
876.65	21770
876.778	21652
876.906	21599
877.034	21530
877.162	21629
877.29	21496
877.418	21572
877.546	21507
877.674	21553
877.802	21500
877.93	21500
878.058	21614
878.185	21416
878.313	21481
878.441	21622
878.568	21435
878.696	21504
878.824	21599
878.951	21633
879.079	21747
879.206	21816
879.333	21766
879.461	21603
879.588	21625
879.715	21743
879.842	21861
879.97	21526
880.097	21393
880.224	21488
880.351	21344
880.478	21344
880.605	21348
880.732	21424
880.859	21622
880.986	21249
881.112	21313
881.239	21268
881.366	21119
881.493	21051
881.619	20971
881.746	21001
881.872	21108
881.999	20929
882.125	21009
882.252	21070
882.378	20918
882.505	21070
882.631	20944
882.757	20819
882.883	20788
883.01	20629
883.136	20644
883.262	20545
883.388	20575
883.514	20724
883.64	20701
883.766	20678
883.892	20507
884.018	20495
884.143	20636
884.269	20804
884.395	20290
884.52	20332
884.646	20408
884.772	20218
884.897	20145
885.023	20400
885.148	20476
885.274	20549
885.399	20533
885.524	20389
885.65	20358
885.775	20332
885.9	20328
886.025	20408
886.15	20358
886.275	20248
886.4	20119
886.525	20286
886.65	20248
886.775	20221
886.9	20499
887.025	20571
887.149	20313
887.274	20195
887.399	20077
887.523	20088
887.648	20050
887.773	20122
887.897	20214
888.021	20252
888.146	20039
888.27	20180
888.395	20267
888.519	20115
888.643	20145
888.767	20237
888.891	19986
889.015	19830
889.139	19887
889.263	19826
889.387	19959
889.511	20016
889.635	20001
889.759	19887
889.883	19921
890.006	20054
890.13	20027
890.254	19864
890.377	19818
890.501	19613
890.624	19708
890.748	19731
890.871	19590
890.995	19426
891.118	19476
891.241	19438
891.364	19491
891.488	19632
891.611	19662
891.734	19525
891.857	19559
891.98	19525
892.103	19491
892.226	19529
892.349	19411
892.471	19346
892.594	19373
892.717	19476
892.839	19377
892.962	19441
893.085	19548
893.207	19438
893.33	19285
893.452	19312
893.575	19480
893.697	19411
893.819	19548
893.941	19601
894.064	19590
894.186	19384
894.308	19369
894.43	19491
894.552	19563
894.674	19533
894.796	19308
894.918	19426
895.04	19369
895.161	19529
895.283	19449
895.405	19331
895.526	19460
895.648	19521
895.769	19373
895.891	19548
896.012	19449
896.134	19529
896.255	19392
896.376	19441
896.498	19518
896.619	19487
896.74	19487
896.861	19487
896.982	19799
897.103	19875
897.224	19765
897.345	19715
897.466	19601
897.587	19727
897.708	19928
897.828	19662
897.949	19704
898.07	19491
898.19	19616
898.311	19864
898.431	19582
898.552	19632
898.672	19807
898.792	19860
898.913	19715
899.033	19556
899.153	19377
899.273	19270
899.393	19373
899.513	19495
899.633	19438
899.753	19384
899.873	19384
899.993	19449
900.113	19225
900.232	19343
900.352	19362
900.472	19194
900.591	19236
900.711	19221
900.83	19110
900.95	19247
901.069	19244
901.189	19217
901.308	18928
901.427	18795
901.546	18741
901.665	18973
901.784	18882
901.904	18578
902.023	18566
902.141	18464
902.26	18213
902.379	18490
902.498	18266
902.617	18258
902.735	18273
902.854	18262
902.973	18201
903.091	18034
903.21	18030
903.328	17950
903.446	17923
903.565	17866
903.683	17794
903.801	17665
903.919	17737
904.038	17710
904.156	17581
904.274	17577
904.392	17630
904.51	17490
904.627	17684
904.745	17543
904.863	17554
904.981	17356
905.098	17383
905.216	17250
905.334	17376
905.451	17231
905.569	17185
905.686	17311
905.803	17193
905.921	17064
906.038	17121
906.155	17025
906.272	16831
906.389	16961
906.506	16923
906.623	16816
906.74	16767
906.857	16653
906.974	16755
907.091	16820
907.208	16847
907.324	16816
907.441	16778
907.557	16500
907.674	16443
907.79	16382
907.907	16382
908.023	16538
908.139	16512
908.256	16417
908.372	16352
908.488	16344
908.604	16154
908.72	16223
908.836	16276
908.952	16112
909.068	16120
909.184	16360
909.3	16181
909.415	16242
909.531	16150
909.647	15979
909.762	15892
909.878	15842
909.993	15876
910.108	15895
910.224	15793
910.339	15842
910.454	15800
910.57	15762
910.685	15595
910.8	15975
910.915	15812
911.03	15694
911.145	15492
911.259	15504
911.374	15485
911.489	15367
911.604	15469
911.718	15249
911.833	15237
911.947	15055
912.062	15066
912.176	15176
912.291	15230
912.405	15245
912.519	15416
912.633	15443
912.748	15302
912.862	15222
912.976	15020
913.09	15028
913.204	14967
913.318	14998
913.431	15211
913.545	15214
913.659	15157
913.772	14941
913.886	14963
914	14781
914.113	14921
914.226	15024
914.34	14944
914.453	14701
914.566	14876
914.68	14762
914.793	14731
914.906	14465
915.019	14484
915.132	14495
915.245	14492
915.358	14541
915.47	14537
915.583	14492
915.696	14511
915.809	14655
915.921	14701
916.034	14438
916.146	14457
916.259	14370
916.371	14503
916.483	14393
916.595	14412
916.708	14374
916.82	14370
916.932	14351
917.044	14286
917.156	14298
917.268	14168
917.38	14248
917.491	14039
917.603	14134
917.715	14252
917.826	14225
917.938	14237
918.049	13978
918.161	14065
918.272	14275
918.384	14237
918.495	14111
918.606	14008
918.717	13944
918.828	13913
918.939	13982
919.05	13837
919.161	13875
919.272	13772
919.383	13742
919.494	14043
919.604	14111
919.715	13944
919.826	13814
919.936	13913
920.047	13883
920.157	13860
920.267	13970
920.378	13951
920.488	13906
920.598	14005
920.708	14237
920.818	14016
920.928	14100
921.038	14180
921.148	14123
921.258	13830
921.368	13677
921.477	13681
921.587	13681
921.697	13616
921.806	13609
921.916	13506
922.025	13308
922.134	13297
922.244	13232
922.353	13365
922.462	13168
922.571	13069
922.68	12913
922.789	12844
922.898	12894
923.007	12939
923.116	12989
923.224	12932
923.333	12916
923.442	12802
923.55	12757
923.659	12749
923.767	12852
923.876	12798
923.984	12738
924.092	12688
924.201	12696
924.309	12677
924.417	12684
924.525	12688
924.633	12646
924.741	13327
924.849	12509
924.956	12509
925.064	12399
925.172	12292
925.279	12289
925.387	12399
925.494	12456
925.602	12540
925.709	12437
925.816	12308
925.924	12350
926.031	12475
926.138	12334
926.245	12407
926.352	12258
926.459	12357
926.566	12361
926.673	12277
926.779	12129
926.886	12064
926.993	11992
927.099	12041
927.206	11939
927.312	11920
927.419	11977
927.525	11904
927.631	11912
927.737	11882
927.843	11809
927.95	11657
928.056	11840
928.162	11802
928.267	11802
928.373	12330
928.479	11836
928.585	11589
928.69	11790
928.796	11859
928.901	11581
929.007	11505
929.112	11729
929.218	11710
929.323	11623
929.428	11611
929.533	11699
929.638	11448
929.743	11543
929.848	11478
929.953	11547
930.058	11406
930.163	11246
930.267	11208
930.372	11307
930.477	11212
930.581	11395
930.685	11261
930.79	11041
930.894	11181
930.998	11121
931.103	11178
931.207	10919
931.311	10759
931.415	10603
931.519	10504
931.623	10508
