Data from test_V78500241_2516.txt Node
Date: Fri Mar 25 15:27:22 CST 2022
User: usil
Spectrometer: V785-0024
Trigger mode: 0
Integration Time (sec): 4.000000E-1
Scans to average: 1
Nonlinearity correction enabled: false
Boxcar width: 0
Storing dark spectrum: false
XAxis mode: Wavelengths
Number of Pixels in Spectrum: 1024
>>>>>Begin Spectral Data<<<<<
801.071	27161
801.214	27123
801.356	26823
801.499	26902
801.641	26663
801.783	26678
801.926	26731
802.068	26640
802.211	26465
802.353	26575
802.496	26389
802.638	26298
802.78	26286
802.923	26298
803.065	26115
803.208	26202
803.35	26259
803.492	26358
803.635	26480
803.777	26263
803.919	26545
804.061	26902
804.204	26495
804.346	26453
804.488	26374
804.63	26366
804.773	26309
804.915	26415
805.057	26514
805.199	26396
805.341	26465
805.483	26545
805.626	26564
805.768	26583
805.91	26583
806.052	26499
806.194	26480
806.336	26667
806.478	26575
806.62	26541
806.762	26712
806.904	26857
807.046	27024
807.188	26986
807.33	26956
807.472	26838
807.614	26834
807.756	26842
807.898	26769
808.04	26705
808.182	26670
808.324	26887
808.465	26899
808.607	26937
808.749	27184
808.891	27252
809.033	27093
809.174	27154
809.316	27017
809.458	27150
809.6	27085
809.741	27325
809.883	27275
810.025	27389
810.166	27412
810.308	27557
810.45	27294
810.591	27306
810.733	27032
810.875	27081
811.016	26979
811.158	27066
811.299	27291
811.441	27344
811.582	27458
811.724	27058
811.865	26940
812.007	27047
812.148	27070
812.29	27077
812.431	27165
812.573	27473
812.714	27511
812.855	27759
812.997	27576
813.138	27778
813.279	27717
813.421	27614
813.562	27462
813.703	27283
813.845	27310
813.986	26998
814.127	26788
814.268	26845
814.41	26876
814.551	26644
814.692	26769
814.833	26811
814.974	26724
815.115	26674
815.256	26594
815.397	26636
815.539	26663
815.68	26568
815.821	26355
815.962	26526
816.103	26533
816.244	26453
816.385	26339
816.526	26267
816.666	26164
816.807	26031
816.948	26073
817.089	26324
817.23	26016
817.371	26073
817.512	26024
817.653	25944
817.793	25944
817.934	25963
818.075	25947
818.216	26027
818.356	26092
818.497	25928
818.638	25662
818.778	25788
818.919	25746
819.06	25841
819.2	26020
819.341	25989
819.481	25978
819.622	26187
819.762	26374
819.903	26290
820.043	26225
820.184	26187
820.324	26168
820.465	26157
820.605	26050
820.746	26058
820.886	26039
821.026	26157
821.167	26096
821.307	26278
821.447	26046
821.588	26092
821.728	25746
821.868	25628
822.008	25559
822.149	25506
822.289	25578
822.429	25110
822.569	25285
822.709	25225
822.849	25171
822.99	24966
823.13	24882
823.27	24856
823.41	24867
823.55	24749
823.69	24776
823.83	24878
823.97	24848
824.11	24464
824.25	24593
824.389	24631
824.529	24635
824.669	24814
824.809	24757
824.949	24776
825.089	24749
825.228	24738
825.368	24384
825.508	24505
825.648	24528
825.787	24574
825.927	24555
826.067	24627
826.206	24532
826.346	24585
826.485	24620
826.625	24540
826.765	24486
826.904	24650
827.044	24338
827.183	24205
827.323	24292
827.462	24365
827.601	24270
827.741	24342
827.88	24114
828.02	24254
828.159	24201
828.298	24254
828.437	24346
828.577	24133
828.716	24289
828.855	24178
828.994	24003
829.134	23988
829.273	23923
829.412	23969
829.551	23798
829.69	23973
829.829	23935
829.968	23984
830.107	24068
830.246	23923
830.385	23771
830.524	23805
830.663	23821
830.802	23619
830.941	23581
831.08	23463
831.219	23562
831.357	23566
831.496	23821
831.635	23516
831.774	23497
831.913	23406
832.051	23444
832.19	23376
832.329	23376
832.467	23292
832.606	23235
832.744	23223
832.883	23117
833.022	23181
833.16	23216
833.299	23254
833.437	23337
833.576	23356
833.714	23216
833.852	23383
833.991	23296
834.129	23288
834.267	23280
834.406	23318
834.544	23417
834.682	23315
834.821	23288
834.959	23455
835.097	23280
835.235	23292
835.373	23360
835.511	23246
835.65	23174
835.788	23220
835.926	23064
836.064	22984
836.202	22889
836.34	23189
836.478	23235
836.615	23048
836.753	23151
836.891	23208
837.029	23204
837.167	23083
837.305	22923
837.443	23014
837.58	23018
837.718	23109
837.856	22991
837.993	22889
838.131	23022
838.269	22961
838.406	22900
838.544	22656
838.681	22771
838.819	22637
838.956	22466
839.094	22436
839.231	22481
839.369	22641
839.506	22976
839.643	22831
839.781	22527
839.918	22421
840.055	22504
840.193	22611
840.33	22424
840.467	22554
840.604	22569
840.742	22706
840.879	22348
841.016	22329
841.153	22341
841.29	22527
841.427	22333
841.564	22523
841.701	22280
841.838	22379
841.975	22318
842.112	22436
842.249	22325
842.385	22333
842.522	22306
842.659	22375
842.796	22147
842.933	22109
843.069	22162
843.206	22112
843.343	22147
843.479	22112
843.616	22185
843.752	22055
843.889	21949
844.025	22124
844.162	21960
844.298	22070
844.435	22055
844.571	21918
844.708	22048
844.844	22177
844.98	22067
845.117	21991
845.253	21907
845.389	21797
845.525	21846
845.661	21804
845.798	21614
845.934	21743
846.07	21515
846.206	21701
846.342	21812
846.478	21785
846.614	21488
846.75	21447
846.886	21416
847.022	21523
847.158	21420
847.294	21367
847.429	21443
847.565	21416
847.701	21728
847.837	21313
847.972	21104
848.108	21218
848.244	21348
848.379	21039
848.515	21032
848.65	21028
848.786	21131
848.921	21001
849.057	21058
849.192	20998
849.328	21138
849.463	20998
849.598	20819
849.734	20902
849.869	20933
850.004	20792
850.14	20788
850.275	20735
850.41	20758
850.545	20674
850.68	20807
850.815	20743
850.95	20765
851.085	20899
851.22	20914
851.355	20705
851.49	20739
851.625	20777
851.76	20735
851.895	20724
852.03	20823
852.165	20891
852.299	20872
852.434	20872
852.569	20739
852.703	20773
852.838	20895
852.973	20967
853.107	20967
853.242	20815
853.376	20663
853.511	20583
853.645	20648
853.78	20686
853.914	20640
854.048	20621
854.183	20568
854.317	20686
854.451	20754
854.585	20735
854.72	20606
854.854	20697
854.988	20621
855.122	20659
855.256	20579
855.39	20613
855.524	20617
855.658	20724
855.792	20587
855.926	20602
856.06	20674
856.194	20651
856.327	20632
856.461	20537
856.595	20602
856.729	20655
856.862	20674
856.996	20636
857.13	20697
857.263	20625
857.397	20617
857.53	20594
857.664	20518
857.797	20659
857.931	20746
858.064	20568
858.197	20819
858.331	20575
858.464	20613
858.597	20454
858.731	20461
858.864	20473
858.997	20594
859.13	20651
859.263	20670
859.396	20644
859.529	20476
859.662	20526
859.795	20602
859.928	20537
860.061	20800
860.194	20826
860.327	20705
860.46	20511
860.592	20788
860.725	20640
860.858	20644
860.99	20693
861.123	20613
861.256	20686
861.388	20621
861.521	21325
861.653	20537
861.786	20461
861.918	20362
862.05	20427
862.183	20564
862.315	20625
862.447	20629
862.58	20575
862.712	20408
862.844	20244
862.976	20267
863.108	20381
863.24	20769
863.372	20221
863.504	20355
863.636	20332
863.768	20404
863.9	20294
864.032	20278
864.164	20320
864.296	20286
864.428	20427
864.559	20385
864.691	20377
864.823	20294
864.954	20275
865.086	20320
865.217	20305
865.349	20157
865.48	20218
865.612	20301
865.743	20355
865.875	20259
866.006	20271
866.137	20248
866.269	20290
866.4	20210
866.531	20111
866.662	20107
866.793	20195
866.924	20263
867.055	20237
867.186	20381
867.317	20073
867.448	20054
867.579	20183
867.71	20092
867.841	20065
867.972	20142
868.103	20168
868.233	20256
868.364	20122
868.495	20347
868.625	20317
868.756	20461
868.886	20415
869.017	20347
869.147	20476
869.278	20579
869.408	20294
869.539	20381
869.669	20533
869.799	20412
869.929	20533
870.06	20476
870.19	20788
870.32	20731
870.45	20804
870.58	20819
870.71	20941
870.84	20895
870.97	20777
871.1	20842
871.23	20971
871.36	21074
871.489	20773
871.619	20933
871.749	21043
871.879	21089
872.008	21127
872.138	21028
872.267	21077
872.397	20914
872.526	20811
872.656	20823
872.785	20838
872.915	20994
873.044	21173
873.173	20986
873.303	21066
873.432	21123
873.561	21203
873.69	21039
873.819	21074
873.948	21218
874.077	21039
874.206	20994
874.335	20895
874.464	21112
874.593	21283
874.722	21108
874.851	21283
874.979	21340
875.108	21203
875.237	21306
875.365	21287
875.494	21199
875.623	21447
875.751	21161
875.88	21351
876.008	21496
876.136	21496
876.265	21637
876.393	21785
876.521	21911
876.65	21732
876.778	21694
876.906	21591
877.034	21652
877.162	21599
877.29	21576
877.418	21675
877.546	21614
877.674	21610
877.802	21591
877.93	21652
878.058	21648
878.185	21572
878.313	21568
878.441	21545
878.568	21428
878.696	21496
878.824	21618
878.951	21766
879.079	21831
879.206	21876
879.333	21816
879.461	21549
879.588	21705
879.715	21857
879.842	21793
879.97	21728
880.097	21378
880.224	21397
880.351	21458
880.478	21378
880.605	21488
880.732	21428
880.859	21759
880.986	21382
881.112	21332
881.239	21382
881.366	21211
881.493	21237
881.619	21066
881.746	20994
881.872	21119
881.999	20937
882.125	20933
882.252	21070
882.378	20998
882.505	21089
882.631	20933
882.757	20750
882.883	20899
883.01	20731
883.136	20640
883.262	20629
883.388	20556
883.514	20735
883.64	20758
883.766	20781
883.892	20522
884.018	20545
884.143	20708
884.269	20819
884.395	20495
884.52	20400
884.646	20446
884.772	20362
884.897	20305
885.023	20415
885.148	20514
885.274	20571
885.399	20427
885.524	20484
885.65	20423
885.775	20484
885.9	20419
886.025	20587
886.15	20530
886.275	20256
886.4	20336
886.525	20400
886.65	20450
886.775	20275
886.9	20503
887.025	20522
887.149	20267
887.274	20100
887.399	20149
887.523	20062
887.648	20142
887.773	20088
887.897	20305
888.021	20218
888.146	20016
888.27	20298
888.395	20256
888.519	20267
888.643	20145
888.767	20206
888.891	20119
889.015	19955
889.139	20062
889.263	20073
889.387	20054
889.511	20294
889.635	20058
889.759	20012
889.883	19932
890.006	20062
890.13	20024
890.254	19993
890.377	19913
890.501	19833
890.624	19753
890.748	19780
890.871	19715
890.995	19594
891.118	19567
891.241	19544
891.364	19635
891.488	19731
891.611	19590
891.734	19575
891.857	19578
891.98	19578
892.103	19586
892.226	19540
892.349	19556
892.471	19483
892.594	19464
892.717	19426
892.839	19514
892.962	19499
893.085	19704
893.207	19563
893.33	19396
893.452	19354
893.575	19506
893.697	19346
893.819	19639
893.941	19658
894.064	19674
894.186	19415
894.308	19407
894.43	19613
894.552	19616
894.674	19537
894.796	19422
894.918	19422
895.04	19400
895.161	19518
895.283	19552
895.405	19396
895.526	19651
895.648	19575
895.769	19563
895.891	19582
896.012	19521
896.134	19502
896.255	19499
896.376	19563
896.498	19597
896.619	19575
896.74	19514
896.861	19616
896.982	19837
897.103	19902
897.224	19765
897.345	19689
897.466	19624
897.587	19807
897.708	19951
897.828	19742
897.949	19590
898.07	19514
898.19	19559
898.311	19791
898.431	19693
898.552	19746
898.672	19814
898.792	19791
898.913	19693
899.033	19712
899.153	19540
899.273	19362
899.393	19521
899.513	19563
899.633	19411
899.753	19590
899.873	19464
899.993	19472
900.113	19419
900.232	19476
900.352	19411
900.472	19247
900.591	19304
900.711	19282
900.83	19278
900.95	19308
901.069	19388
901.189	19236
901.308	18970
901.427	18795
901.546	18973
901.665	18833
901.784	18909
901.904	18730
902.023	18627
902.141	18429
902.26	18399
902.379	18422
902.498	18422
902.617	18372
902.735	18441
902.854	18357
902.973	18292
903.091	18140
903.21	17969
903.328	18072
903.446	17965
903.565	17931
903.683	17843
903.801	17729
903.919	17851
904.038	17855
904.156	17627
904.274	17653
904.392	17604
904.51	17501
904.627	17573
904.745	17665
904.863	17691
904.981	17539
905.098	17322
905.216	17277
905.334	17402
905.451	17250
905.569	17277
905.686	17220
905.803	17280
905.921	17162
906.038	17121
906.155	17037
906.272	16991
906.389	17037
906.506	16778
906.623	16908
906.74	16744
906.857	16774
906.974	16843
907.091	16915
907.208	16923
907.324	16820
907.441	16771
907.557	16592
907.674	16516
907.79	16516
907.907	16542
908.023	16645
908.139	16603
908.256	16580
908.372	16402
908.488	16512
908.604	16291
908.72	16329
908.836	16257
908.952	16303
909.068	16268
909.184	16382
909.3	16276
909.415	16306
909.531	16242
909.647	16086
909.762	15998
909.878	15949
909.993	16006
910.108	15972
910.224	15903
910.339	15945
910.454	15831
910.57	15797
910.685	15656
910.8	15941
910.915	15994
911.03	15755
911.145	15717
911.259	15595
911.374	15606
911.489	15519
911.604	15523
911.718	15332
911.833	15477
911.947	15329
912.062	15302
912.176	15424
912.291	15424
912.405	15458
912.519	15641
912.633	15667
912.748	15363
912.862	15378
912.976	15306
913.09	15055
913.204	15108
913.318	15123
913.431	15241
913.545	15249
913.659	15218
913.772	15150
913.886	15009
914	14994
914.113	15112
914.226	15180
914.34	14994
914.453	14868
914.566	15024
914.68	14925
914.793	14876
914.906	14724
915.019	14579
915.132	14457
915.245	14575
915.358	14640
915.47	14648
915.583	14564
915.696	14594
915.809	14689
915.921	14765
916.034	14511
916.146	14503
916.259	14450
916.371	14625
916.483	14602
916.595	14396
916.708	14480
916.82	14434
916.932	14347
917.044	14408
917.156	14343
917.268	14313
917.38	14347
917.491	14187
917.603	14259
917.715	14389
917.826	14278
917.938	14248
918.049	14206
918.161	14278
918.272	14370
918.384	14415
918.495	14282
918.606	14126
918.717	14046
918.828	14176
918.939	14092
919.05	13959
919.161	14027
919.272	13875
919.383	13967
919.494	14008
919.604	14229
919.715	14062
919.826	13970
919.936	14084
920.047	13993
920.157	14020
920.267	14240
920.378	14077
920.488	13944
920.598	14229
920.708	14244
920.818	14210
920.928	14103
921.038	14332
921.148	14286
921.258	14016
921.368	13959
921.477	13833
921.587	13788
921.697	13674
921.806	13742
921.916	13628
922.025	13502
922.134	13422
922.244	13335
922.353	13518
922.462	13312
922.571	13278
922.68	13122
922.789	13107
922.898	13099
923.007	13061
923.116	13118
923.224	13031
923.333	12981
923.442	13095
923.55	12913
923.659	12996
923.767	12947
923.876	12856
923.984	12897
924.092	12802
924.201	12787
924.309	12783
924.417	12821
924.525	12837
924.633	12700
924.741	13715
924.849	12589
924.956	12730
925.064	12521
925.172	12471
925.279	12403
925.387	12498
925.494	12506
925.602	12635
925.709	12631
925.816	12456
925.924	12498
926.031	12521
926.138	12372
926.245	12414
926.352	12414
926.459	12551
926.566	12551
926.673	12452
926.779	12338
926.886	12258
926.993	12079
927.099	12133
927.206	12079
927.312	12049
927.419	12026
927.525	12102
927.631	12064
927.737	12019
927.843	11920
927.95	11878
928.056	11950
928.162	11916
928.267	11999
928.373	12547
928.479	11999
928.585	11756
928.69	11920
928.796	11961
928.901	11775
929.007	11680
929.112	11737
929.218	11764
929.323	11733
929.428	11627
929.533	11699
929.638	11585
929.743	11581
929.848	11676
929.953	11714
930.058	11459
930.163	11345
930.267	11364
930.372	11402
930.477	11303
930.581	11535
930.685	11398
930.79	11315
930.894	11216
930.998	11185
931.103	11364
931.207	11045
931.311	10900
931.415	10847
931.519	10611
931.623	10698
