Data from test_V78500241_360.txt Node
Date: Fri Mar 25 15:12:22 CST 2022
User: usil
Spectrometer: V785-0024
Trigger mode: 0
Integration Time (sec): 4.000000E-1
Scans to average: 1
Nonlinearity correction enabled: false
Boxcar width: 0
Storing dark spectrum: false
XAxis mode: Wavelengths
Number of Pixels in Spectrum: 1024
>>>>>Begin Spectral Data<<<<<
801.071	27066
801.214	26910
801.356	26796
801.499	26746
801.641	26518
801.783	26613
801.926	26682
802.068	26457
802.211	26594
802.353	26282
802.496	26286
802.638	26180
802.78	26237
802.923	25974
803.065	26046
803.208	26138
803.35	26180
803.492	26301
803.635	26385
803.777	26259
803.919	26309
804.061	26514
804.204	26366
804.346	26218
804.488	26237
804.63	26419
804.773	26164
804.915	26320
805.057	26400
805.199	26301
805.341	26290
805.483	26514
805.626	26484
805.768	26317
805.91	26461
806.052	26412
806.194	26244
806.336	26617
806.478	26442
806.62	26404
806.762	26507
806.904	26739
807.046	26940
807.188	26868
807.33	26807
807.472	26872
807.614	26750
807.756	26792
807.898	26613
808.04	26579
808.182	26590
808.324	26750
808.465	26602
808.607	26712
808.749	26929
808.891	27062
809.033	27214
809.174	27066
809.316	27013
809.458	27062
809.6	26937
809.741	27024
809.883	27116
810.025	27268
810.166	27252
810.308	27275
810.45	27348
810.591	27188
810.733	27058
810.875	27055
811.016	26868
811.158	26834
811.299	27047
811.441	27195
811.582	27146
811.724	27020
811.865	26982
812.007	26830
812.148	26880
812.29	27070
812.431	27096
812.573	27241
812.714	27496
812.855	27545
812.997	27701
813.138	27770
813.279	27618
813.421	27496
813.562	27587
813.703	27355
813.845	27249
813.986	26891
814.127	26762
814.268	26678
814.41	26659
814.551	26598
814.692	26739
814.833	26697
814.974	26537
815.115	26804
815.256	26492
815.397	26465
815.539	26514
815.68	26503
815.821	26450
815.962	26419
816.103	26396
816.244	26332
816.385	26328
816.526	26225
816.666	26024
816.807	25951
816.948	26069
817.089	26164
817.23	26050
817.371	25993
817.512	25856
817.653	25978
817.793	25734
817.934	25993
818.075	25913
818.216	25909
818.356	25860
818.497	25871
818.638	25590
818.778	25563
818.919	25647
819.06	25738
819.2	25788
819.341	25925
819.481	25932
819.622	26039
819.762	26355
819.903	26081
820.043	26130
820.184	25951
820.324	26122
820.465	26050
820.605	25970
820.746	25997
820.886	25883
821.026	25864
821.167	25906
821.307	26062
821.447	25898
821.588	25837
821.728	25670
821.868	25571
822.008	25251
822.149	25453
822.289	25343
822.429	25027
822.569	25129
822.709	25088
822.849	24875
822.99	24886
823.13	24802
823.27	24738
823.41	24582
823.55	24669
823.69	24700
823.83	24772
823.97	24635
824.11	24448
824.25	24471
824.389	24532
824.529	24585
824.669	24612
824.809	24582
824.949	24502
825.089	24532
825.228	24460
825.368	24251
825.508	24433
825.648	24410
825.787	24574
825.927	24407
826.067	24194
826.206	24327
826.346	24441
826.485	24429
826.625	24346
826.765	24452
826.904	24365
827.044	24133
827.183	24079
827.323	24121
827.462	23950
827.601	24095
827.741	24129
827.88	24125
828.02	24011
828.159	24079
828.298	24281
828.437	24121
828.577	24007
828.716	24163
828.855	23996
828.994	23809
829.134	23855
829.273	23840
829.412	23790
829.551	23794
829.69	23840
829.829	23775
829.968	23923
830.107	23771
830.246	23920
830.385	23691
830.524	23646
830.663	23604
830.802	23524
830.941	23379
831.08	23345
831.219	23398
831.357	23524
831.496	23764
831.635	23398
831.774	23444
831.913	23250
832.051	23227
832.19	23189
832.329	23250
832.467	23212
832.606	23022
832.744	23113
832.883	23064
833.022	23083
833.16	23307
833.299	23113
833.437	23083
833.576	23265
833.714	23067
833.852	23124
833.991	23315
834.129	23318
834.267	23292
834.406	23181
834.544	23288
834.682	23121
834.821	23041
834.959	23322
835.097	23121
835.235	23216
835.373	23166
835.511	23170
835.65	23033
835.788	23003
835.926	23006
836.064	22915
836.202	22900
836.34	23098
836.478	23185
836.615	23033
836.753	23048
836.891	23189
837.029	22984
837.167	22972
837.305	22923
837.443	22987
837.58	22923
837.718	23052
837.856	22839
837.993	22889
838.131	22835
838.269	22835
838.406	22740
838.544	22679
838.681	22447
838.819	22584
838.956	22333
839.094	22268
839.231	22352
839.369	22466
839.506	22828
839.643	22626
839.781	22371
839.918	22268
840.055	22356
840.193	22265
840.33	22299
840.467	22344
840.604	22352
840.742	22641
840.879	22059
841.016	22276
841.153	22173
841.29	22405
841.427	22367
841.564	22268
841.701	22230
841.838	22219
841.975	22230
842.112	22147
842.249	22101
842.385	22097
842.522	22325
842.659	22139
842.796	22029
842.933	22082
843.069	22025
843.206	22010
843.343	21998
843.479	21994
843.616	22048
843.752	21747
843.889	21975
844.025	21934
844.162	21793
844.298	21975
844.435	21827
844.571	21865
844.708	21876
844.844	21915
844.98	21979
845.117	21945
845.253	21686
845.389	21736
845.525	21804
845.661	21701
845.798	21641
845.934	21583
846.07	21545
846.206	21477
846.342	21591
846.478	21530
846.614	21435
846.75	21214
846.886	21272
847.022	21355
847.158	21268
847.294	21344
847.429	21382
847.565	21329
847.701	21538
847.837	21085
847.972	21036
848.108	21184
848.244	21131
848.379	20937
848.515	20910
848.65	20868
848.786	20941
848.921	20960
849.057	21036
849.192	20925
849.328	20937
849.463	20899
849.598	20834
849.734	20902
849.869	20849
850.004	20716
850.14	20689
850.275	20663
850.41	20587
850.545	20712
850.68	20552
850.815	20731
850.95	20564
851.085	20807
851.22	20845
851.355	20625
851.49	20781
851.625	20670
851.76	20705
851.895	20632
852.03	20492
852.165	20507
852.299	20773
852.434	20769
852.569	20727
852.703	20636
852.838	20743
852.973	20800
853.107	20746
853.242	20609
853.376	20602
853.511	20385
853.645	20469
853.78	20682
853.914	20495
854.048	20412
854.183	20473
854.317	20473
854.451	20697
854.585	20552
854.72	20465
854.854	20522
854.988	20431
855.122	20438
855.256	20377
855.39	20442
855.524	20522
855.658	20568
855.792	20495
855.926	20473
856.06	20545
856.194	20640
856.327	20454
856.461	20442
856.595	20438
856.729	20408
856.862	20552
856.996	20434
857.13	20549
857.263	20651
857.397	20556
857.53	20446
857.664	20659
857.797	20697
857.931	20609
858.064	20427
858.197	20659
858.331	20495
858.464	20473
858.597	20366
858.731	20404
858.864	20499
858.997	20469
859.13	20457
859.263	20511
859.396	20613
859.529	20598
859.662	20469
859.795	20495
859.928	20511
860.061	20712
860.194	20754
860.327	20552
860.46	20480
860.592	20697
860.725	20659
860.858	20503
860.99	20469
861.123	20499
861.256	20438
861.388	20511
861.521	21104
861.653	20400
861.786	20313
861.918	20320
862.05	20374
862.183	20476
862.315	20434
862.447	20533
862.58	20461
862.712	20278
862.844	20176
862.976	20233
863.108	20358
863.24	20682
863.372	20100
863.504	20244
863.636	20233
863.768	20168
863.9	20164
864.032	20256
864.164	20157
864.296	20244
864.428	20259
864.559	20309
864.691	20374
864.823	20218
864.954	20214
865.086	20263
865.217	20126
865.349	20130
865.48	20115
865.612	20088
865.743	20263
865.875	20149
866.006	20016
866.137	20065
866.269	20107
866.4	20084
866.531	20081
866.662	20020
866.793	20058
866.924	20024
867.055	20088
867.186	20168
867.317	20081
867.448	19928
867.579	20111
867.71	19974
867.841	19967
867.972	20130
868.103	20096
868.233	20180
868.364	20020
868.495	20073
868.625	20218
868.756	20431
868.886	20199
869.017	20336
869.147	20294
869.278	20571
869.408	20248
869.539	20370
869.669	20366
869.799	20400
869.929	20473
870.06	20351
870.19	20590
870.32	20590
870.45	20545
870.58	20712
870.71	20739
870.84	20720
870.97	20731
871.1	20712
871.23	20880
871.36	20887
871.489	20788
871.619	20834
871.749	20929
871.879	21043
872.008	20948
872.138	20895
872.267	20906
872.397	20762
872.526	20625
872.656	20853
872.785	20750
872.915	20815
873.044	21085
873.173	21028
873.303	20948
873.432	20883
873.561	21070
873.69	20914
873.819	20910
873.948	20899
874.077	20971
874.206	20982
874.335	20918
874.464	20979
874.593	21157
874.722	21165
874.851	21268
874.979	21214
875.108	21245
875.237	21142
875.365	21028
875.494	21203
875.623	21294
875.751	21131
875.88	21222
876.008	21211
876.136	21332
876.265	21507
876.393	21739
876.521	21629
876.65	21576
876.778	21545
876.906	21610
877.034	21488
877.162	21538
877.29	21454
877.418	21561
877.546	21648
877.674	21488
877.802	21538
877.93	21401
878.058	21378
878.185	21504
878.313	21545
878.441	21405
878.568	21325
878.696	21549
878.824	21660
878.951	21564
879.079	21720
879.206	21835
879.333	21785
879.461	21523
879.588	21686
879.715	21629
879.842	21816
879.97	21599
880.097	21386
880.224	21367
880.351	21329
880.478	21252
880.605	21104
880.732	21317
880.859	21504
880.986	21428
881.112	21355
881.239	21161
881.366	21123
881.493	21013
881.619	20944
881.746	20864
881.872	20937
881.999	20960
882.125	20823
882.252	20944
882.378	20823
882.505	21066
882.631	20838
882.757	20705
882.883	20636
883.01	20697
883.136	20549
883.262	20526
883.388	20556
883.514	20670
883.64	20731
883.766	20594
883.892	20377
884.018	20526
884.143	20689
884.269	20701
884.395	20469
884.52	20180
884.646	20355
884.772	20214
884.897	20168
885.023	20423
885.148	20362
885.274	20374
885.399	20389
885.524	20286
885.65	20244
885.775	20412
885.9	20233
886.025	20465
886.15	20336
886.275	20317
886.4	20202
886.525	20256
886.65	20317
886.775	20248
886.9	20358
887.025	20495
887.149	20195
887.274	20046
887.399	20100
887.523	20027
887.648	19993
887.773	20138
887.897	20077
888.021	20035
888.146	20084
888.27	20210
888.395	20153
888.519	20122
888.643	20237
888.767	20084
888.891	19852
889.015	20027
889.139	19887
889.263	19845
889.387	20008
889.511	20149
889.635	20157
889.759	19906
889.883	19712
890.006	19913
890.13	20046
890.254	19799
890.377	19883
890.501	19689
890.624	19521
890.748	19704
890.871	19537
890.995	19468
891.118	19464
891.241	19400
891.364	19510
891.488	19540
891.611	19457
891.734	19586
891.857	19514
891.98	19540
892.103	19480
892.226	19464
892.349	19411
892.471	19301
892.594	19441
892.717	19304
892.839	19354
892.962	19327
893.085	19460
893.207	19400
893.33	19316
893.452	19400
893.575	19483
893.697	19339
893.819	19559
893.941	19632
894.064	19514
894.186	19255
894.308	19320
894.43	19487
894.552	19460
894.674	19521
894.796	19339
894.918	19331
895.04	19304
895.161	19388
895.283	19362
895.405	19369
895.526	19457
895.648	19457
895.769	19415
895.891	19331
896.012	19476
896.134	19487
896.255	19304
896.376	19316
896.498	19297
896.619	19331
896.74	19438
896.861	19426
896.982	19731
897.103	19864
897.224	19662
897.345	19620
897.466	19449
897.587	19655
897.708	19677
897.828	19704
897.949	19616
898.07	19487
898.19	19483
898.311	19605
898.431	19525
898.552	19613
898.672	19666
898.792	19681
898.913	19575
899.033	19628
899.153	19362
899.273	19251
899.393	19434
899.513	19392
899.633	19365
899.753	19419
899.873	19244
899.993	19426
900.113	19266
900.232	19278
900.352	19198
900.472	19187
900.591	19126
900.711	19251
900.83	19251
900.95	19293
901.069	19251
901.189	19031
901.308	18802
901.427	18757
901.546	18730
901.665	18753
901.784	18844
901.904	18528
902.023	18521
902.141	18391
902.26	18224
902.379	18365
902.498	18243
902.617	18289
902.735	18262
902.854	18342
902.973	18186
903.091	17988
903.21	17931
903.328	17855
903.446	17840
903.565	17786
903.683	17809
903.801	17543
903.919	17551
904.038	17695
904.156	17478
904.274	17695
904.392	17433
904.51	17543
904.627	17493
904.745	17646
904.863	17512
904.981	17406
905.098	17227
905.216	17265
905.334	17250
905.451	17197
905.569	17166
905.686	17368
905.803	17284
905.921	16980
906.038	17105
906.155	17071
906.272	16961
906.389	16946
906.506	16866
906.623	16759
906.74	16755
906.857	16603
906.974	16672
907.091	16771
907.208	16862
907.324	16847
907.441	16733
907.557	16561
907.674	16531
907.79	16531
907.907	16409
908.023	16500
908.139	16535
908.256	16462
908.372	16398
908.488	16409
908.604	16261
908.72	16166
908.836	16234
908.952	16226
909.068	16207
909.184	16322
909.3	16093
909.415	16215
909.531	16173
909.647	15960
909.762	16071
909.878	15983
909.993	15911
910.108	15895
910.224	15994
910.339	15972
910.454	15743
910.57	15739
910.685	15663
910.8	15884
910.915	15846
911.03	15793
911.145	15660
911.259	15614
911.374	15606
911.489	15496
911.604	15405
911.718	15283
911.833	15287
911.947	15157
912.062	15104
912.176	15294
912.291	15302
912.405	15272
912.519	15424
912.633	15466
912.748	15336
912.862	15180
912.976	15161
913.09	14914
913.204	15013
913.318	15142
913.431	15165
913.545	15135
913.659	15142
913.772	15062
913.886	15020
914	14804
914.113	14963
914.226	15058
914.34	14994
914.453	14823
914.566	14895
914.68	14804
914.793	14826
914.906	14629
915.019	14541
915.132	14454
915.245	14541
915.358	14575
915.47	14590
915.583	14598
915.696	14568
915.809	14640
915.921	14750
916.034	14377
916.146	14332
916.259	14400
916.371	14541
916.483	14469
916.595	14286
916.708	14408
916.82	14389
916.932	14278
917.044	14343
917.156	14332
917.268	14252
917.38	14290
917.491	14187
917.603	14187
917.715	14317
917.826	14366
917.938	14092
918.049	13970
918.161	14191
918.272	14298
918.384	14252
918.495	14164
918.606	14107
918.717	13898
918.828	14031
918.939	14001
919.05	13883
919.161	13928
919.272	13700
919.383	13765
919.494	14012
919.604	14187
919.715	13963
919.826	13860
919.936	13947
920.047	14058
920.157	13932
920.267	14119
920.378	13864
920.488	13963
920.598	14092
920.708	14294
920.818	14096
920.928	14096
921.038	14244
921.148	14244
921.258	13849
921.368	13868
921.477	13712
921.587	13670
921.697	13609
921.806	13811
921.916	13586
922.025	13445
922.134	13403
922.244	13354
922.353	13365
922.462	13194
922.571	13194
922.68	12977
922.789	13023
922.898	13091
923.007	12962
923.116	13031
923.224	12939
923.333	12985
923.442	12958
923.55	12825
923.659	12859
923.767	12894
923.876	12798
923.984	12897
924.092	12768
924.201	12817
924.309	12726
924.417	12745
924.525	12688
924.633	12658
924.741	13460
924.849	12521
924.956	12620
925.064	12418
925.172	12483
925.279	12391
925.387	12509
925.494	12433
925.602	12631
925.709	12490
925.816	12311
925.924	12407
926.031	12506
926.138	12486
926.245	12460
926.352	12350
926.459	12445
926.566	12509
926.673	12338
926.779	12167
926.886	12209
926.993	12144
927.099	12026
927.206	11973
927.312	12011
927.419	12095
927.525	12026
927.631	12072
927.737	11977
927.843	11828
927.95	11756
928.056	11923
928.162	11866
928.267	11973
928.373	12525
928.479	11893
928.585	11726
928.69	11870
928.796	11775
928.901	11748
929.007	11604
929.112	11752
929.218	11745
929.323	11604
929.428	11600
929.533	11752
929.638	11532
929.743	11535
929.848	11611
929.953	11566
930.058	11493
930.163	11288
930.267	11387
930.372	11410
930.477	11250
930.581	11486
930.685	11444
930.79	11140
930.894	11178
930.998	11174
931.103	11379
931.207	11060
931.311	10896
931.415	10809
931.519	10584
931.623	10588
