Data from test_V78500241_631.txt Node
Date: Fri Mar 25 15:14:15 CST 2022
User: usil
Spectrometer: V785-0024
Trigger mode: 0
Integration Time (sec): 4.000000E-1
Scans to average: 1
Nonlinearity correction enabled: false
Boxcar width: 0
Storing dark spectrum: false
XAxis mode: Wavelengths
Number of Pixels in Spectrum: 1024
>>>>>Begin Spectral Data<<<<<
801.071	27656
801.214	27625
801.356	27504
801.499	27458
801.641	27272
801.783	27169
801.926	27317
802.068	27199
802.211	27112
802.353	27089
802.496	26933
802.638	26868
802.78	26769
802.923	26925
803.065	26781
803.208	26792
803.35	26887
803.492	26929
803.635	26940
803.777	26925
803.919	26948
804.061	27226
804.204	27192
804.346	26948
804.488	26781
804.63	26986
804.773	26921
804.915	26963
805.057	27028
805.199	27116
805.341	27169
805.483	27146
805.626	27188
805.768	26963
805.91	27116
806.052	27096
806.194	27085
806.336	27393
806.478	27150
806.62	27104
806.762	27249
806.904	27481
807.046	27755
807.188	27580
807.33	27488
807.472	27603
807.614	27656
807.756	27625
807.898	27496
808.04	27344
808.182	27447
808.324	27450
808.465	27321
808.607	27671
808.749	27663
808.891	27914
809.033	28021
809.174	27804
809.316	27663
809.458	27724
809.6	27835
809.741	27930
809.883	27911
810.025	28147
810.166	28162
810.308	28090
810.45	28093
810.591	27975
810.733	27888
810.875	27949
811.016	27728
811.158	27671
811.299	27918
811.441	27918
811.582	28010
811.724	27686
811.865	27759
812.007	27644
812.148	27751
812.29	27705
812.431	27854
812.573	28101
812.714	28188
812.855	28230
812.997	28443
813.138	28622
813.279	28493
813.421	28341
813.562	28272
813.703	28135
813.845	27994
813.986	27728
814.127	27580
814.268	27462
814.41	27557
814.551	27492
814.692	27568
814.833	27393
814.974	27389
815.115	27458
815.256	27397
815.397	27367
815.539	27462
815.68	27241
815.821	27264
815.962	27260
816.103	27302
816.244	27081
816.385	26956
816.526	27047
816.666	27017
816.807	26826
816.948	26921
817.089	26826
817.23	26883
817.371	26834
817.512	26853
817.653	26674
817.793	26720
817.934	26819
818.075	26746
818.216	26731
818.356	26720
818.497	26670
818.638	26427
818.778	26446
818.919	26503
819.06	26587
819.2	26613
819.341	26849
819.481	26682
819.622	26880
819.762	26990
819.903	26982
820.043	27039
820.184	26887
820.324	26834
820.465	26937
820.605	26952
820.746	26918
820.886	26667
821.026	26815
821.167	26826
821.307	26899
821.447	26891
821.588	26575
821.728	26556
821.868	26275
822.008	26374
822.149	26187
822.289	26214
822.429	26027
822.569	25951
822.709	25906
822.849	25715
822.99	25613
823.13	25769
823.27	25731
823.41	25700
823.55	25552
823.69	25556
823.83	25613
823.97	25388
824.11	25415
824.25	25297
824.389	25350
824.529	25514
824.669	25312
824.809	25510
824.949	25502
825.089	25403
825.228	25529
825.368	25168
825.508	25320
825.648	25308
825.787	25251
825.927	25221
826.067	25335
826.206	25084
826.346	25369
826.485	25259
826.625	25179
826.765	25304
826.904	25206
827.044	25038
827.183	24992
827.323	24848
827.462	25069
827.601	24928
827.741	24840
827.88	25000
828.02	24795
828.159	24909
828.298	25008
828.437	25076
828.577	24932
828.716	25012
828.855	24875
828.994	24684
829.134	24684
829.273	24635
829.412	24661
829.551	24631
829.69	24650
829.829	24661
829.968	24779
830.107	24741
830.246	24612
830.385	24566
830.524	24563
830.663	24540
830.802	24475
830.941	24239
831.08	24216
831.219	24353
831.357	24357
831.496	24486
831.635	24289
831.774	24171
831.913	24178
832.051	24129
832.19	24159
832.329	24015
832.467	24015
832.606	23996
832.744	23969
832.883	24072
833.022	23855
833.16	23996
833.299	24007
833.437	24079
833.576	24171
833.714	23923
833.852	24102
833.991	24011
834.129	24057
834.267	24087
834.406	24022
834.544	24083
834.682	24106
834.821	23996
834.959	24136
835.097	23954
835.235	24034
835.373	24015
835.511	23927
835.65	23961
835.788	23840
835.926	23802
836.064	23592
836.202	23733
836.34	23866
836.478	23821
836.615	23885
836.753	23901
836.891	23988
837.029	23870
837.167	23790
837.305	23733
837.443	23870
837.58	23722
837.718	23840
837.856	23813
837.993	23634
838.131	23661
838.269	23657
838.406	23596
838.544	23600
838.681	23235
838.819	23220
838.956	23121
839.094	23124
839.231	23227
839.369	23425
839.506	23543
839.643	23440
839.781	23147
839.918	23071
840.055	23124
840.193	23029
840.33	23041
840.467	23109
840.604	23094
840.742	23288
840.879	23003
841.016	23022
841.153	23037
841.29	23288
841.427	23109
841.564	23155
841.701	23022
841.838	23083
841.975	22938
842.112	22980
842.249	22938
842.385	22820
842.522	22984
842.659	22892
842.796	22858
842.933	22843
843.069	22778
843.206	22889
843.343	22923
843.479	22809
843.616	22873
843.752	22596
843.889	22622
844.025	22812
844.162	22607
844.298	22573
844.435	22478
844.571	22588
844.708	22599
844.844	22782
844.98	22687
845.117	22786
845.253	22550
845.389	22531
845.525	22641
845.661	22516
845.798	22375
845.934	22561
846.07	22447
846.206	22611
846.342	22500
846.478	22318
846.614	22207
846.75	22059
846.886	22200
847.022	22185
847.158	22070
847.294	22154
847.429	22131
847.565	22067
847.701	22398
847.837	21876
847.972	21876
848.108	21899
848.244	21842
848.379	21728
848.515	21701
848.65	21770
848.786	21652
848.921	21892
849.057	21789
849.192	21831
849.328	21804
849.463	21679
849.598	21694
849.734	21580
849.869	21401
850.004	21519
850.14	21469
850.275	21469
850.41	21370
850.545	21393
850.68	21481
850.815	21526
850.95	21378
851.085	21553
851.22	21519
851.355	21435
851.49	21420
851.625	21447
851.76	21397
851.895	21325
852.03	21340
852.165	21572
852.299	21458
852.434	21553
852.569	21515
852.703	21500
852.838	21553
852.973	21625
853.107	21481
853.242	21420
853.376	21374
853.511	21055
853.645	21207
853.78	21382
853.914	21245
854.048	21237
854.183	21272
854.317	21332
854.451	21439
854.585	21252
854.72	21249
854.854	21249
854.988	21226
855.122	21252
855.256	21173
855.39	21291
855.524	21298
855.658	21336
855.792	21233
855.926	21317
856.06	21176
856.194	21298
856.327	21275
856.461	21226
856.595	21344
856.729	21214
856.862	21397
856.996	21207
857.13	21199
857.263	21469
857.397	21363
857.53	21260
857.664	21294
857.797	21310
857.931	21336
858.064	21275
858.197	21363
858.331	21424
858.464	21207
858.597	21192
858.731	21348
858.864	21249
858.997	21275
859.13	21283
859.263	21389
859.396	21329
859.529	21142
859.662	21135
859.795	21093
859.928	21325
860.061	21454
860.194	21477
860.327	21386
860.46	21241
860.592	21382
860.725	21317
860.858	21344
860.99	21325
861.123	21184
861.256	21116
861.388	21272
861.521	22040
861.653	21108
861.786	21138
861.918	21089
862.05	21131
862.183	21199
862.315	21252
862.447	21298
862.58	21104
862.712	21062
862.844	21047
862.976	21135
863.108	21131
863.24	21431
863.372	21028
863.504	20937
863.636	20918
863.768	21036
863.9	20910
864.032	20845
864.164	20937
864.296	21135
864.428	21020
864.559	20994
864.691	21119
864.823	20990
864.954	20933
865.086	21013
865.217	20952
865.349	20762
865.48	20864
865.612	20952
865.743	20982
865.875	20845
866.006	20868
866.137	20834
866.269	20785
866.4	20880
866.531	20800
866.662	20663
866.793	20762
866.924	20785
867.055	20895
867.186	20811
867.317	20663
867.448	20834
867.579	20769
867.71	20674
867.841	20632
867.972	20853
868.103	20750
868.233	20857
868.364	20659
868.495	20902
868.625	21043
868.756	21180
868.886	20956
869.017	21039
869.147	21135
869.278	21135
869.408	20975
869.539	21089
869.669	21157
869.799	21150
869.929	21074
870.06	21127
870.19	21389
870.32	21401
870.45	21431
870.58	21450
870.71	21473
870.84	21466
870.97	21435
871.1	21447
871.23	21671
871.36	21606
871.489	21485
871.619	21656
871.749	21705
871.879	21625
872.008	21724
872.138	21625
872.267	21660
872.397	21538
872.526	21469
872.656	21454
872.785	21580
872.915	21618
873.044	21713
873.173	21648
873.303	21762
873.432	21709
873.561	21804
873.69	21778
873.819	21549
873.948	21759
874.077	21652
874.206	21523
874.335	21713
874.464	21759
874.593	21888
874.722	21785
874.851	21991
874.979	21892
875.108	22013
875.237	21846
875.365	21842
875.494	21884
875.623	21869
875.751	21724
875.88	21747
876.008	22010
876.136	22006
876.265	22192
876.393	22390
876.521	22348
876.65	22360
876.778	22287
876.906	22226
877.034	22242
877.162	22276
877.29	22112
877.418	22280
877.546	22322
877.674	22295
877.802	22261
877.93	22246
878.058	22135
878.185	22063
878.313	22124
878.441	22207
878.568	21960
878.696	22287
878.824	22314
878.951	22211
879.079	22341
879.206	22443
879.333	22493
879.461	22223
879.588	22363
879.715	22367
879.842	22538
879.97	22246
880.097	22105
880.224	22029
880.351	22021
880.478	22070
880.605	22086
880.732	22025
880.859	22173
880.986	22090
881.112	22105
881.239	21743
881.366	21869
881.493	21728
881.619	21690
881.746	21629
881.872	21709
881.999	21644
882.125	21481
882.252	21743
882.378	21580
882.505	21633
882.631	21477
882.757	21298
882.883	21401
883.01	21294
883.136	21321
883.262	21195
883.388	21180
883.514	21294
883.64	21359
883.766	21222
883.892	21169
884.018	21047
884.143	21374
884.269	21245
884.395	21017
884.52	20941
884.646	21043
884.772	20960
884.897	20925
885.023	20998
885.148	21009
885.274	21150
885.399	20952
885.524	21051
885.65	20990
885.775	20971
885.9	20899
886.025	21066
886.15	21020
886.275	20868
886.4	20731
886.525	20986
886.65	20979
886.775	20891
886.9	21096
887.025	21226
887.149	20815
887.274	20743
887.399	20746
887.523	20765
887.648	20598
887.773	20606
887.897	20807
888.021	20708
888.146	20602
888.27	20880
888.395	20925
888.519	20834
888.643	20845
888.767	20830
888.891	20648
889.015	20587
889.139	20693
889.263	20632
889.387	20583
889.511	20712
889.635	20644
889.759	20594
889.883	20454
890.006	20526
890.13	20655
890.254	20450
890.377	20438
890.501	20355
890.624	20336
890.748	20301
890.871	20134
890.995	20115
891.118	20100
891.241	20145
891.364	20161
891.488	20301
891.611	20202
891.734	20100
891.857	20252
891.98	20275
892.103	20107
892.226	20096
892.349	20005
892.471	19909
892.594	20062
892.717	20016
892.839	20096
892.962	20046
893.085	20069
893.207	19970
893.33	19932
893.452	19940
893.575	20020
893.697	19917
893.819	20210
893.941	20161
894.064	20157
894.186	19955
894.308	19932
894.43	19940
894.552	20142
894.674	20024
894.796	19947
894.918	20054
895.04	19894
895.161	20130
895.283	20039
895.405	20081
895.526	19955
895.648	19989
895.769	20012
895.891	19986
896.012	20084
896.134	19974
896.255	20142
896.376	19936
896.498	19970
896.619	20103
896.74	19959
896.861	20035
896.982	20393
897.103	20419
897.224	20396
897.345	20187
897.466	20259
897.587	20275
897.708	20419
897.828	20263
897.949	20210
898.07	20180
898.19	20237
898.311	20358
898.431	20195
898.552	20183
898.672	20415
898.792	20324
898.913	20138
899.033	20100
899.153	20058
899.273	19959
899.393	20024
899.513	19997
899.633	19887
899.753	19955
899.873	19890
899.993	19951
900.113	19868
900.232	19928
900.352	19830
900.472	19852
900.591	19635
900.711	19818
900.83	19765
900.95	19712
901.069	19837
901.189	19647
901.308	19434
901.427	19346
901.546	19403
901.665	19266
901.784	19430
901.904	19343
902.023	19164
902.141	19023
902.26	18947
902.379	19027
902.498	18909
902.617	18791
902.735	18856
902.854	18730
902.973	18760
903.091	18585
903.21	18612
903.328	18506
903.446	18456
903.565	18289
903.683	18369
903.801	18258
903.919	18323
904.038	18277
904.156	18102
904.274	18254
904.392	18114
904.51	18106
904.627	18064
904.745	18110
904.863	18163
904.981	17999
905.098	17798
905.216	17783
905.334	17843
905.451	17843
905.569	17703
905.686	17794
905.803	17832
905.921	17524
906.038	17699
906.155	17615
906.272	17391
906.389	17486
906.506	17334
906.623	17334
906.74	17220
906.857	17067
906.974	17162
907.091	17368
907.208	17452
907.324	17429
907.441	17223
907.557	16942
907.674	17025
907.79	17064
907.907	16957
908.023	16976
908.139	17090
908.256	16957
908.372	16847
908.488	16915
908.604	16725
908.72	16691
908.836	16793
908.952	16721
909.068	16831
909.184	16862
909.3	16778
909.415	16752
909.531	16729
909.647	16584
909.762	16481
909.878	16436
909.993	16371
910.108	16500
910.224	16367
910.339	16489
910.454	16299
910.57	16333
910.685	16135
910.8	16531
910.915	16329
911.03	16246
911.145	16181
911.259	16116
911.374	16032
911.489	15987
911.604	15964
911.718	15774
911.833	15717
911.947	15800
912.062	15637
912.176	15804
912.291	15717
912.405	15682
912.519	15876
912.633	15972
912.748	15789
912.862	15686
912.976	15629
913.09	15447
913.204	15610
913.318	15557
913.431	15724
913.545	15736
913.659	15561
913.772	15568
913.886	15401
914	15435
914.113	15439
914.226	15584
914.34	15542
914.453	15317
914.566	15466
914.68	15302
914.793	15370
914.906	15222
915.019	15013
915.132	14998
915.245	14963
915.358	15047
915.47	15062
915.583	15013
915.696	14948
915.809	15154
915.921	15252
916.034	14941
916.146	15001
916.259	14887
916.371	15070
916.483	14929
916.595	14819
916.708	14849
916.82	14883
916.932	14823
917.044	14845
917.156	14819
917.268	14689
917.38	14743
917.491	14632
917.603	14697
917.715	14777
917.826	14826
917.938	14682
918.049	14564
918.161	14724
918.272	14811
918.384	14667
918.495	14560
918.606	14571
918.717	14415
918.828	14389
918.939	14526
919.05	14412
919.161	14450
919.272	14191
919.383	14328
919.494	14560
919.604	14735
919.715	14469
919.826	14275
919.936	14313
920.047	14499
920.157	14419
920.267	14590
920.378	14427
920.488	14355
920.598	14541
920.708	14712
920.818	14617
920.928	14526
921.038	14617
921.148	14621
921.258	14393
921.368	14408
921.477	14282
921.587	14183
921.697	14001
921.806	14107
921.916	13989
922.025	13894
922.134	13791
922.244	13753
922.353	13898
922.462	13666
922.571	13590
922.68	13537
922.789	13407
922.898	13480
923.007	13426
923.116	13362
923.224	13434
923.333	13422
923.442	13293
923.55	13316
923.659	13335
923.767	13327
923.876	13213
923.984	13255
924.092	13160
924.201	13289
924.309	13270
924.417	13183
924.525	13095
924.633	13179
924.741	13921
924.849	12878
924.956	13065
925.064	12943
925.172	12791
925.279	12863
925.387	12829
925.494	12920
925.602	12890
925.709	12932
925.816	12802
925.924	12802
926.031	12852
926.138	12802
926.245	12909
926.352	12677
926.459	12867
926.566	12852
926.673	12776
926.779	12589
926.886	12703
926.993	12426
927.099	12388
927.206	12464
927.312	12327
927.419	12448
927.525	12391
927.631	12437
927.737	12369
927.843	12273
927.95	12140
928.056	12323
928.162	12365
928.267	12300
928.373	12916
928.479	12395
928.585	12095
928.69	12136
928.796	12205
928.901	12136
929.007	12076
929.112	12121
929.218	11992
929.323	12015
929.428	12053
929.533	12152
929.638	11954
929.743	11996
929.848	11908
929.953	11969
930.058	11813
930.163	11703
930.267	11623
930.372	11874
930.477	11611
930.581	11840
930.685	11676
930.79	11615
930.894	11653
930.998	11524
931.103	11665
931.207	11345
931.311	11223
931.415	11121
931.519	10961
931.623	10980
