Data from test_V78500241_3537.txt Node
Date: Fri Mar 25 15:34:29 CST 2022
User: usil
Spectrometer: V785-0024
Trigger mode: 0
Integration Time (sec): 4.000000E-1
Scans to average: 1
Nonlinearity correction enabled: false
Boxcar width: 0
Storing dark spectrum: false
XAxis mode: Wavelengths
Number of Pixels in Spectrum: 1024
>>>>>Begin Spectral Data<<<<<
801.071	27233
801.214	27104
801.356	26899
801.499	26948
801.641	26845
801.783	26743
801.926	26735
802.068	26800
802.211	26644
802.353	26533
802.496	26568
802.638	26518
802.78	26434
802.923	26358
803.065	26126
803.208	26419
803.35	26393
803.492	26495
803.635	26499
803.777	26442
803.919	26541
804.061	26887
804.204	26583
804.346	26492
804.488	26480
804.63	26511
804.773	26370
804.915	26453
805.057	26594
805.199	26530
805.341	26526
805.483	26712
805.626	26636
805.768	26579
805.91	26655
806.052	26632
806.194	26526
806.336	26918
806.478	26651
806.62	26571
806.762	26765
806.904	26906
807.046	27135
807.188	27142
807.33	27085
807.472	27020
807.614	26940
807.756	27157
807.898	26921
808.04	26849
808.182	26834
808.324	26929
808.465	26921
808.607	27036
808.749	27279
808.891	27351
809.033	27424
809.174	27367
809.316	27169
809.458	27313
809.6	27245
809.741	27348
809.883	27340
810.025	27500
810.166	27545
810.308	27481
810.45	27462
810.591	27420
810.733	27260
810.875	27222
811.016	27252
811.158	27199
811.299	27405
811.441	27325
811.582	27511
811.724	27165
811.865	27268
812.007	27233
812.148	27195
812.29	27264
812.431	27291
812.573	27648
812.714	27530
812.855	27835
812.997	27816
813.138	28040
813.279	27755
813.421	27656
813.562	27701
813.703	27614
813.845	27408
813.986	27176
814.127	27089
814.268	27028
814.41	26948
814.551	26868
814.692	27058
814.833	26823
814.974	26861
815.115	26788
815.256	26754
815.397	26670
815.539	26716
815.68	26708
815.821	26659
815.962	26777
816.103	26644
816.244	26552
816.385	26427
816.526	26507
816.666	26343
816.807	26267
816.948	26290
817.089	26358
817.23	26244
817.371	26107
817.512	26161
817.653	26149
817.793	26157
817.934	26176
818.075	26161
818.216	26084
818.356	26191
818.497	26134
818.638	25966
818.778	25852
818.919	26077
819.06	26035
819.2	25978
819.341	26294
819.481	26164
819.622	26244
819.762	26488
819.903	26457
820.043	26370
820.184	26248
820.324	26252
820.465	26415
820.605	26267
820.746	26244
820.886	26058
821.026	26313
821.167	26229
821.307	26248
821.447	26214
821.588	26050
821.728	25856
821.868	25658
822.008	25700
822.149	25639
822.289	25624
822.429	25453
822.569	25407
822.709	25339
822.849	25206
822.99	25187
823.13	25164
823.27	25076
823.41	24920
823.55	24867
823.69	24935
823.83	24935
823.97	24954
824.11	24707
824.25	24776
824.389	24707
824.529	24890
824.669	24829
824.809	24871
824.949	24738
825.089	24837
825.228	24779
825.368	24623
825.508	24745
825.648	24639
825.787	24738
825.927	24677
826.067	24722
826.206	24604
826.346	24791
826.485	24654
826.625	24741
826.765	24760
826.904	24684
827.044	24399
827.183	24521
827.323	24342
827.462	24353
827.601	24338
827.741	24296
827.88	24460
828.02	24235
828.159	24433
828.298	24452
828.437	24376
828.577	24300
828.716	24441
828.855	24262
828.994	24155
829.134	24079
829.273	24186
829.412	24064
829.551	23965
829.69	24114
829.829	24152
829.968	24174
830.107	24068
830.246	24076
830.385	24064
830.524	23901
830.663	23897
830.802	23836
830.941	23729
831.08	23642
831.219	23672
831.357	23741
831.496	23923
831.635	23733
831.774	23634
831.913	23585
832.051	23528
832.19	23459
832.329	23543
832.467	23425
832.606	23349
832.744	23311
832.883	23345
833.022	23387
833.16	23471
833.299	23429
833.437	23414
833.576	23482
833.714	23417
833.852	23452
833.991	23452
834.129	23440
834.267	23387
834.406	23429
834.544	23604
834.682	23387
834.821	23395
834.959	23573
835.097	23444
835.235	23592
835.373	23337
835.511	23383
835.65	23398
835.788	23356
835.926	23155
836.064	23010
836.202	23109
836.34	23311
836.478	23364
836.615	23387
836.753	23379
836.891	23444
837.029	23315
837.167	23288
837.305	23052
837.443	23117
837.58	23086
837.718	23086
837.856	23250
837.993	23220
838.131	23113
838.269	23056
838.406	22995
838.544	22995
838.681	22736
838.819	22733
838.956	22599
839.094	22596
839.231	22786
839.369	22778
839.506	22930
839.643	22858
839.781	22649
839.918	22599
840.055	22668
840.193	22675
840.33	22626
840.467	22622
840.604	22630
840.742	22755
840.879	22417
841.016	22481
841.153	22371
841.29	22691
841.427	22535
841.564	22588
841.701	22626
841.838	22592
841.975	22436
842.112	22470
842.249	22424
842.385	22402
842.522	22512
842.659	22428
842.796	22291
842.933	22428
843.069	22360
843.206	22325
843.343	22462
843.479	22379
843.616	22344
843.752	22040
843.889	22036
844.025	22257
844.162	22139
844.298	22112
844.435	22051
844.571	22097
844.708	22078
844.844	22211
844.98	22109
845.117	22211
845.253	22006
845.389	22051
845.525	21975
845.661	21892
845.798	21930
845.934	21930
846.07	21816
846.206	21922
846.342	21751
846.478	21785
846.614	21618
846.75	21431
846.886	21572
847.022	21682
847.158	21583
847.294	21564
847.429	21603
847.565	21538
847.701	21831
847.837	21359
847.972	21272
848.108	21363
848.244	21321
848.379	21256
848.515	21085
848.65	21207
848.786	21032
848.921	21188
849.057	21249
849.192	21173
849.328	21260
849.463	21218
849.598	21093
849.734	21074
849.869	21058
850.004	21070
850.14	20952
850.275	21017
850.41	20842
850.545	20864
850.68	20952
850.815	20914
850.95	20941
851.085	21180
851.22	21039
851.355	20960
851.49	20937
851.625	20990
851.76	20944
851.895	20735
852.03	20807
852.165	20834
852.299	20960
852.434	21020
852.569	21020
852.703	20979
852.838	21020
852.973	20998
853.107	21032
853.242	20864
853.376	20838
853.511	20644
853.645	20769
853.78	20975
853.914	20724
854.048	20800
854.183	20724
854.317	20731
854.451	20880
854.585	20830
854.72	20716
854.854	20785
854.988	20590
855.122	20743
855.256	20526
855.39	20739
855.524	20838
855.658	20872
855.792	20739
855.926	20750
856.06	20777
856.194	20777
856.327	20781
856.461	20697
856.595	20735
856.729	20750
856.862	20883
856.996	20811
857.13	20830
857.263	20819
857.397	20868
857.53	20735
857.664	20765
857.797	20842
857.931	20880
858.064	20842
858.197	20853
858.331	20750
858.464	20769
858.597	20773
858.731	20845
858.864	20678
858.997	20712
859.13	20815
859.263	20731
859.396	20906
859.529	20773
859.662	20868
859.795	20682
859.928	20777
860.061	21013
860.194	20948
860.327	20868
860.46	20792
860.592	20864
860.725	20944
860.858	20952
860.99	20697
861.123	20552
861.256	20750
861.388	20830
861.521	21485
861.653	20678
861.786	20579
861.918	20575
862.05	20625
862.183	20640
862.315	20629
862.447	20777
862.58	20731
862.712	20590
862.844	20488
862.976	20609
863.108	20609
863.24	20815
863.372	20309
863.504	20587
863.636	20461
863.768	20473
863.9	20526
864.032	20396
864.164	20427
864.296	20461
864.428	20594
864.559	20530
864.691	20590
864.823	20514
864.954	20454
865.086	20552
865.217	20400
865.349	20305
865.48	20514
865.612	20339
865.743	20438
865.875	20393
866.006	20294
866.137	20377
866.269	20336
866.4	20389
866.531	20374
866.662	20332
866.793	20358
866.924	20381
867.055	20374
867.186	20324
867.317	20290
867.448	20180
867.579	20332
867.71	20240
867.841	20252
867.972	20286
868.103	20317
868.233	20301
868.364	20324
868.495	20476
868.625	20590
868.756	20674
868.886	20511
869.017	20609
869.147	20667
869.278	20648
869.408	20762
869.539	20583
869.669	20598
869.799	20629
869.929	20739
870.06	20781
870.19	20990
870.32	20792
870.45	20868
870.58	20952
870.71	21047
870.84	21093
870.97	21020
871.1	21043
871.23	21070
871.36	21230
871.489	21081
871.619	21226
871.749	21275
871.879	21184
872.008	21313
872.138	21184
872.267	21173
872.397	21047
872.526	20963
872.656	21024
872.785	21077
872.915	21081
873.044	21298
873.173	21348
873.303	21340
873.432	21283
873.561	21207
873.69	21222
873.819	21165
873.948	21207
874.077	21169
874.206	21135
874.335	21199
874.464	21351
874.593	21450
874.722	21424
874.851	21488
874.979	21389
875.108	21473
875.237	21386
875.365	21306
875.494	21412
875.623	21561
875.751	21447
875.88	21523
876.008	21637
876.136	21698
876.265	21926
876.393	21903
876.521	21876
876.65	21991
876.778	21778
876.906	21759
877.034	21770
877.162	21850
877.29	21701
877.418	21739
877.546	21728
877.674	21732
877.802	21759
877.93	21770
878.058	21770
878.185	21625
878.313	21732
878.441	21751
878.568	21580
878.696	21751
878.824	21793
878.951	21930
879.079	21911
879.206	22078
879.333	21937
879.461	21873
879.588	22021
879.715	21895
879.842	22090
879.97	21918
880.097	21568
880.224	21614
880.351	21648
880.478	21572
880.605	21568
880.732	21534
880.859	21850
880.986	21534
881.112	21583
881.239	21454
881.366	21298
881.493	21348
881.619	21138
881.746	21226
881.872	21138
881.999	21123
882.125	21135
882.252	21256
882.378	21173
882.505	21317
882.631	21127
882.757	20788
882.883	20994
883.01	20956
883.136	20720
883.262	20796
883.388	20609
883.514	20960
883.64	20979
883.766	20800
883.892	20708
884.018	20777
884.143	20868
884.269	20895
884.395	20590
884.52	20545
884.646	20587
884.772	20461
884.897	20396
885.023	20617
885.148	20590
885.274	20697
885.399	20667
885.524	20533
885.65	20598
885.775	20636
885.9	20602
886.025	20629
886.15	20613
886.275	20457
886.4	20419
886.525	20457
886.65	20358
886.775	20499
886.9	20659
887.025	20735
887.149	20480
887.274	20278
887.399	20366
887.523	20305
887.648	20336
887.773	20244
887.897	20431
888.021	20309
888.146	20187
888.27	20385
888.395	20400
888.519	20400
888.643	20446
888.767	20370
888.891	20347
889.015	20035
889.139	20206
889.263	20088
889.387	20191
889.511	20294
889.635	20237
889.759	20134
889.883	20145
890.006	20142
890.13	20252
890.254	20107
890.377	20039
890.501	19845
890.624	19795
890.748	19917
890.871	19742
890.995	19704
891.118	19685
891.241	19666
891.364	19742
891.488	19791
891.611	19723
891.734	19738
891.857	19696
891.98	19670
892.103	19700
892.226	19712
892.349	19635
892.471	19487
892.594	19674
892.717	19666
892.839	19677
892.962	19719
893.085	19856
893.207	19635
893.33	19506
893.452	19464
893.575	19742
893.697	19681
893.819	19807
893.941	19799
894.064	19719
894.186	19601
894.308	19662
894.43	19712
894.552	19814
894.674	19727
894.796	19620
894.918	19620
895.04	19616
895.161	19632
895.283	19628
895.405	19537
895.526	19506
895.648	19605
895.769	19605
895.891	19708
896.012	19742
896.134	19651
896.255	19620
896.376	19521
896.498	19647
896.619	19750
896.74	19597
896.861	19696
896.982	19947
897.103	20149
897.224	19986
897.345	19852
897.466	19826
897.587	19830
897.708	19989
897.828	19833
897.949	19822
898.07	19719
898.19	19791
898.311	19951
898.431	19963
898.552	19902
898.672	20058
898.792	19913
898.913	19833
899.033	19738
899.153	19624
899.273	19597
899.393	19609
899.513	19700
899.633	19597
899.753	19658
899.873	19468
899.993	19605
900.113	19643
900.232	19620
900.352	19468
900.472	19350
900.591	19381
900.711	19392
900.83	19263
900.95	19476
901.069	19544
901.189	19244
901.308	18951
901.427	18954
901.546	18989
901.665	18981
901.784	18913
901.904	18814
902.023	18837
902.141	18604
902.26	18506
902.379	18601
902.498	18426
902.617	18475
902.735	18456
902.854	18433
902.973	18433
903.091	18247
903.21	18148
903.328	18125
903.446	18064
903.565	17950
903.683	18007
903.801	17817
903.919	17954
904.038	17973
904.156	17672
904.274	17912
904.392	17718
904.51	17775
904.627	17695
904.745	17737
904.863	17714
904.981	17551
905.098	17337
905.216	17349
905.334	17436
905.451	17414
905.569	17444
905.686	17402
905.803	17417
905.921	17315
906.038	17246
906.155	17265
906.272	17151
906.389	17166
906.506	17045
906.623	17048
906.74	16927
906.857	16923
906.974	16953
907.091	17025
907.208	17124
907.324	17014
907.441	16858
907.557	16733
907.674	16531
907.79	16615
907.907	16618
908.023	16831
908.139	16778
908.256	16668
908.372	16641
908.488	16542
908.604	16443
908.72	16394
908.836	16413
908.952	16382
909.068	16470
909.184	16516
909.3	16405
909.415	16516
909.531	16341
909.647	16204
909.762	16105
909.878	16185
909.993	16211
910.108	16093
910.224	16086
910.339	16135
910.454	15934
910.57	15850
910.685	15873
910.8	16272
910.915	16101
911.03	15907
911.145	15770
911.259	15701
911.374	15739
911.489	15648
911.604	15625
911.718	15428
911.833	15496
911.947	15389
912.062	15359
912.176	15378
912.291	15408
912.405	15443
912.519	15759
912.633	15641
912.748	15618
912.862	15496
912.976	15374
913.09	15214
913.204	15245
913.318	15408
913.431	15382
913.545	15405
913.659	15302
913.772	15241
913.886	15192
914	15108
914.113	15169
914.226	15195
914.34	15081
914.453	15028
914.566	15089
914.68	14998
914.793	14998
914.906	14678
915.019	14792
915.132	14712
915.245	14746
915.358	14689
915.47	14682
915.583	14651
915.696	14686
915.809	14834
915.921	14853
916.034	14705
916.146	14644
916.259	14617
916.371	14716
916.483	14762
916.595	14583
916.708	14545
916.82	14552
916.932	14511
917.044	14522
917.156	14495
917.268	14347
917.38	14419
917.491	14317
917.603	14389
917.715	14522
917.826	14473
917.938	14347
918.049	14218
918.161	14275
918.272	14518
918.384	14461
918.495	14362
918.606	14286
918.717	14088
918.828	14206
918.939	14210
919.05	14035
919.161	14111
919.272	13936
919.383	13970
919.494	14240
919.604	14415
919.715	14123
919.826	14035
919.936	14065
920.047	14214
920.157	14142
920.267	14324
920.378	14092
920.488	14084
920.598	14305
920.708	14533
920.818	14259
920.928	14187
921.038	14461
921.148	14298
921.258	14046
921.368	14039
921.477	13978
921.587	13845
921.697	13814
921.806	13849
921.916	13772
922.025	13544
922.134	13491
922.244	13468
922.353	13514
922.462	13388
922.571	13358
922.68	13293
922.789	13202
922.898	13209
923.007	13099
923.116	13141
923.224	13110
923.333	13202
923.442	13065
923.55	13012
923.659	13072
923.767	13076
923.876	12947
923.984	12989
924.092	12932
924.201	12924
924.309	12943
924.417	12886
924.525	12871
924.633	12863
924.741	13658
924.849	12722
924.956	12806
925.064	12703
925.172	12597
925.279	12631
925.387	12578
925.494	12654
925.602	12684
925.709	12711
925.816	12464
925.924	12486
926.031	12597
926.138	12551
926.245	12540
926.352	12471
926.459	12563
926.566	12700
926.673	12399
926.779	12338
926.886	12289
926.993	12239
927.099	12251
927.206	12133
927.312	12186
927.419	12285
927.525	12163
927.631	12152
927.737	12064
927.843	12053
927.95	11863
928.056	11988
928.162	12053
928.267	12129
928.373	12563
928.479	12136
928.585	11851
928.69	11969
928.796	12087
928.901	11866
929.007	11764
929.112	11897
929.218	11904
929.323	11786
929.428	11729
929.533	11882
929.638	11512
929.743	11657
929.848	11767
929.953	11699
930.058	11592
930.163	11509
930.267	11429
930.372	11623
930.477	11406
930.581	11665
930.685	11486
930.79	11326
930.894	11353
930.998	11315
931.103	11463
931.207	11056
931.311	10949
931.415	10896
931.519	10790
931.623	10660
