Data from test_V78500241_1225.txt Node
Date: Fri Mar 25 15:18:23 CST 2022
User: usil
Spectrometer: V785-0024
Trigger mode: 0
Integration Time (sec): 4.000000E-1
Scans to average: 1
Nonlinearity correction enabled: false
Boxcar width: 0
Storing dark spectrum: false
XAxis mode: Wavelengths
Number of Pixels in Spectrum: 1024
>>>>>Begin Spectral Data<<<<<
801.071	28097
801.214	27972
801.356	27728
801.499	27599
801.641	27610
801.783	27701
801.926	27625
802.068	27557
802.211	27545
802.353	27405
802.496	27412
802.638	27245
802.78	27230
802.923	27180
803.065	27211
803.208	27214
803.35	27230
803.492	27416
803.635	27389
803.777	27435
803.919	27587
804.061	27759
804.204	27610
804.346	27504
804.488	27386
804.63	27386
804.773	27462
804.915	27641
805.057	27637
805.199	27481
805.341	27698
805.483	27682
805.626	27420
805.768	27523
805.91	27549
806.052	27534
806.194	27534
806.336	27732
806.478	27610
806.62	27572
806.762	27739
806.904	27895
807.046	28097
807.188	27998
807.33	27994
807.472	27953
807.614	27960
807.756	27903
807.898	27956
808.04	27876
808.182	27922
808.324	27846
808.465	27914
808.607	28074
808.749	28226
808.891	28401
809.033	28401
809.174	28413
809.316	28207
809.458	28158
809.6	28238
809.741	28337
809.883	28421
810.025	28615
810.166	28485
810.308	28653
810.45	28577
810.591	28409
810.733	28443
810.875	28234
811.016	28185
811.158	28032
811.299	28295
811.441	28306
811.582	28485
811.724	28280
811.865	28291
812.007	28204
812.148	28284
812.29	28268
812.431	28432
812.573	28573
812.714	28774
812.855	28740
812.997	28904
813.138	28961
813.279	28927
813.421	28987
813.562	28771
813.703	28786
813.845	28443
813.986	28177
814.127	28154
814.268	28017
814.41	28021
814.551	27956
814.692	28010
814.833	27964
814.974	27953
815.115	27926
815.256	27854
815.397	27888
815.539	27732
815.68	27701
815.821	27671
815.962	27850
816.103	27762
816.244	27675
816.385	27583
816.526	27504
816.666	27504
816.807	27348
816.948	27363
817.089	27412
817.23	27416
817.371	27302
817.512	27192
817.653	27363
817.793	27199
817.934	27317
818.075	27329
818.216	27298
818.356	27329
818.497	27176
818.638	27116
818.778	27131
818.919	27077
819.06	27074
819.2	27180
819.341	27180
819.481	27310
819.622	27466
819.762	27576
819.903	27576
820.043	27378
820.184	27458
820.324	27504
820.465	27450
820.605	27355
820.746	27367
820.886	27230
821.026	27317
821.167	27370
821.307	27439
821.447	27389
821.588	27207
821.728	27150
821.868	27020
822.008	26701
822.149	26819
822.289	26731
822.429	26442
822.569	26507
822.709	26473
822.849	26240
822.99	26278
823.13	26328
823.27	26221
823.41	26020
823.55	25970
823.69	26225
823.83	26062
823.97	25951
824.11	25951
824.25	25841
824.389	25978
824.529	26088
824.669	25925
824.809	26005
824.949	25936
825.089	25970
825.228	25966
825.368	25681
825.508	25731
825.648	25856
825.787	25833
825.927	25925
826.067	25769
826.206	25906
826.346	25807
826.485	25807
826.625	25807
826.765	25921
826.904	25753
827.044	25658
827.183	25502
827.323	25567
827.462	25666
827.601	25533
827.741	25457
827.88	25575
828.02	25422
828.159	25476
828.298	25586
828.437	25670
828.577	25308
828.716	25567
828.855	25540
828.994	25304
829.134	25236
829.273	25335
829.412	25080
829.551	25232
829.69	25168
829.829	25213
829.968	25354
830.107	25289
830.246	25175
830.385	25091
830.524	25069
830.663	25107
830.802	24924
830.941	24939
831.08	24776
831.219	24954
831.357	24878
831.496	25023
831.635	24848
831.774	24837
831.913	24570
832.051	24669
832.19	24840
832.329	24650
832.467	24601
832.606	24452
832.744	24448
832.883	24559
833.022	24376
833.16	24604
833.299	24566
833.437	24448
833.576	24502
833.714	24593
833.852	24585
833.991	24620
834.129	24703
834.267	24673
834.406	24673
834.544	24475
834.682	24566
834.821	24669
834.959	24719
835.097	24532
835.235	24597
835.373	24574
835.511	24544
835.65	24445
835.788	24456
835.926	24201
836.064	24239
836.202	24338
836.34	24445
836.478	24585
836.615	24475
836.753	24376
836.891	24536
837.029	24429
837.167	24357
837.305	24365
837.443	24342
837.58	24258
837.718	24403
837.856	24243
837.993	24102
838.131	24228
838.269	24167
838.406	24144
838.544	24106
838.681	23969
838.819	23965
838.956	23703
839.094	23767
839.231	23767
839.369	23965
839.506	24110
839.643	24022
839.781	23627
839.918	23756
840.055	23596
840.193	23695
840.33	23676
840.467	23718
840.604	23756
840.742	23923
840.879	23581
841.016	23619
841.153	23554
841.29	23741
841.427	23634
841.564	23668
841.701	23558
841.838	23539
841.975	23417
842.112	23535
842.249	23360
842.385	23414
842.522	23646
842.659	23467
842.796	23391
842.933	23299
843.069	23303
843.206	23398
843.343	23505
843.479	23356
843.616	23353
843.752	23273
843.889	23174
844.025	23242
844.162	23162
844.298	23322
844.435	23220
844.571	23105
844.708	23220
844.844	23379
844.98	23258
845.117	23307
845.253	23181
845.389	23056
845.525	23079
845.661	23121
845.798	22946
845.934	22934
846.07	22869
846.206	22942
846.342	22968
846.478	22927
846.614	22790
846.75	22542
846.886	22577
847.022	22866
847.158	22725
847.294	22512
847.429	22702
847.565	22713
847.701	22896
847.837	22325
847.972	22371
848.108	22394
848.244	22519
848.379	22249
848.515	22158
848.65	22166
848.786	22162
848.921	22287
849.057	22200
849.192	22325
849.328	22234
849.463	22207
849.598	22188
849.734	22215
849.869	22131
850.004	21937
850.14	22051
850.275	21926
850.41	21937
850.545	22051
850.68	21998
850.815	22082
850.95	21968
851.085	22109
851.22	22082
851.355	21979
851.49	21945
851.625	22002
851.76	22040
851.895	21903
852.03	21907
852.165	21945
852.299	22013
852.434	22070
852.569	22044
852.703	22002
852.838	22124
852.973	22090
853.107	22090
853.242	21956
853.376	21949
853.511	21652
853.645	21838
853.78	21880
853.914	21918
854.048	21785
854.183	21835
854.317	21884
854.451	21956
854.585	21739
854.72	21816
854.854	21884
854.988	21679
855.122	21861
855.256	21641
855.39	21762
855.524	21865
855.658	21838
855.792	21865
855.926	21778
856.06	21926
856.194	21873
856.327	21739
856.461	21644
856.595	21762
856.729	21713
856.862	21968
856.996	21968
857.13	21880
857.263	21823
857.397	21930
857.53	21747
857.664	21915
857.797	21953
857.931	21857
858.064	21808
858.197	21907
858.331	21804
858.464	21686
858.597	21694
858.731	21854
858.864	21823
858.997	21724
859.13	21850
859.263	21774
859.396	21823
859.529	21713
859.662	21854
859.795	21797
859.928	21838
860.061	21899
860.194	22021
860.327	21880
860.46	21915
860.592	22032
860.725	21865
860.858	21983
860.99	21930
861.123	21880
861.256	21709
861.388	21732
861.521	22523
861.653	21800
861.786	21568
861.918	21564
862.05	21724
862.183	21724
862.315	21884
862.447	21785
862.58	21766
862.712	21587
862.844	21564
862.976	21637
863.108	21568
863.24	21884
863.372	21458
863.504	21504
863.636	21564
863.768	21568
863.9	21595
864.032	21515
864.164	21488
864.296	21485
864.428	21663
864.559	21580
864.691	21564
864.823	21492
864.954	21576
865.086	21507
865.217	21439
865.349	21374
865.48	21450
865.612	21477
865.743	21557
865.875	21439
866.006	21359
866.137	21397
866.269	21443
866.4	21397
866.531	21310
866.662	21218
866.793	21298
866.924	21389
867.055	21325
867.186	21378
867.317	21252
867.448	21264
867.579	21374
867.71	21245
867.841	21188
867.972	21294
868.103	21317
868.233	21416
868.364	21447
868.495	21408
868.625	21530
868.756	21648
868.886	21469
869.017	21568
869.147	21751
869.278	21713
869.408	21625
869.539	21564
869.669	21606
869.799	21660
869.929	21599
870.06	21709
870.19	21861
870.32	21884
870.45	21857
870.58	21983
870.71	22013
870.84	22131
870.97	21846
871.1	21895
871.23	22048
871.36	22131
871.489	22025
871.619	22211
871.749	22093
871.879	22135
872.008	22310
872.138	22173
872.267	22067
872.397	22135
872.526	22105
872.656	21983
872.785	21991
872.915	22188
873.044	22291
873.173	22249
873.303	22162
873.432	22261
873.561	22230
873.69	22158
873.819	22238
873.948	22310
874.077	22238
874.206	22112
874.335	22272
874.464	22341
874.593	22451
874.722	22344
874.851	22306
874.979	22474
875.108	22443
875.237	22443
875.365	22211
875.494	22268
875.623	22459
875.751	22409
875.88	22390
876.008	22596
876.136	22592
876.265	22687
876.393	22869
876.521	22900
876.65	22892
876.778	22786
876.906	22713
877.034	22691
877.162	22725
877.29	22645
877.418	22767
877.546	22782
877.674	22866
877.802	22759
877.93	22675
878.058	22755
878.185	22622
878.313	22660
878.441	22786
878.568	22573
878.696	22649
878.824	22767
878.951	22786
879.079	22850
879.206	23132
879.333	22942
879.461	22740
879.588	22961
879.715	22805
879.842	23022
879.97	22809
880.097	22599
880.224	22584
880.351	22565
880.478	22542
880.605	22542
880.732	22512
880.859	22790
880.986	22485
881.112	22596
881.239	22440
881.366	22325
881.493	22135
881.619	22242
881.746	22295
881.872	22063
881.999	22120
882.125	21975
882.252	22173
882.378	22086
882.505	22230
882.631	22013
882.757	21804
882.883	21861
883.01	21797
883.136	21747
883.262	21705
883.388	21759
883.514	21766
883.64	21812
883.766	21857
883.892	21568
884.018	21648
884.143	21800
884.269	21793
884.395	21458
884.52	21561
884.646	21500
884.772	21477
884.897	21344
885.023	21443
885.148	21500
885.274	21553
885.399	21603
885.524	21488
885.65	21599
885.775	21504
885.9	21405
886.025	21641
886.15	21591
886.275	21382
886.4	21302
886.525	21401
886.65	21450
886.775	21412
886.9	21591
887.025	21686
887.149	21336
887.274	21310
887.399	21226
887.523	21249
887.648	21154
887.773	21173
887.897	21264
888.021	21241
888.146	21245
888.27	21218
888.395	21382
888.519	21233
888.643	21287
888.767	21298
888.891	21173
889.015	20960
889.139	21047
889.263	21070
889.387	21146
889.511	21203
889.635	21222
889.759	20960
889.883	21009
890.006	20925
890.13	21161
890.254	20948
890.377	20880
890.501	20781
890.624	20758
890.748	20815
890.871	20640
890.995	20571
891.118	20415
891.241	20621
891.364	20579
891.488	20617
891.611	20518
891.734	20537
891.857	20708
891.98	20682
892.103	20598
892.226	20571
892.349	20609
892.471	20415
892.594	20541
892.717	20625
892.839	20469
892.962	20431
893.085	20499
893.207	20522
893.33	20415
893.452	20507
893.575	20450
893.697	20446
893.819	20632
893.941	20697
894.064	20556
894.186	20381
894.308	20366
894.43	20454
894.552	20636
894.674	20587
894.796	20408
894.918	20438
895.04	20457
895.161	20560
895.283	20480
895.405	20393
895.526	20434
895.648	20518
895.769	20518
895.891	20381
896.012	20545
896.134	20602
896.255	20442
896.376	20457
896.498	20507
896.619	20476
896.74	20537
896.861	20575
896.982	20773
897.103	20826
897.224	20678
897.345	20560
897.466	20545
897.587	20667
897.708	20758
897.828	20686
897.949	20537
898.07	20431
898.19	20556
898.311	20609
898.431	20644
898.552	20693
898.672	20724
898.792	20842
898.913	20602
899.033	20590
899.153	20499
899.273	20225
899.393	20377
899.513	20461
899.633	20442
899.753	20377
899.873	20377
899.993	20434
900.113	20412
900.232	20377
900.352	20389
900.472	20202
900.591	20058
900.711	20142
900.83	20252
900.95	20225
901.069	20320
901.189	20214
901.308	19814
901.427	19765
901.546	19799
901.665	19750
901.784	19788
901.904	19578
902.023	19556
902.141	19388
902.26	19236
902.379	19346
902.498	19320
902.617	19194
902.735	19285
902.854	19240
902.973	19251
903.091	18905
903.21	18970
903.328	18886
903.446	18817
903.565	18726
903.683	18791
903.801	18688
903.919	18665
904.038	18684
904.156	18456
904.274	18616
904.392	18486
904.51	18486
904.627	18517
904.745	18513
904.863	18578
904.981	18319
905.098	18186
905.216	18049
905.334	18194
905.451	18186
905.569	18209
905.686	18205
905.803	18182
905.921	17965
906.038	18095
906.155	17954
906.272	17824
906.389	17824
906.506	17722
906.623	17695
906.74	17676
906.857	17703
906.974	17596
907.091	17771
907.208	17760
907.324	17752
907.441	17665
907.557	17436
907.674	17524
907.79	17330
907.907	17429
908.023	17383
908.139	17486
908.256	17360
908.372	17334
908.488	17326
908.604	17223
908.72	17185
908.836	17189
908.952	17117
909.068	17204
909.184	17273
909.3	17029
909.415	17056
909.531	17048
909.647	16812
909.762	16862
909.878	16820
909.993	16805
910.108	16892
910.224	16858
910.339	16736
910.454	16717
910.57	16664
910.685	16599
910.8	16908
910.915	16801
911.03	16630
911.145	16474
911.259	16500
911.374	16375
911.489	16386
911.604	16291
911.718	16078
911.833	16219
911.947	16101
912.062	15934
912.176	16238
912.291	16124
912.405	16059
912.519	16310
912.633	16322
912.748	16223
912.862	16124
912.976	16013
913.09	15759
913.204	15949
913.318	15968
913.431	16029
913.545	16101
913.659	16051
913.772	15865
913.886	15827
914	15755
914.113	15876
914.226	15857
914.34	15846
914.453	15789
914.566	15785
914.68	15694
914.793	15679
914.906	15473
915.019	15424
915.132	15336
915.245	15473
915.358	15351
915.47	15469
915.583	15370
915.696	15393
915.809	15492
915.921	15511
916.034	15344
916.146	15233
916.259	15268
916.371	15382
916.483	15218
916.595	15184
916.708	15192
916.82	15157
916.932	15188
917.044	15188
917.156	15214
917.268	14998
917.38	14994
917.491	14933
917.603	15013
917.715	15062
917.826	15119
917.938	14925
918.049	14883
918.161	15043
918.272	15043
918.384	15154
918.495	15039
918.606	14876
918.717	14769
918.828	14785
918.939	14739
919.05	14667
919.161	14758
919.272	14568
919.383	14651
919.494	14868
919.604	14956
919.715	14773
919.826	14682
919.936	14708
920.047	14819
920.157	14746
920.267	14861
920.378	14834
920.488	14750
920.598	14868
920.708	15032
920.818	14902
920.928	14861
921.038	15005
921.148	14967
921.258	14625
921.368	14590
921.477	14522
921.587	14461
921.697	14370
921.806	14568
921.916	14290
922.025	14088
922.134	14054
922.244	14062
922.353	14183
922.462	14016
922.571	13830
922.68	13757
922.789	13814
922.898	13746
923.007	13681
923.116	13788
923.224	13791
923.333	13639
923.442	13651
923.55	13575
923.659	13636
923.767	13567
923.876	13438
923.984	13559
924.092	13537
924.201	13567
924.309	13495
924.417	13487
924.525	13453
924.633	13426
924.741	14134
924.849	13103
924.956	13308
925.064	13228
925.172	13194
925.279	13133
925.387	13149
925.494	13141
925.602	13232
925.709	13168
925.816	13076
925.924	13023
926.031	13266
926.138	13000
926.245	13126
926.352	13069
926.459	13133
926.566	13183
926.673	12977
926.779	12890
926.886	13000
926.993	12749
927.099	12753
927.206	12711
927.312	12597
927.419	12745
927.525	12658
927.631	12833
927.737	12627
927.843	12506
927.95	12369
928.056	12460
928.162	12525
928.267	12582
928.373	13114
928.479	12623
928.585	12433
928.69	12403
928.796	12532
928.901	12437
929.007	12224
929.112	12323
929.218	12353
929.323	12247
929.428	12262
929.533	12426
929.638	12186
929.743	12216
929.848	12251
929.953	12235
930.058	12041
930.163	11859
930.267	12003
930.372	12064
930.477	11973
930.581	12220
930.685	11939
930.79	11927
930.894	11836
930.998	11707
931.103	11897
931.207	11611
931.311	11452
931.415	11395
931.519	11178
931.623	11239
