Data from test_V78500241_3514.txt Node
Date: Fri Mar 25 15:34:19 CST 2022
User: usil
Spectrometer: V785-0024
Trigger mode: 0
Integration Time (sec): 4.000000E-1
Scans to average: 1
Nonlinearity correction enabled: false
Boxcar width: 0
Storing dark spectrum: false
XAxis mode: Wavelengths
Number of Pixels in Spectrum: 1024
>>>>>Begin Spectral Data<<<<<
801.071	27393
801.214	27275
801.356	27108
801.499	27218
801.641	26979
801.783	26887
801.926	26990
802.068	27032
802.211	26826
802.353	26830
802.496	26507
802.638	26495
802.78	26621
802.923	26396
803.065	26385
803.208	26545
803.35	26499
803.492	26796
803.635	26727
803.777	26701
803.919	26762
804.061	27005
804.204	26762
804.346	26568
804.488	26579
804.63	26697
804.773	26571
804.915	26587
805.057	26800
805.199	26609
805.341	26807
805.483	26819
805.626	26883
805.768	26788
805.91	26712
806.052	26735
806.194	26758
806.336	26929
806.478	26849
806.62	26773
806.762	27081
806.904	26998
807.046	27237
807.188	27256
807.33	27100
807.472	27279
807.614	27058
807.756	27192
807.898	27100
808.04	26986
808.182	26960
808.324	27077
808.465	27142
808.607	27256
808.749	27431
808.891	27351
809.033	27557
809.174	27538
809.316	27389
809.458	27332
809.6	27340
809.741	27519
809.883	27595
810.025	27603
810.166	27701
810.308	27675
810.45	27679
810.591	27553
810.733	27370
810.875	27477
811.016	27397
811.158	27386
811.299	27454
811.441	27732
811.582	27526
811.724	27397
811.865	27412
812.007	27435
812.148	27488
812.29	27515
812.431	27625
812.573	27743
812.714	27736
812.855	27823
812.997	27991
813.138	28055
813.279	28017
813.421	27979
813.562	27819
813.703	27755
813.845	27644
813.986	27275
814.127	27169
814.268	27062
814.41	27001
814.551	27157
814.692	27108
814.833	27036
814.974	26990
815.115	27051
815.256	26883
815.397	26921
815.539	26975
815.68	26963
815.821	26861
815.962	26876
816.103	26830
816.244	26682
816.385	26651
816.526	26537
816.666	26412
816.807	26362
816.948	26347
817.089	26598
817.23	26362
817.371	26339
817.512	26366
817.653	26191
817.793	26206
817.934	26427
818.075	26271
818.216	26366
818.356	26343
818.497	26233
818.638	26012
818.778	26058
818.919	26073
819.06	26210
819.2	26225
819.341	26358
819.481	26453
819.622	26438
819.762	26488
819.903	26560
820.043	26431
820.184	26465
820.324	26518
820.465	26503
820.605	26396
820.746	26275
820.886	26233
821.026	26396
821.167	26404
821.307	26419
821.447	26423
821.588	26145
821.728	26077
821.868	25928
822.008	25868
822.149	25814
822.289	25864
822.429	25487
822.569	25487
822.709	25540
822.849	25308
822.99	25266
823.13	25247
823.27	25247
823.41	25274
823.55	25107
823.69	25122
823.83	25145
823.97	25145
824.11	25088
824.25	24970
824.389	25099
824.529	25072
824.669	24992
824.809	25061
824.949	24920
825.089	24958
825.228	25038
825.368	24848
825.508	24821
825.648	24848
825.787	24951
825.927	24962
826.067	24783
826.206	24703
826.346	24798
826.485	24932
826.625	24814
826.765	24867
826.904	24875
827.044	24601
827.183	24665
827.323	24517
827.462	24494
827.601	24547
827.741	24517
827.88	24490
828.02	24414
828.159	24570
828.298	24460
828.437	24410
828.577	24456
828.716	24563
828.855	24464
828.994	24334
829.134	24251
829.273	24315
829.412	24292
829.551	24243
829.69	24266
829.829	24213
829.968	24414
830.107	24361
830.246	24239
830.385	24228
830.524	24258
830.663	24136
830.802	23988
830.941	23893
831.08	23939
831.219	23931
831.357	23980
831.496	23992
831.635	23821
831.774	23843
831.913	23707
832.051	23779
832.19	23554
832.329	23745
832.467	23535
832.606	23436
832.744	23528
832.883	23467
833.022	23501
833.16	23600
833.299	23752
833.437	23570
833.576	23680
833.714	23687
833.852	23680
833.991	23585
834.129	23752
834.267	23722
834.406	23608
834.544	23729
834.682	23634
834.821	23733
834.959	23805
835.097	23486
835.235	23615
835.373	23783
835.511	23573
835.65	23452
835.788	23505
835.926	23353
836.064	23288
836.202	23269
836.34	23436
836.478	23566
836.615	23452
836.753	23292
836.891	23566
837.029	23482
837.167	23535
837.305	23284
837.443	23452
837.58	23212
837.718	23345
837.856	23318
837.993	23284
838.131	23326
838.269	23193
838.406	23197
838.544	23185
838.681	22953
838.819	22847
838.956	22919
839.094	22767
839.231	22759
839.369	23079
839.506	23242
839.643	23079
839.781	22885
839.918	22805
840.055	22744
840.193	22759
840.33	22752
840.467	22672
840.604	22820
840.742	22984
840.879	22519
841.016	22710
841.153	22713
841.29	22774
841.427	22706
841.564	22653
841.701	22771
841.838	22672
841.975	22550
842.112	22618
842.249	22421
842.385	22462
842.522	22675
842.659	22565
842.796	22333
842.933	22481
843.069	22409
843.206	22478
843.343	22542
843.479	22352
843.616	22493
843.752	22284
843.889	22303
844.025	22447
844.162	22306
844.298	22360
844.435	22325
844.571	22215
844.708	22185
844.844	22402
844.98	22333
845.117	22356
845.253	22010
845.389	22116
845.525	22192
845.661	22101
845.798	21937
845.934	22025
846.07	22025
846.206	22055
846.342	22116
846.478	22025
846.614	21819
846.75	21667
846.886	21785
847.022	21785
847.158	21739
847.294	21812
847.429	21652
847.565	21709
847.701	21979
847.837	21504
847.972	21447
848.108	21458
848.244	21599
848.379	21389
848.515	21408
848.65	21306
848.786	21283
848.921	21351
849.057	21424
849.192	21405
849.328	21351
849.463	21397
849.598	21405
849.734	21241
849.869	21203
850.004	20979
850.14	21161
850.275	21066
850.41	20967
850.545	20944
850.68	21077
850.815	21074
850.95	21051
851.085	21329
851.22	21173
851.355	21233
851.49	21192
851.625	21093
851.76	21146
851.895	20929
852.03	21001
852.165	21093
852.299	21074
852.434	21077
852.569	21138
852.703	21142
852.838	21123
852.973	21237
853.107	21192
853.242	21028
853.376	20952
853.511	20811
853.645	20925
853.78	20929
853.914	20899
854.048	20944
854.183	20918
854.317	20823
854.451	21024
854.585	20975
854.72	20830
854.854	21062
854.988	20842
855.122	20956
855.256	20762
855.39	20861
855.524	20963
855.658	21066
855.792	20998
855.926	20853
856.06	21066
856.194	20998
856.327	21028
856.461	20895
856.595	20849
856.729	20853
856.862	21013
856.996	20967
857.13	20815
857.263	21001
857.397	20986
857.53	20815
857.664	20944
857.797	20921
857.931	21127
858.064	20975
858.197	20975
858.331	20918
858.464	20842
858.597	20769
858.731	20914
858.864	20914
858.997	20857
859.13	20975
859.263	20887
859.396	20979
859.529	20914
859.662	20796
859.795	20849
859.928	20864
860.061	21005
860.194	21112
860.327	21074
860.46	20925
860.592	20960
860.725	21116
860.858	21154
860.99	20838
861.123	20891
861.256	20777
861.388	20796
861.521	21694
861.653	20902
861.786	20636
861.918	20670
862.05	20948
862.183	20899
862.315	20872
862.447	20834
862.58	20849
862.712	20777
862.844	20727
862.976	20693
863.108	20678
863.24	21047
863.372	20621
863.504	20739
863.636	20701
863.768	20636
863.9	20579
864.032	20667
864.164	20632
864.296	20648
864.428	20765
864.559	20636
864.691	20773
864.823	20640
864.954	20697
865.086	20560
865.217	20484
865.349	20507
865.48	20560
865.612	20587
865.743	20556
865.875	20617
866.006	20476
866.137	20549
866.269	20488
866.4	20461
866.531	20389
866.662	20454
866.793	20514
866.924	20484
867.055	20457
867.186	20499
867.317	20457
867.448	20393
867.579	20488
867.71	20351
867.841	20408
867.972	20434
868.103	20374
868.233	20469
868.364	20423
868.495	20621
868.625	20667
868.756	20948
868.886	20484
869.017	20705
869.147	20705
869.278	20895
869.408	20731
869.539	20640
869.669	20845
869.799	20830
869.929	20823
870.06	20636
870.19	20986
870.32	20925
870.45	21055
870.58	21089
870.71	21176
870.84	21283
870.97	21214
871.1	21135
871.23	21321
871.36	21310
871.489	21256
871.619	21294
871.749	21310
871.879	21374
872.008	21450
872.138	21367
872.267	21378
872.397	21211
872.526	21203
872.656	21062
872.785	21199
872.915	21359
873.044	21469
873.173	21405
873.303	21363
873.432	21268
873.561	21389
873.69	21272
873.819	21370
873.948	21321
874.077	21363
874.206	21173
874.335	21355
874.464	21431
874.593	21492
874.722	21568
874.851	21667
874.979	21614
875.108	21622
875.237	21462
875.365	21458
875.494	21603
875.623	21652
875.751	21610
875.88	21663
876.008	21686
876.136	21720
876.265	21934
876.393	22086
876.521	22059
876.65	22116
876.778	21998
876.906	21903
877.034	21937
877.162	22010
877.29	21956
877.418	21968
877.546	21941
877.674	21922
877.802	21907
877.93	21873
878.058	21964
878.185	21842
878.313	21857
878.441	21873
878.568	21747
878.696	21953
878.824	21983
878.951	22048
879.079	22188
879.206	22238
879.333	21987
879.461	21979
879.588	22036
879.715	22078
879.842	22341
879.97	21922
880.097	21785
880.224	21770
880.351	21869
880.478	21804
880.605	21705
880.732	21724
880.859	22040
880.986	21778
881.112	21804
881.239	21698
881.366	21469
881.493	21496
881.619	21374
881.746	21313
881.872	21283
881.999	21287
882.125	21367
882.252	21370
882.378	21306
882.505	21542
882.631	21245
882.757	21066
882.883	21146
883.01	20960
883.136	21051
883.262	20933
883.388	20925
883.514	21154
883.64	20975
883.766	21001
883.892	20765
884.018	20792
884.143	20910
884.269	21112
884.395	20804
884.52	20678
884.646	20735
884.772	20674
884.897	20583
885.023	20746
885.148	20708
885.274	20777
885.399	20743
885.524	20674
885.65	20758
885.775	20724
885.9	20724
886.025	20731
886.15	20773
886.275	20514
886.4	20583
886.525	20667
886.65	20541
886.775	20613
886.9	20686
887.025	20857
887.149	20602
887.274	20495
887.399	20541
887.523	20480
887.648	20374
887.773	20343
887.897	20484
888.021	20476
888.146	20347
888.27	20629
888.395	20571
888.519	20514
888.643	20469
888.767	20461
888.891	20427
889.015	20298
889.139	20328
889.263	20385
889.387	20374
889.511	20507
889.635	20469
889.759	20286
889.883	20343
890.006	20347
890.13	20320
890.254	20161
890.377	20191
890.501	19989
890.624	19959
890.748	20100
890.871	19875
890.995	19841
891.118	19845
891.241	19928
891.364	19753
891.488	19944
891.611	19753
891.734	19932
891.857	19894
891.98	19849
892.103	19890
892.226	19799
892.349	19746
892.471	19731
892.594	19826
892.717	19909
892.839	19826
892.962	19959
893.085	19746
893.207	19784
893.33	19632
893.452	19780
893.575	19788
893.697	19864
893.819	19997
893.941	20008
894.064	19902
894.186	19689
894.308	19689
894.43	19898
894.552	19959
894.674	19852
894.796	19635
894.918	19757
895.04	19818
895.161	19902
895.283	19978
895.405	19811
895.526	19837
895.648	19662
895.769	19868
895.891	19951
896.012	19932
896.134	19822
896.255	19791
896.376	19811
896.498	19788
896.619	19822
896.74	19822
896.861	19928
896.982	20058
897.103	20263
897.224	20115
897.345	20005
897.466	19917
897.587	20111
897.708	20145
897.828	20043
897.949	19982
898.07	19883
898.19	19932
898.311	20149
898.431	20046
898.552	19967
898.672	20130
898.792	20180
898.913	19970
899.033	19944
899.153	19837
899.273	19734
899.393	19750
899.513	19875
899.633	19776
899.753	19818
899.873	19674
899.993	19685
900.113	19734
900.232	19693
900.352	19578
900.472	19540
900.591	19502
900.711	19556
900.83	19502
900.95	19662
901.069	19681
901.189	19377
901.308	19236
901.427	18985
901.546	19148
901.665	19046
901.784	19190
901.904	19088
902.023	18913
902.141	18734
902.26	18673
902.379	18745
902.498	18654
902.617	18703
902.735	18646
902.854	18661
902.973	18589
903.091	18315
903.21	18319
903.328	18281
903.446	18239
903.565	18121
903.683	18152
903.801	18034
903.919	18167
904.038	18076
904.156	17908
904.274	18026
904.392	17802
904.51	17897
904.627	17882
904.745	18003
904.863	17996
904.981	17619
905.098	17676
905.216	17615
905.334	17638
905.451	17627
905.569	17714
905.686	17562
905.803	17501
905.921	17315
906.038	17493
906.155	17444
906.272	17181
906.389	17200
906.506	17113
906.623	17151
906.74	17147
906.857	17041
906.974	16995
907.091	17124
907.208	17212
907.324	17174
907.441	16987
907.557	16927
907.674	16847
907.79	16740
907.907	16873
908.023	16797
908.139	16896
908.256	16850
908.372	16839
908.488	16759
908.604	16675
908.72	16508
908.836	16523
908.952	16569
909.068	16508
909.184	16660
909.3	16554
909.415	16611
909.531	16546
909.647	16382
909.762	16223
909.878	16291
909.993	16306
910.108	16215
910.224	16196
910.339	16253
910.454	16109
910.57	15998
910.685	16097
910.8	16192
910.915	16200
911.03	16029
911.145	16017
911.259	15876
911.374	15819
911.489	15827
911.604	15827
911.718	15625
911.833	15679
911.947	15538
912.062	15443
912.176	15584
912.291	15732
912.405	15561
912.519	15827
912.633	15930
912.748	15553
912.862	15587
912.976	15473
913.09	15321
913.204	15389
913.318	15397
913.431	15473
913.545	15481
913.659	15561
913.772	15504
913.886	15199
914	15150
914.113	15329
914.226	15397
914.34	15325
914.453	15142
914.566	15272
914.68	15150
914.793	15055
914.906	14887
915.019	14868
915.132	14845
915.245	14880
915.358	14956
915.47	14876
915.583	14872
915.696	14826
915.809	14880
915.921	14941
916.034	14876
916.146	14834
916.259	14697
916.371	14899
916.483	14842
916.595	14731
916.708	14689
916.82	14670
916.932	14590
917.044	14667
917.156	14667
917.268	14552
917.38	14575
917.491	14412
917.603	14537
917.715	14674
917.826	14659
917.938	14484
918.049	14431
918.161	14473
918.272	14518
918.384	14549
918.495	14488
918.606	14370
918.717	14206
918.828	14324
918.939	14362
919.05	14259
919.161	14252
919.272	14050
919.383	14278
919.494	14313
919.604	14423
919.715	14282
919.826	14210
919.936	14153
920.047	14362
920.157	14305
920.267	14396
920.378	14237
920.488	14157
920.598	14434
920.708	14499
920.818	14404
920.928	14351
921.038	14648
921.148	14476
921.258	14256
921.368	14142
921.477	13955
921.587	14008
921.697	13845
921.806	13978
921.916	13902
922.025	13677
922.134	13609
922.244	13582
922.353	13693
922.462	13491
922.571	13480
922.68	13343
922.789	13339
922.898	13343
923.007	13232
923.116	13263
923.224	13232
923.333	13270
923.442	13103
923.55	13179
923.659	13194
923.767	13247
923.876	13072
923.984	13057
924.092	12954
924.201	13031
924.309	13034
924.417	13019
924.525	12993
924.633	13023
924.741	13704
924.849	12741
924.956	12863
925.064	12798
925.172	12711
925.279	12760
925.387	12783
925.494	12730
925.602	12894
925.709	12741
925.816	12635
925.924	12662
926.031	12783
926.138	12726
926.245	12692
926.352	12532
926.459	12662
926.566	12726
926.673	12616
926.779	12498
926.886	12433
926.993	12407
927.099	12296
927.206	12247
927.312	12201
927.419	12338
927.525	12273
927.631	12292
927.737	12114
927.843	12121
927.95	12106
928.056	12114
928.162	12114
928.267	12155
928.373	12711
928.479	12140
928.585	11969
928.69	12152
928.796	12129
928.901	12007
929.007	11874
929.112	11969
929.218	11939
929.323	11908
929.428	11878
929.533	12011
929.638	11802
929.743	11817
929.848	11851
929.953	11821
930.058	11699
930.163	11497
930.267	11585
930.372	11676
930.477	11497
930.581	11714
930.685	11577
930.79	11459
930.894	11448
930.998	11433
931.103	11627
931.207	11189
931.311	11147
931.415	11121
931.519	10930
931.623	10816
