Data from test_V78500241_1842.txt Node
Date: Fri Mar 25 15:22:40 CST 2022
User: usil
Spectrometer: V785-0024
Trigger mode: 0
Integration Time (sec): 4.000000E-1
Scans to average: 1
Nonlinearity correction enabled: false
Boxcar width: 0
Storing dark spectrum: false
XAxis mode: Wavelengths
Number of Pixels in Spectrum: 1024
>>>>>Begin Spectral Data<<<<<
801.071	27717
801.214	27739
801.356	27382
801.499	27344
801.641	27294
801.783	27188
801.926	27382
802.068	27351
802.211	27310
802.353	27203
802.496	27043
802.638	26960
802.78	27085
802.923	26982
803.065	26921
803.208	26762
803.35	26963
803.492	27020
803.635	27157
803.777	27112
803.919	27066
804.061	27450
804.204	27207
804.346	27313
804.488	27058
804.63	27291
804.773	27161
804.915	27081
805.057	27313
805.199	27142
805.341	27256
805.483	27351
805.626	27218
805.768	27275
805.91	27291
806.052	27427
806.194	27176
806.336	27439
806.478	27313
806.62	27306
806.762	27447
806.904	27466
807.046	27743
807.188	27713
807.33	27743
807.472	27698
807.614	27728
807.756	27663
807.898	27641
808.04	27504
808.182	27587
808.324	27720
808.465	27591
808.607	27713
808.749	27934
808.891	27922
809.033	27964
809.174	27983
809.316	28055
809.458	27876
809.6	27876
809.741	28010
809.883	28021
810.025	28188
810.166	28109
810.308	28204
810.45	28169
810.591	28215
810.733	27850
810.875	27838
811.016	27774
811.158	27709
811.299	27979
811.441	28013
811.582	28067
811.724	28002
811.865	27876
812.007	27934
812.148	27838
812.29	27979
812.431	28120
812.573	28223
812.714	28363
812.855	28436
812.997	28443
813.138	28584
813.279	28459
813.421	28394
813.562	28348
813.703	28284
813.845	28090
813.986	27960
814.127	27755
814.268	27679
814.41	27557
814.551	27523
814.692	27603
814.833	27500
814.974	27618
815.115	27557
815.256	27523
815.397	27507
815.539	27496
815.68	27431
815.821	27344
815.962	27336
816.103	27378
816.244	27386
816.385	27222
816.526	27157
816.666	27058
816.807	26743
816.948	27005
817.089	27013
817.23	26853
817.371	27036
817.512	26754
817.653	26937
817.793	26815
817.934	26921
818.075	26750
818.216	26830
818.356	26834
818.497	26834
818.638	26682
818.778	26465
818.919	26640
819.06	26758
819.2	26887
819.341	26956
819.481	26967
819.622	27036
819.762	27123
819.903	27005
820.043	27237
820.184	27062
820.324	27024
820.465	27119
820.605	26925
820.746	27112
820.886	26826
821.026	26967
821.167	26937
821.307	27032
821.447	26861
821.588	26788
821.728	26682
821.868	26571
822.008	26309
822.149	26453
822.289	26366
822.429	26103
822.569	26031
822.709	26100
822.849	25822
822.99	25887
823.13	25814
823.27	25811
823.41	25662
823.55	25521
823.69	25814
823.83	25723
823.97	25704
824.11	25339
824.25	25445
824.389	25594
824.529	25616
824.669	25544
824.809	25628
824.949	25662
825.089	25601
825.228	25601
825.368	25434
825.508	25388
825.648	25407
825.787	25327
825.927	25499
826.067	25441
826.206	25419
826.346	25472
826.485	25400
826.625	25301
826.765	25502
826.904	25373
827.044	25156
827.183	25034
827.323	25114
827.462	25179
827.601	25213
827.741	25034
827.88	25160
828.02	24966
828.159	24939
828.298	24992
828.437	25046
828.577	25076
828.716	25202
828.855	25050
828.994	24783
829.134	24776
829.273	24871
829.412	24802
829.551	24764
829.69	24764
829.829	24833
829.968	24863
830.107	24909
830.246	24886
830.385	24730
830.524	24821
830.663	24502
830.802	24483
830.941	24376
831.08	24410
831.219	24441
831.357	24471
831.496	24692
831.635	24547
831.774	24323
831.913	24304
832.051	24133
832.19	24213
832.329	24296
832.467	24201
832.606	24098
832.744	24034
832.883	24064
833.022	23859
833.16	24091
833.299	24190
833.437	24095
833.576	24213
833.714	24262
833.852	24247
833.991	24243
834.129	24308
834.267	24171
834.406	24216
834.544	24125
834.682	24057
834.821	24110
834.959	24300
835.097	24205
835.235	24197
835.373	24201
835.511	24125
835.65	24155
835.788	23969
835.926	23870
836.064	23851
836.202	23855
836.34	24136
836.478	24015
836.615	23950
836.753	24125
836.891	24243
837.029	24041
837.167	23961
837.305	23847
837.443	24057
837.58	23794
837.718	23882
837.856	23840
837.993	23813
838.131	23786
838.269	23627
838.406	23756
838.544	23611
838.681	23573
838.819	23425
838.956	23326
839.094	23326
839.231	23372
839.369	23490
839.506	23726
839.643	23547
839.781	23220
839.918	23193
840.055	23318
840.193	23326
840.33	23246
840.467	23227
840.604	23341
840.742	23554
840.879	23170
841.016	23231
841.153	23159
841.29	23341
841.427	23296
841.564	23303
841.701	23075
841.838	23147
841.975	23128
842.112	23258
842.249	23022
842.385	23052
842.522	23121
842.659	23174
842.796	22991
842.933	22965
843.069	23006
843.206	22923
843.343	23022
843.479	22972
843.616	23067
843.752	22755
843.889	22748
844.025	22949
844.162	22786
844.298	22850
844.435	22850
844.571	22744
844.708	22812
844.844	22923
844.98	22877
845.117	22889
845.253	22580
845.389	22535
845.525	22588
845.661	22569
845.798	22603
845.934	22573
846.07	22447
846.206	22573
846.342	22561
846.478	22409
846.614	22348
846.75	22147
846.886	22215
847.022	22242
847.158	22337
847.294	22253
847.429	22386
847.565	22211
847.701	22523
847.837	21979
847.972	21987
848.108	22097
848.244	22097
848.379	21968
848.515	21903
848.65	21804
848.786	21774
848.921	21918
849.057	21922
849.192	21934
849.328	21861
849.463	21873
849.598	21857
849.734	21686
849.869	21561
850.004	21667
850.14	21644
850.275	21629
850.41	21488
850.545	21561
850.68	21553
850.815	21682
850.95	21572
851.085	21743
851.22	21698
851.355	21736
851.49	21561
851.625	21572
851.76	21405
851.895	21549
852.03	21420
852.165	21618
852.299	21622
852.434	21652
852.569	21580
852.703	21660
852.838	21671
852.973	21686
853.107	21690
853.242	21507
853.376	21492
853.511	21416
853.645	21416
853.78	21530
853.914	21485
854.048	21298
854.183	21389
854.317	21447
854.451	21667
854.585	21439
854.72	21306
854.854	21523
854.988	21405
855.122	21496
855.256	21355
855.39	21374
855.524	21477
855.658	21576
855.792	21462
855.926	21439
856.06	21306
856.194	21523
856.327	21435
856.461	21340
856.595	21374
856.729	21291
856.862	21553
856.996	21481
857.13	21428
857.263	21568
857.397	21511
857.53	21450
857.664	21458
857.797	21568
857.931	21561
858.064	21485
858.197	21526
858.331	21443
858.464	21336
858.597	21283
858.731	21397
858.864	21389
858.997	21405
859.13	21507
859.263	21428
859.396	21504
859.529	21435
859.662	21401
859.795	21344
859.928	21401
860.061	21576
860.194	21618
860.327	21545
860.46	21412
860.592	21572
860.725	21515
860.858	21447
860.99	21260
861.123	21241
861.256	21374
861.388	21511
861.521	22086
861.653	21268
861.786	21321
861.918	21321
862.05	21412
862.183	21252
862.315	21473
862.447	21367
862.58	21458
862.712	21199
862.844	21207
862.976	21230
863.108	21123
863.24	21485
863.372	21081
863.504	20986
863.636	21112
863.768	21169
863.9	21230
864.032	21100
864.164	21146
864.296	21127
864.428	21199
864.559	21256
864.691	21184
864.823	21146
864.954	21184
865.086	21199
865.217	21104
865.349	21017
865.48	21036
865.612	21020
865.743	21154
865.875	21119
866.006	21074
866.137	21039
866.269	21047
866.4	21005
866.531	20921
866.662	20834
866.793	20963
866.924	20941
867.055	20998
867.186	21074
867.317	20979
867.448	20838
867.579	20948
867.71	20971
867.841	20735
867.972	20967
868.103	20921
868.233	20963
868.364	21005
868.495	21127
868.625	21195
868.756	21283
868.886	21123
869.017	21104
869.147	21264
869.278	21180
869.408	21291
869.539	21188
869.669	21344
869.799	21195
869.929	21329
870.06	21237
870.19	21454
870.32	21416
870.45	21481
870.58	21732
870.71	21770
870.84	21637
870.97	21599
871.1	21614
871.23	21766
871.36	21732
871.489	21663
871.619	21804
871.749	21724
871.879	21876
872.008	21949
872.138	21770
872.267	21854
872.397	21637
872.526	21576
872.656	21656
872.785	21622
872.915	21846
873.044	21956
873.173	21766
873.303	21994
873.432	21759
873.561	21800
873.69	21736
873.819	21812
873.948	21899
874.077	21861
874.206	21644
874.335	21831
874.464	21930
874.593	21972
874.722	21975
874.851	22105
874.979	22036
875.108	22044
875.237	22029
875.365	21861
875.494	22051
875.623	22272
875.751	22048
875.88	22112
876.008	22147
876.136	22173
876.265	22478
876.393	22470
876.521	22527
876.65	22561
876.778	22474
876.906	22371
877.034	22421
877.162	22325
877.29	22325
877.418	22379
877.546	22371
877.674	22344
877.802	22512
877.93	22417
878.058	22348
878.185	22242
878.313	22341
878.441	22409
878.568	22150
878.696	22234
878.824	22447
878.951	22470
879.079	22596
879.206	22675
879.333	22516
879.461	22409
879.588	22580
879.715	22512
879.842	22599
879.97	22375
880.097	22120
880.224	22067
880.351	22333
880.478	22276
880.605	22154
880.732	22219
880.859	22512
880.986	22310
881.112	22207
881.239	22006
881.366	21960
881.493	21823
881.619	21732
881.746	21842
881.872	21781
881.999	21759
882.125	21717
882.252	21903
882.378	21709
882.505	21762
882.631	21709
882.757	21603
882.883	21572
883.01	21557
883.136	21389
883.262	21389
883.388	21214
883.514	21542
883.64	21526
883.766	21370
883.892	21214
884.018	21237
884.143	21450
884.269	21420
884.395	21226
884.52	21085
884.646	21142
884.772	21074
884.897	21013
885.023	21233
885.148	21180
885.274	21329
885.399	21230
885.524	21135
885.65	21192
885.775	21279
885.9	21005
886.025	21180
886.15	21100
886.275	21013
886.4	20944
886.525	21157
886.65	21051
886.775	21089
886.9	21226
887.025	21359
887.149	21066
887.274	20933
887.399	20979
887.523	21032
887.648	20781
887.773	20788
887.897	21013
888.021	20910
888.146	20819
888.27	20998
888.395	21028
888.519	20956
888.643	20823
888.767	20960
888.891	20834
889.015	20552
889.139	20845
889.263	20708
889.387	20845
889.511	20769
889.635	20899
889.759	20743
889.883	20750
890.006	20693
890.13	20705
890.254	20670
890.377	20606
890.501	20598
890.624	20450
890.748	20556
890.871	20362
890.995	20149
891.118	20153
891.241	20423
891.364	20286
891.488	20358
891.611	20355
891.734	20358
891.857	20427
891.98	20286
892.103	20358
892.226	20218
892.349	20278
892.471	20069
892.594	20195
892.717	20206
892.839	20221
892.962	20172
893.085	20221
893.207	20172
893.33	20012
893.452	20153
893.575	20347
893.697	20187
893.819	20434
893.941	20370
894.064	20256
894.186	20240
894.308	20122
894.43	20221
894.552	20252
894.674	20244
894.796	20039
894.918	20206
895.04	20191
895.161	20355
895.283	20233
895.405	20187
895.526	20122
895.648	20111
895.769	20142
895.891	20210
896.012	20214
896.134	20225
896.255	20134
896.376	20195
896.498	20142
896.619	20115
896.74	20187
896.861	20320
896.982	20549
897.103	20632
897.224	20427
897.345	20465
897.466	20301
897.587	20370
897.708	20488
897.828	20511
897.949	20256
898.07	20202
898.19	20313
898.311	20473
898.431	20286
898.552	20400
898.672	20415
898.792	20450
898.913	20450
899.033	20233
899.153	20218
899.273	20202
899.393	20183
899.513	20301
899.633	20210
899.753	20100
899.873	20142
899.993	20191
900.113	20058
900.232	20058
900.352	20130
900.472	19822
900.591	19761
900.711	19978
900.83	19936
900.95	20016
901.069	20084
901.189	19830
901.308	19662
901.427	19445
901.546	19438
901.665	19476
901.784	19518
901.904	19419
902.023	19403
902.141	19099
902.26	19091
902.379	19133
902.498	19080
902.617	18962
902.735	19050
902.854	19000
902.973	18783
903.091	18665
903.21	18661
903.328	18707
903.446	18700
903.565	18544
903.683	18494
903.801	18330
903.919	18407
904.038	18563
904.156	18220
904.274	18399
904.392	18334
904.51	18201
904.627	18251
904.745	18235
904.863	18376
904.981	18087
905.098	17950
905.216	17901
905.334	17950
905.451	17885
905.569	18007
905.686	17882
905.803	17832
905.921	17726
906.038	17821
906.155	17832
906.272	17646
906.389	17596
906.506	17429
906.623	17463
906.74	17459
906.857	17459
906.974	17277
907.091	17547
907.208	17558
907.324	17505
907.441	17307
907.557	17235
907.674	17246
907.79	17094
907.907	17166
908.023	17121
908.139	17064
908.256	17102
908.372	17094
908.488	17124
908.604	16953
908.72	16930
908.836	16927
908.952	16904
909.068	16919
909.184	17045
909.3	16915
909.415	16938
909.531	16873
909.647	16672
909.762	16611
909.878	16584
909.993	16706
910.108	16615
910.224	16504
910.339	16573
910.454	16485
910.57	16443
910.685	16413
910.8	16519
910.915	16641
911.03	16382
911.145	16238
911.259	16272
911.374	16131
911.489	16093
911.604	16135
911.718	15907
911.833	15937
911.947	15876
912.062	15800
912.176	15926
912.291	15884
912.405	15903
912.519	16093
912.633	16169
912.748	16017
912.862	15968
912.976	15762
913.09	15675
913.204	15679
913.318	15770
913.431	15713
913.545	15876
913.659	15827
913.772	15625
913.886	15724
914	15545
914.113	15694
914.226	15671
914.34	15534
914.453	15492
914.566	15629
914.68	15420
914.793	15492
914.906	15157
915.019	15135
915.132	15112
915.245	15123
915.358	15135
915.47	15157
915.583	15150
915.696	15169
915.809	15298
915.921	15237
916.034	15058
916.146	15058
916.259	14998
916.371	15207
916.483	15142
916.595	14971
916.708	15039
916.82	14979
916.932	14952
917.044	15005
917.156	14925
917.268	14788
917.38	14838
917.491	14716
917.603	14887
917.715	14902
917.826	14887
917.938	14769
918.049	14556
918.161	14819
918.272	14925
918.384	14864
918.495	14746
918.606	14549
918.717	14545
918.828	14617
918.939	14640
919.05	14499
919.161	14552
919.272	14366
919.383	14370
919.494	14579
919.604	14823
919.715	14564
919.826	14473
919.936	14499
920.047	14629
920.157	14632
920.267	14792
920.378	14530
920.488	14503
920.598	14663
920.708	14785
920.818	14678
920.928	14621
921.038	14800
921.148	14853
921.258	14446
921.368	14355
921.477	14233
921.587	14252
921.697	14115
921.806	14229
921.916	14183
922.025	13974
922.134	14016
922.244	13856
922.353	13963
922.462	13696
922.571	13693
922.68	13616
922.789	13567
922.898	13590
923.007	13567
923.116	13605
923.224	13548
923.333	13472
923.442	13480
923.55	13476
923.659	13365
923.767	13472
923.876	13316
923.984	13419
924.092	13270
924.201	13460
924.309	13240
924.417	13274
924.525	13183
924.633	13206
924.741	14153
924.849	13069
924.956	13202
925.064	12996
925.172	12848
925.279	12886
925.387	13012
925.494	12977
925.602	13019
925.709	13004
925.816	12871
925.924	12894
926.031	12951
926.138	12951
926.245	12932
926.352	12886
926.459	12905
926.566	12970
926.673	12829
926.779	12696
926.886	12776
926.993	12642
927.099	12566
927.206	12410
927.312	12460
927.419	12517
927.525	12540
927.631	12566
927.737	12494
927.843	12445
927.95	12220
928.056	12372
928.162	12384
928.267	12410
928.373	12951
928.479	12429
928.585	12133
928.69	12429
928.796	12369
928.901	12216
929.007	11988
929.112	12136
929.218	12175
929.323	12117
929.428	12114
929.533	12216
929.638	12030
929.743	12125
929.848	12049
929.953	12125
930.058	11927
930.163	11760
930.267	11771
930.372	11946
930.477	11665
930.581	11942
930.685	11809
930.79	11680
930.894	11764
930.998	11600
931.103	11893
931.207	11490
931.311	11311
931.415	11284
931.519	11056
931.623	10961
