Data from test_V78500241_479.txt Node
Date: Fri Mar 25 15:13:11 CST 2022
User: usil
Spectrometer: V785-0024
Trigger mode: 0
Integration Time (sec): 4.000000E-1
Scans to average: 1
Nonlinearity correction enabled: false
Boxcar width: 0
Storing dark spectrum: false
XAxis mode: Wavelengths
Number of Pixels in Spectrum: 1024
>>>>>Begin Spectral Data<<<<<
801.071	27408
801.214	27306
801.356	27085
801.499	27135
801.641	27005
801.783	27104
801.926	27112
802.068	26921
802.211	26937
802.353	26781
802.496	26526
802.638	26651
802.78	26511
802.923	26632
803.065	26571
803.208	26507
803.35	26636
803.492	26796
803.635	26640
803.777	26674
803.919	26921
804.061	27036
804.204	26834
804.346	26697
804.488	26716
804.63	26800
804.773	26746
804.915	26781
805.057	26960
805.199	26796
805.341	26746
805.483	26937
805.626	26758
805.768	26705
805.91	26861
806.052	26834
806.194	26849
806.336	27112
806.478	27017
806.62	26830
806.762	26921
806.904	27119
807.046	27420
807.188	27241
807.33	27169
807.472	27332
807.614	27264
807.756	27226
807.898	27039
808.04	27051
808.182	27077
808.324	27028
808.465	27100
808.607	27329
808.749	27401
808.891	27534
809.033	27614
809.174	27694
809.316	27416
809.458	27351
809.6	27466
809.741	27549
809.883	27614
810.025	27827
810.166	27671
810.308	27698
810.45	27724
810.591	27660
810.733	27576
810.875	27492
811.016	27302
811.158	27458
811.299	27572
811.441	27682
811.582	27614
811.724	27572
811.865	27389
812.007	27485
812.148	27462
812.29	27523
812.431	27717
812.573	27759
812.714	27755
812.855	28139
812.997	28093
813.138	28261
813.279	28105
813.421	28067
813.562	28013
813.703	27816
813.845	27698
813.986	27416
814.127	27389
814.268	27100
814.41	27146
814.551	26895
814.692	27188
814.833	27116
814.974	27245
815.115	27104
815.256	27245
815.397	27062
815.539	27070
815.68	26952
815.821	26864
815.962	26990
816.103	26868
816.244	26750
816.385	26697
816.526	26735
816.666	26476
816.807	26583
816.948	26442
817.089	26465
817.23	26571
817.371	26473
817.512	26492
817.653	26309
817.793	26229
817.934	26396
818.075	26442
818.216	26290
818.356	26480
818.497	26301
818.638	26027
818.778	26119
818.919	26134
819.06	26362
819.2	26267
819.341	26465
819.481	26385
819.622	26625
819.762	26845
819.903	26693
820.043	26769
820.184	26606
820.324	26507
820.465	26556
820.605	26480
820.746	26556
820.886	26450
821.026	26560
821.167	26358
821.307	26492
821.447	26453
821.588	26377
821.728	26157
821.868	26107
822.008	26012
822.149	25932
822.289	25818
822.429	25567
822.569	25445
822.709	25411
822.849	25472
822.99	25343
823.13	25430
823.27	25457
823.41	25209
823.55	24989
823.69	25213
823.83	25168
823.97	24954
824.11	24985
824.25	25050
824.389	25019
824.529	25000
824.669	25099
824.809	25133
824.949	25080
825.089	25122
825.228	25046
825.368	24798
825.508	24947
825.648	24886
825.787	24935
825.927	24958
826.067	24871
826.206	24867
826.346	24859
826.485	24935
826.625	24886
826.765	25004
826.904	24954
827.044	24722
827.183	24635
827.323	24604
827.462	24715
827.601	24627
827.741	24547
827.88	24639
828.02	24517
828.159	24566
828.298	24753
828.437	24589
828.577	24597
828.716	24711
828.855	24711
828.994	24330
829.134	24235
829.273	24407
829.412	24422
829.551	24216
829.69	24410
829.829	24353
829.968	24330
830.107	24315
830.246	24357
830.385	24258
830.524	24247
830.663	24144
830.802	24148
830.941	23939
831.08	23927
831.219	24045
831.357	23999
831.496	24110
831.635	23973
831.774	23870
831.913	23752
832.051	23840
832.19	23726
832.329	23695
832.467	23657
832.606	23566
832.744	23638
832.883	23600
833.022	23562
833.16	23699
833.299	23733
833.437	23752
833.576	23847
833.714	23707
833.852	23687
833.991	23585
834.129	23756
834.267	23824
834.406	23718
834.544	23771
834.682	23729
834.821	23703
834.959	23916
835.097	23634
835.235	23752
835.373	23756
835.511	23577
835.65	23528
835.788	23547
835.926	23467
836.064	23376
836.202	23349
836.34	23551
836.478	23642
836.615	23543
836.753	23646
836.891	23531
837.029	23687
837.167	23505
837.305	23516
837.443	23387
837.58	23318
837.718	23273
837.856	23436
837.993	23341
838.131	23345
838.269	23216
838.406	23334
838.544	23265
838.681	23132
838.819	23018
838.956	23006
839.094	22961
839.231	22790
839.369	23132
839.506	23204
839.643	23143
839.781	22889
839.918	22725
840.055	22816
840.193	22889
840.33	22717
840.467	22733
840.604	22858
840.742	23136
840.879	22710
841.016	22736
841.153	22656
841.29	22987
841.427	22778
841.564	22691
841.701	22778
841.838	22736
841.975	22694
842.112	22615
842.249	22637
842.385	22508
842.522	22698
842.659	22618
842.796	22546
842.933	22527
843.069	22497
843.206	22443
843.343	22504
843.479	22592
843.616	22630
843.752	22363
843.889	22280
844.025	22382
844.162	22249
844.298	22440
844.435	22257
844.571	22299
844.708	22329
844.844	22580
844.98	22462
845.117	22462
845.253	22303
845.389	22253
845.525	22242
845.661	22272
845.798	22048
845.934	22048
846.07	22032
846.206	22093
846.342	22147
846.478	22013
846.614	21831
846.75	21755
846.886	21747
847.022	21781
847.158	21835
847.294	21823
847.429	21781
847.565	21755
847.701	21926
847.837	21408
847.972	21435
848.108	21576
848.244	21656
848.379	21443
848.515	21405
848.65	21348
848.786	21389
848.921	21287
849.057	21507
849.192	21466
849.328	21462
849.463	21351
849.598	21382
849.734	21340
849.869	21184
850.004	21085
850.14	21214
850.275	21138
850.41	21135
850.545	21195
850.68	21161
850.815	21264
850.95	21119
851.085	21283
851.22	21161
851.355	21146
851.49	21169
851.625	21024
851.76	21066
851.895	21104
852.03	21013
852.165	21214
852.299	21104
852.434	21062
852.569	21123
852.703	21287
852.838	21184
852.973	21264
853.107	21310
853.242	21135
853.376	20998
853.511	20887
853.645	20952
853.78	21043
853.914	21028
854.048	20880
854.183	20941
854.317	20899
854.451	21207
854.585	20872
854.72	20967
854.854	21146
854.988	20895
855.122	21017
855.256	20902
855.39	20960
855.524	21036
855.658	20963
855.792	20899
855.926	20902
856.06	21188
856.194	21013
856.327	21009
856.461	20918
856.595	20963
856.729	21013
856.862	21036
856.996	20925
857.13	21009
857.263	21066
857.397	21036
857.53	20990
857.664	21039
857.797	21058
857.931	21077
858.064	21009
858.197	21112
858.331	20994
858.464	20998
858.597	21009
858.731	20925
858.864	20944
858.997	20864
859.13	21058
859.263	20956
859.396	20952
859.529	20967
859.662	20918
859.795	20804
859.928	20998
860.061	21093
860.194	21256
860.327	21085
860.46	21013
860.592	21051
860.725	21074
860.858	21108
860.99	21077
861.123	20910
861.256	20815
861.388	20967
861.521	21690
861.653	20758
861.786	20598
861.918	20712
862.05	20788
862.183	20861
862.315	20979
862.447	20967
862.58	20849
862.712	20788
862.844	20705
862.976	20762
863.108	20773
863.24	21135
863.372	20545
863.504	20651
863.636	20571
863.768	20697
863.9	20807
864.032	20583
864.164	20724
864.296	20781
864.428	20849
864.559	20701
864.691	20705
864.823	20697
864.954	20743
865.086	20670
865.217	20545
865.349	20594
865.48	20499
865.612	20625
865.743	20773
865.875	20545
866.006	20564
866.137	20514
866.269	20457
866.4	20484
866.531	20560
866.662	20454
866.793	20476
866.924	20495
867.055	20461
867.186	20632
867.317	20564
867.448	20450
867.579	20533
867.71	20385
867.841	20412
867.972	20590
868.103	20465
868.233	20457
868.364	20568
868.495	20594
868.625	20686
868.756	20788
868.886	20663
869.017	20731
869.147	20800
869.278	20868
869.408	20773
869.539	20735
869.669	20929
869.799	20804
869.929	20804
870.06	20944
870.19	21017
870.32	21074
870.45	21013
870.58	20998
870.71	21264
870.84	21154
870.97	21165
871.1	21268
871.23	21188
871.36	21412
871.489	21245
871.619	21313
871.749	21351
871.879	21348
872.008	21412
872.138	21329
872.267	21321
872.397	21173
872.526	21127
872.656	21180
872.785	21100
872.915	21447
873.044	21412
873.173	21397
873.303	21405
873.432	21447
873.561	21431
873.69	21374
873.819	21454
873.948	21549
874.077	21477
874.206	21260
874.335	21367
874.464	21557
874.593	21606
874.722	21538
874.851	21675
874.979	21648
875.108	21671
875.237	21614
875.365	21557
875.494	21507
875.623	21625
875.751	21591
875.88	21610
876.008	21739
876.136	21827
876.265	22006
876.393	22139
876.521	22063
876.65	22086
876.778	21987
876.906	21892
877.034	21991
877.162	22029
877.29	21880
877.418	22051
877.546	22013
877.674	21918
877.802	21876
877.93	21953
878.058	21857
878.185	21808
878.313	21941
878.441	21949
878.568	21755
878.696	21941
878.824	22032
878.951	22048
879.079	22093
879.206	22139
879.333	22074
879.461	21953
879.588	22044
879.715	22234
879.842	22200
879.97	22048
880.097	21819
880.224	21720
880.351	21770
880.478	21789
880.605	21713
880.732	21800
880.859	22040
880.986	21800
881.112	21865
881.239	21625
881.366	21568
881.493	21325
881.619	21310
881.746	21458
881.872	21443
881.999	21397
882.125	21211
882.252	21420
882.378	21405
882.505	21412
882.631	21313
882.757	21131
882.883	21260
883.01	20941
883.136	21135
883.262	20986
883.388	21001
883.514	21211
883.64	21165
883.766	21062
883.892	20739
884.018	20758
884.143	21119
884.269	21062
884.395	20743
884.52	20750
884.646	20655
884.772	20579
884.897	20579
885.023	20590
885.148	20918
885.274	20705
885.399	20781
885.524	20735
885.65	20712
885.775	20712
885.9	20708
886.025	20845
886.15	20796
886.275	20727
886.4	20530
886.525	20750
886.65	20629
886.775	20549
886.9	20796
887.025	20956
887.149	20667
887.274	20522
887.399	20537
887.523	20442
887.648	20393
887.773	20408
887.897	20541
888.021	20579
888.146	20476
888.27	20583
888.395	20568
888.519	20454
888.643	20514
888.767	20366
888.891	20488
889.015	20282
889.139	20328
889.263	20233
889.387	20370
889.511	20476
889.635	20332
889.759	20355
889.883	20252
890.006	20225
890.13	20332
890.254	20358
890.377	20290
890.501	20008
890.624	20012
890.748	20092
890.871	20031
890.995	19830
891.118	19727
891.241	19833
891.364	19898
891.488	20016
891.611	19784
891.734	19871
891.857	20001
891.98	19780
892.103	19932
892.226	19841
892.349	19822
892.471	19712
892.594	19750
892.717	19780
892.839	19712
892.962	19742
893.085	19814
893.207	19898
893.33	19670
893.452	19738
893.575	19727
893.697	19666
893.819	19879
893.941	20012
894.064	19970
894.186	19769
894.308	19837
894.43	19803
894.552	19875
894.674	19845
894.796	19700
894.918	19723
895.04	19742
895.161	19814
895.283	19803
895.405	19685
895.526	19620
895.648	19799
895.769	19693
895.891	19814
896.012	19780
896.134	19757
896.255	19818
896.376	19788
896.498	19723
896.619	19761
896.74	19902
896.861	19727
896.982	20153
897.103	20221
897.224	20153
897.345	20020
897.466	19993
897.587	19967
897.708	20199
897.828	20145
897.949	19963
898.07	19784
898.19	19959
898.311	20020
898.431	19852
898.552	20050
898.672	20001
898.792	19997
898.913	20016
899.033	19967
899.153	19784
899.273	19575
899.393	19856
899.513	19894
899.633	19811
899.753	19776
899.873	19715
899.993	19845
900.113	19624
900.232	19727
900.352	19795
900.472	19571
900.591	19506
900.711	19559
900.83	19624
900.95	19544
901.069	19605
901.189	19453
901.308	19301
901.427	19168
901.546	19061
901.665	19110
901.784	19088
901.904	19042
902.023	18875
902.141	18658
902.26	18715
902.379	18677
902.498	18574
902.617	18525
902.735	18658
902.854	18551
902.973	18578
903.091	18285
903.21	18311
903.328	18315
903.446	18159
903.565	18174
903.683	18019
903.801	17916
903.919	17988
904.038	18117
904.156	18007
904.274	18026
904.392	17885
904.51	17878
904.627	17847
904.745	17980
904.863	17927
904.981	17638
905.098	17619
905.216	17585
905.334	17577
905.451	17615
905.569	17570
905.686	17676
905.803	17604
905.921	17406
906.038	17512
906.155	17421
906.272	17204
906.389	17330
906.506	17170
906.623	17143
906.74	17143
906.857	17052
906.974	17067
907.091	17235
907.208	17254
907.324	17079
907.441	17018
907.557	16908
907.674	16900
907.79	16790
907.907	16850
908.023	16790
908.139	16877
908.256	16744
908.372	16721
908.488	16797
908.604	16561
908.72	16535
908.836	16580
908.952	16462
909.068	16580
909.184	16672
909.3	16561
909.415	16554
909.531	16546
909.647	16333
909.762	16166
909.878	16253
909.993	16344
910.108	16314
910.224	16188
910.339	16192
910.454	16059
910.57	16025
910.685	15865
910.8	16257
910.915	16215
911.03	16097
911.145	15876
911.259	15857
911.374	15987
911.489	15762
911.604	15778
911.718	15629
911.833	15561
911.947	15671
912.062	15515
912.176	15469
912.291	15523
912.405	15561
912.519	15736
912.633	15804
912.748	15679
912.862	15629
912.976	15317
913.09	15321
913.204	15370
913.318	15466
913.431	15553
913.545	15504
913.659	15530
913.772	15325
913.886	15222
914	15188
914.113	15302
914.226	15287
914.34	15298
914.453	15097
914.566	15252
914.68	15165
914.793	15097
914.906	14887
915.019	14899
915.132	14792
915.245	14781
915.358	14773
915.47	14880
915.583	14864
915.696	14826
915.809	14994
915.921	14990
916.034	14762
916.146	14769
916.259	14712
916.371	14773
916.483	14754
916.595	14670
916.708	14670
916.82	14716
916.932	14636
917.044	14613
917.156	14693
917.268	14492
917.38	14480
917.491	14476
917.603	14537
917.715	14670
917.826	14533
917.938	14412
918.049	14389
918.161	14492
918.272	14556
918.384	14617
918.495	14434
918.606	14313
918.717	14176
918.828	14259
918.939	14244
919.05	14164
919.161	14149
919.272	14031
919.383	14138
919.494	14206
919.604	14450
919.715	14240
919.826	14100
919.936	14244
920.047	14324
920.157	14313
920.267	14396
920.378	14267
920.488	14180
920.598	14495
920.708	14602
920.818	14339
920.928	14495
921.038	14518
921.148	14396
921.258	14176
921.368	14191
921.477	13951
921.587	13963
921.697	13860
921.806	13997
921.916	13841
922.025	13674
922.134	13693
922.244	13575
922.353	13696
922.462	13552
922.571	13453
922.68	13240
922.789	13270
922.898	13244
923.007	13244
923.116	13312
923.224	13331
923.333	13164
923.442	13244
923.55	13088
923.659	13103
923.767	13209
923.876	13088
923.984	13160
924.092	13012
924.201	13015
924.309	13080
924.417	12973
924.525	12954
924.633	12962
924.741	13936
924.849	12760
924.956	12985
925.064	12700
925.172	12623
925.279	12662
925.387	12833
925.494	12760
925.602	12791
925.709	12692
925.816	12601
925.924	12700
926.031	12703
926.138	12677
926.245	12700
926.352	12597
926.459	12597
926.566	12726
926.673	12559
926.779	12441
926.886	12391
926.993	12376
927.099	12334
927.206	12247
927.312	12144
927.419	12266
927.525	12213
927.631	12391
927.737	12133
927.843	12194
927.95	12045
928.056	12083
928.162	12140
928.267	12148
928.373	12620
928.479	12190
928.585	11942
928.69	12140
928.796	12144
928.901	11969
929.007	11874
929.112	11950
929.218	11901
929.323	11973
929.428	11794
929.533	11984
929.638	11786
929.743	11836
929.848	11821
929.953	11855
930.058	11680
930.163	11520
930.267	11551
930.372	11695
930.477	11467
930.581	11729
930.685	11608
930.79	11429
930.894	11505
930.998	11570
931.103	11543
931.207	11185
931.311	11124
931.415	11048
931.519	10930
931.623	10858
