Data from test_V78500241_3216.txt Node
Date: Fri Mar 25 15:32:15 CST 2022
User: usil
Spectrometer: V785-0024
Trigger mode: 0
Integration Time (sec): 4.000000E-1
Scans to average: 1
Nonlinearity correction enabled: false
Boxcar width: 0
Storing dark spectrum: false
XAxis mode: Wavelengths
Number of Pixels in Spectrum: 1024
>>>>>Begin Spectral Data<<<<<
801.071	27116
801.214	26944
801.356	26883
801.499	26720
801.641	26712
801.783	26549
801.926	26678
802.068	26617
802.211	26625
802.353	26648
802.496	26419
802.638	26290
802.78	26275
802.923	26301
803.065	26153
803.208	26096
803.35	26339
803.492	26320
803.635	26408
803.777	26374
803.919	26579
804.061	26773
804.204	26530
804.346	26339
804.488	26317
804.63	26492
804.773	26259
804.915	26484
805.057	26587
805.199	26370
805.341	26480
805.483	26625
805.626	26473
805.768	26571
805.91	26613
806.052	26537
806.194	26461
806.336	26765
806.478	26636
806.62	26689
806.762	26670
806.904	26697
807.046	26979
807.188	26979
807.33	26952
807.472	26975
807.614	26982
807.756	26876
807.898	26689
808.04	26731
808.182	26788
808.324	26895
808.465	26682
808.607	27024
808.749	27127
808.891	27150
809.033	27367
809.174	27397
809.316	27252
809.458	27207
809.6	27055
809.741	27230
809.883	27279
810.025	27405
810.166	27412
810.308	27443
810.45	27321
810.591	27351
810.733	27154
810.875	27230
811.016	27176
811.158	27009
811.299	27268
811.441	27363
811.582	27310
811.724	27233
811.865	27154
812.007	27062
812.148	27287
812.29	27165
812.431	27374
812.573	27344
812.714	27504
812.855	27637
812.997	27603
813.138	27816
813.279	27686
813.421	27660
813.562	27534
813.703	27370
813.845	27302
813.986	26895
814.127	26880
814.268	26826
814.41	26971
814.551	26720
814.692	26834
814.833	26826
814.974	26583
815.115	26804
815.256	26598
815.397	26682
815.539	26689
815.68	26682
815.821	26568
815.962	26507
816.103	26514
816.244	26358
816.385	26225
816.526	26419
816.666	26145
816.807	26062
816.948	26069
817.089	26237
817.23	25997
817.371	25982
817.512	26088
817.653	25989
817.793	25982
817.934	26020
818.075	26054
818.216	26020
818.356	25925
818.497	25944
818.638	25765
818.778	25811
818.919	25734
819.06	25970
819.2	26012
819.341	26058
819.481	26020
819.622	26191
819.762	26377
819.903	26244
820.043	26343
820.184	26157
820.324	26164
820.465	26229
820.605	26100
820.746	26134
820.886	26012
821.026	26115
821.167	26031
821.307	26138
821.447	26115
821.588	26065
821.728	25856
821.868	25537
822.008	25518
822.149	25544
822.289	25460
822.429	25225
822.569	25221
822.709	25171
822.849	25061
822.99	25008
823.13	24981
823.27	25031
823.41	24783
823.55	24711
823.69	24939
823.83	24700
823.97	24825
824.11	24623
824.25	24563
824.389	24650
824.529	24776
824.669	24582
824.809	24856
824.949	24711
825.089	24692
825.228	24757
825.368	24547
825.508	24471
825.648	24460
825.787	24513
825.927	24612
826.067	24513
826.206	24502
826.346	24525
826.485	24509
826.625	24654
826.765	24616
826.904	24521
827.044	24235
827.183	24388
827.323	24300
827.462	24285
827.601	24350
827.741	24136
827.88	24292
828.02	24163
828.159	24121
828.298	24330
828.437	24296
828.577	24095
828.716	24300
828.855	24117
828.994	23992
829.134	24064
829.273	23923
829.412	23931
829.551	23878
829.69	23992
829.829	24030
829.968	24114
830.107	24106
830.246	24072
830.385	23961
830.524	23920
830.663	23779
830.802	23748
830.941	23619
831.08	23600
831.219	23691
831.357	23786
831.496	23764
831.635	23619
831.774	23459
831.913	23398
832.051	23356
832.19	23277
832.329	23463
832.467	23174
832.606	23197
832.744	23094
832.883	23227
833.022	23143
833.16	23299
833.299	23322
833.437	23299
833.576	23452
833.714	23303
833.852	23505
833.991	23417
834.129	23360
834.267	23280
834.406	23395
834.544	23410
834.682	23334
834.821	23349
834.959	23455
835.097	23140
835.235	23383
835.373	23258
835.511	23326
835.65	23140
835.788	23159
835.926	23014
836.064	22949
836.202	23037
836.34	23128
836.478	23307
836.615	23113
836.753	23109
836.891	23315
837.029	23124
837.167	23067
837.305	23200
837.443	23033
837.58	23018
837.718	23147
837.856	23098
837.993	22881
838.131	22995
838.269	22923
838.406	22881
838.544	22763
838.681	22634
838.819	22725
838.956	22569
839.094	22481
839.231	22470
839.369	22664
839.506	22968
839.643	22809
839.781	22527
839.918	22417
840.055	22333
840.193	22584
840.33	22428
840.467	22455
840.604	22516
840.742	22782
840.879	22318
841.016	22398
841.153	22325
841.29	22531
841.427	22443
841.564	22390
841.701	22432
841.838	22314
841.975	22306
842.112	22394
842.249	22249
842.385	22177
842.522	22478
842.659	22284
842.796	22158
842.933	22128
843.069	22124
843.206	22078
843.343	22215
843.479	22090
843.616	22303
843.752	22010
843.889	22040
844.025	21991
844.162	21876
844.298	22002
844.435	22044
844.571	21838
844.708	22025
844.844	22048
844.98	21926
845.117	22124
845.253	21953
845.389	21865
845.525	21892
845.661	21728
845.798	21675
845.934	21694
846.07	21648
846.206	21747
846.342	21785
846.478	21816
846.614	21473
846.75	21397
846.886	21473
847.022	21656
847.158	21473
847.294	21462
847.429	21564
847.565	21374
847.701	21781
847.837	21214
847.972	21135
848.108	21173
848.244	21214
848.379	21104
848.515	21024
848.65	20990
848.786	21039
848.921	21135
849.057	21062
849.192	21154
849.328	21058
849.463	21024
849.598	20952
849.734	20967
849.869	20952
850.004	20861
850.14	20853
850.275	20785
850.41	20743
850.545	20716
850.68	20693
850.815	20777
850.95	20830
851.085	21028
851.22	20895
851.355	20868
851.49	20785
851.625	20777
851.76	20682
851.895	20785
852.03	20712
852.165	20834
852.299	20842
852.434	20880
852.569	20876
852.703	20800
852.838	20876
852.973	20891
853.107	20891
853.242	20682
853.376	20575
853.511	20625
853.645	20663
853.78	20663
853.914	20492
854.048	20533
854.183	20621
854.317	20613
854.451	20735
854.585	20746
854.72	20682
854.854	20731
854.988	20503
855.122	20735
855.256	20533
855.39	20644
855.524	20629
855.658	20651
855.792	20670
855.926	20526
856.06	20743
856.194	20583
856.327	20598
856.461	20552
856.595	20575
856.729	20590
856.862	20720
856.996	20762
857.13	20697
857.263	20807
857.397	20682
857.53	20613
857.664	20602
857.797	20659
857.931	20701
858.064	20590
858.197	20773
858.331	20587
858.464	20621
858.597	20503
858.731	20651
858.864	20541
858.997	20602
859.13	20701
859.263	20575
859.396	20587
859.529	20617
859.662	20583
859.795	20549
859.928	20609
860.061	20743
860.194	20876
860.327	20674
860.46	20571
860.592	20781
860.725	20861
860.858	20807
860.99	20560
861.123	20579
861.256	20503
861.388	20705
861.521	21203
861.653	20598
861.786	20423
861.918	20541
862.05	20537
862.183	20484
862.315	20594
862.447	20644
862.58	20484
862.712	20377
862.844	20237
862.976	20366
863.108	20336
863.24	20781
863.372	20301
863.504	20324
863.636	20377
863.768	20362
863.9	20431
864.032	20301
864.164	20305
864.296	20412
864.428	20393
864.559	20366
864.691	20374
864.823	20446
864.954	20381
865.086	20271
865.217	20400
865.349	20176
865.48	20313
865.612	20168
865.743	20301
865.875	20275
866.006	20233
866.137	20259
866.269	20149
866.4	20317
866.531	20092
866.662	20214
866.793	20172
866.924	20210
867.055	20195
867.186	20244
867.317	20210
867.448	20191
867.579	20199
867.71	20020
867.841	20161
867.972	20294
868.103	20161
868.233	20244
868.364	20256
868.495	20358
868.625	20442
868.756	20495
868.886	20476
869.017	20461
869.147	20541
869.278	20499
869.408	20530
869.539	20404
869.669	20575
869.799	20568
869.929	20511
870.06	20434
870.19	20686
870.32	20556
870.45	20842
870.58	20773
870.71	20887
870.84	20906
870.97	20686
871.1	20777
871.23	20941
871.36	21001
871.489	21013
871.619	21096
871.749	21013
871.879	21100
872.008	21119
872.138	21100
872.267	21081
872.397	20902
872.526	20941
872.656	20944
872.785	20834
872.915	21218
873.044	21260
873.173	21081
873.303	21138
873.432	21211
873.561	21123
873.69	20960
873.819	21001
873.948	21146
874.077	20982
874.206	21001
874.335	21047
874.464	21180
874.593	21310
874.722	21256
874.851	21397
874.979	21412
875.108	21545
875.237	21283
875.365	21214
875.494	21306
875.623	21302
875.751	21329
875.88	21310
876.008	21580
876.136	21469
876.265	21614
876.393	21865
876.521	21857
876.65	21812
876.778	21739
876.906	21694
877.034	21583
877.162	21698
877.29	21603
877.418	21549
877.546	21595
877.674	21663
877.802	21778
877.93	21724
878.058	21686
878.185	21549
878.313	21549
878.441	21656
878.568	21504
878.696	21523
878.824	21694
878.951	21732
879.079	21797
879.206	21926
879.333	21778
879.461	21759
879.588	21713
879.715	21831
879.842	22036
879.97	21694
880.097	21466
880.224	21603
880.351	21428
880.478	21515
880.605	21397
880.732	21439
880.859	21781
880.986	21462
881.112	21545
881.239	21374
881.366	21408
881.493	21188
881.619	21108
881.746	21207
881.872	21116
881.999	20963
882.125	21001
882.252	20918
882.378	21096
882.505	21127
882.631	20986
882.757	20796
882.883	20990
883.01	20762
883.136	20743
883.262	20705
883.388	20640
883.514	20651
883.64	20807
883.766	20762
883.892	20629
884.018	20712
884.143	20708
884.269	20708
884.395	20492
884.52	20415
884.646	20484
884.772	20336
884.897	20294
885.023	20511
885.148	20537
885.274	20594
885.399	20442
885.524	20389
885.65	20366
885.775	20400
885.9	20499
886.025	20598
886.15	20473
886.275	20362
886.4	20389
886.525	20351
886.65	20298
886.775	20294
886.9	20419
887.025	20617
887.149	20495
887.274	20172
887.399	20218
887.523	20180
887.648	20107
887.773	20107
887.897	20225
888.021	20267
888.146	20027
888.27	20218
888.395	20400
888.519	20172
888.643	20240
888.767	20259
888.891	20168
889.015	20008
889.139	20031
889.263	20134
889.387	20065
889.511	20309
889.635	20065
889.759	19986
889.883	20001
890.006	20054
890.13	20024
890.254	19845
890.377	19879
890.501	19791
890.624	19647
890.748	19791
890.871	19674
890.995	19499
891.118	19468
891.241	19556
891.364	19616
891.488	19643
891.611	19616
891.734	19480
891.857	19677
891.98	19594
892.103	19655
892.226	19575
892.349	19594
892.471	19453
892.594	19540
892.717	19476
892.839	19468
892.962	19464
893.085	19582
893.207	19506
893.33	19407
893.452	19388
893.575	19655
893.697	19453
893.819	19643
893.941	19651
894.064	19658
894.186	19499
894.308	19392
894.43	19491
894.552	19575
894.674	19495
894.796	19392
894.918	19403
895.04	19426
895.161	19559
895.283	19529
895.405	19373
895.526	19476
895.648	19552
895.769	19529
895.891	19563
896.012	19616
896.134	19453
896.255	19624
896.376	19331
896.498	19521
896.619	19499
896.74	19567
896.861	19571
896.982	19791
897.103	20024
897.224	19772
897.345	19727
897.466	19674
897.587	19723
897.708	19826
897.828	19746
897.949	19753
898.07	19563
898.19	19670
898.311	19784
898.431	19750
898.552	19757
898.672	19791
898.792	19734
898.913	19807
899.033	19616
899.153	19575
899.273	19457
899.393	19422
899.513	19605
899.633	19449
899.753	19506
899.873	19487
899.993	19514
900.113	19453
900.232	19422
900.352	19533
900.472	19244
900.591	19259
900.711	19377
900.83	19232
900.95	19373
901.069	19419
901.189	19312
901.308	18970
901.427	18817
901.546	18833
901.665	18875
901.784	18840
901.904	18738
902.023	18658
902.141	18460
902.26	18597
902.379	18448
902.498	18403
902.617	18327
902.735	18448
902.854	18380
902.973	18327
903.091	18072
903.21	17984
903.328	18083
903.446	17897
903.565	17885
903.683	17897
903.801	17748
903.919	17920
904.038	17775
904.156	17684
904.274	17760
904.392	17577
904.51	17703
904.627	17589
904.745	17748
904.863	17661
904.981	17440
905.098	17315
905.216	17303
905.334	17455
905.451	17379
905.569	17288
905.686	17311
905.803	17273
905.921	17159
906.038	17197
906.155	17170
906.272	17060
906.389	16949
906.506	16854
906.623	16965
906.74	16729
906.857	16721
906.974	16771
907.091	16911
907.208	17025
907.324	16915
907.441	16759
907.557	16618
907.674	16538
907.79	16470
907.907	16588
908.023	16679
908.139	16592
908.256	16592
908.372	16535
908.488	16497
908.604	16344
908.72	16295
908.836	16337
908.952	16325
909.068	16322
909.184	16390
909.3	16360
909.415	16367
909.531	16360
909.647	16078
909.762	15945
909.878	16044
909.993	16048
910.108	16025
910.224	15892
910.339	15945
910.454	16036
910.57	15915
910.685	15686
910.8	16010
910.915	15991
911.03	15812
911.145	15774
911.259	15656
911.374	15622
911.489	15584
911.604	15511
911.718	15462
911.833	15469
911.947	15310
912.062	15370
912.176	15336
912.291	15386
912.405	15393
912.519	15519
912.633	15511
912.748	15374
912.862	15321
912.976	15176
913.09	15055
913.204	15097
913.318	15275
913.431	15389
913.545	15245
913.659	15325
913.772	15241
913.886	15058
914	14998
914.113	15116
914.226	15127
914.34	15039
914.453	14952
914.566	15036
914.68	14883
914.793	14925
914.906	14697
915.019	14636
915.132	14678
915.245	14674
915.358	14701
915.47	14682
915.583	14606
915.696	14762
915.809	14777
915.921	14785
916.034	14564
916.146	14507
916.259	14552
916.371	14602
916.483	14632
916.595	14541
916.708	14495
916.82	14533
916.932	14514
917.044	14389
917.156	14408
917.268	14290
917.38	14442
917.491	14229
917.603	14271
917.715	14355
917.826	14396
917.938	14225
918.049	14149
918.161	14263
918.272	14294
918.384	14488
918.495	14294
918.606	14183
918.717	14039
918.828	14096
918.939	14145
919.05	13955
919.161	13925
919.272	13849
919.383	13993
919.494	14119
919.604	14298
919.715	14119
919.826	13944
919.936	14027
920.047	14039
920.157	14111
920.267	14282
920.378	14035
920.488	14058
920.598	14206
920.708	14427
920.818	14123
920.928	14164
921.038	14412
921.148	14259
921.258	14020
921.368	13837
921.477	13818
921.587	13860
921.697	13632
921.806	13864
921.916	13594
922.025	13529
922.134	13510
922.244	13434
922.353	13411
922.462	13400
922.571	13228
922.68	13118
922.789	13114
922.898	13160
923.007	13023
923.116	13091
923.224	13042
923.333	13027
923.442	13008
923.55	12901
923.659	12878
923.767	12958
923.876	12901
923.984	12993
924.092	12783
924.201	12920
924.309	12875
924.417	12779
924.525	12776
924.633	12783
924.741	13578
924.849	12597
924.956	12787
925.064	12479
925.172	12391
925.279	12513
925.387	12532
925.494	12612
925.602	12646
925.709	12445
925.816	12418
925.924	12418
926.031	12639
926.138	12544
926.245	12509
926.352	12399
926.459	12452
926.566	12570
926.673	12380
926.779	12273
926.886	12361
926.993	12152
927.099	12125
927.206	12102
927.312	12091
927.419	12159
927.525	12083
927.631	12197
927.737	12049
927.843	12007
927.95	11889
928.056	11920
928.162	12011
928.267	12022
928.373	12646
928.479	12003
928.585	11726
928.69	11946
928.796	11870
928.901	11798
929.007	11672
929.112	11817
929.218	11699
929.323	11615
929.428	11672
929.533	11809
929.638	11600
929.743	11604
929.848	11726
929.953	11638
930.058	11581
930.163	11334
930.267	11372
930.372	11573
930.477	11326
930.581	11532
930.685	11490
930.79	11337
930.894	11254
930.998	11269
931.103	11410
931.207	10957
931.311	10976
931.415	10793
931.519	10710
931.623	10622
