Data from test_V78500241_2200.txt Node
Date: Fri Mar 25 15:25:10 CST 2022
User: usil
Spectrometer: V785-0024
Trigger mode: 0
Integration Time (sec): 4.000000E-1
Scans to average: 1
Nonlinearity correction enabled: false
Boxcar width: 0
Storing dark spectrum: false
XAxis mode: Wavelengths
Number of Pixels in Spectrum: 1024
>>>>>Begin Spectral Data<<<<<
801.071	27854
801.214	27690
801.356	27477
801.499	27420
801.641	27386
801.783	27306
801.926	27287
802.068	27397
802.211	27332
802.353	27154
802.496	27036
802.638	26963
802.78	26880
802.923	26895
803.065	26823
803.208	26830
803.35	26971
803.492	27119
803.635	27233
803.777	27085
803.919	27176
804.061	27458
804.204	27310
804.346	27310
804.488	27294
804.63	27169
804.773	27028
804.915	27252
805.057	27230
805.199	27047
805.341	27188
805.483	27256
805.626	27294
805.768	27325
805.91	27408
806.052	27355
806.194	27351
806.336	27427
806.478	27401
806.62	27081
806.762	27500
806.904	27564
807.046	27778
807.188	27663
807.33	27667
807.472	27762
807.614	27694
807.756	27812
807.898	27709
808.04	27564
808.182	27523
808.324	27599
808.465	27804
808.607	27804
808.749	27907
808.891	27930
809.033	28036
809.174	28131
809.316	27968
809.458	27918
809.6	27964
809.741	28093
809.883	28036
810.025	28303
810.166	28177
810.308	28295
810.45	28173
810.591	28051
810.733	27960
810.875	27888
811.016	27857
811.158	27755
811.299	27994
811.441	28063
811.582	28169
811.724	27911
811.865	28006
812.007	27914
812.148	27884
812.29	28032
812.431	28082
812.573	28344
812.714	28318
812.855	28432
812.997	28584
813.138	28698
813.279	28580
813.421	28668
813.562	28356
813.703	28162
813.845	28219
813.986	27960
814.127	27732
814.268	27682
814.41	27667
814.551	27785
814.692	27618
814.833	27561
814.974	27538
815.115	27523
815.256	27473
815.397	27462
815.539	27564
815.68	27523
815.821	27351
815.962	27504
816.103	27454
816.244	27336
816.385	27192
816.526	27100
816.666	27028
816.807	26956
816.948	27093
817.089	27036
817.23	27055
817.371	26807
817.512	26800
817.653	26864
817.793	26788
817.934	26735
818.075	26823
818.216	27017
818.356	26845
818.497	26663
818.638	26556
818.778	26621
818.919	26648
819.06	26765
819.2	26842
819.341	26990
819.481	26925
819.622	27001
819.762	27245
819.903	27157
820.043	27032
820.184	27024
820.324	26948
820.465	27104
820.605	26925
820.746	26971
820.886	26872
821.026	27051
821.167	26826
821.307	27032
821.447	26986
821.588	26720
821.728	26667
821.868	26598
822.008	26461
822.149	26488
822.289	26404
822.429	26058
822.569	25997
822.709	26103
822.849	25799
822.99	25868
823.13	25887
823.27	25883
823.41	25693
823.55	25647
823.69	25704
823.83	25715
823.97	25674
824.11	25533
824.25	25487
824.389	25521
824.529	25540
824.669	25502
824.809	25552
824.949	25624
825.089	25677
825.228	25582
825.368	25460
825.508	25266
825.648	25434
825.787	25419
825.927	25529
826.067	25373
826.206	25392
826.346	25346
826.485	25495
826.625	25426
826.765	25419
826.904	25430
827.044	25148
827.183	25160
827.323	25038
827.462	25152
827.601	25072
827.741	25187
827.88	24977
828.02	24924
828.159	25053
828.298	25168
828.437	25107
828.577	25023
828.716	25126
828.855	24966
828.994	24802
829.134	24692
829.273	24916
829.412	24646
829.551	24578
829.69	24715
829.829	24810
829.968	24913
830.107	24791
830.246	24787
830.385	24642
830.524	24623
830.663	24692
830.802	24467
830.941	24247
831.08	24490
831.219	24414
831.357	24441
831.496	24627
831.635	24338
831.774	24148
831.913	24262
832.051	24125
832.19	24239
832.329	24247
832.467	24136
832.606	24022
832.744	23935
832.883	23961
833.022	23935
833.16	23999
833.299	24068
833.437	24041
833.576	24129
833.714	24159
833.852	24174
833.991	24148
834.129	24121
834.267	24171
834.406	24007
834.544	24117
834.682	24228
834.821	24129
834.959	24163
835.097	24011
835.235	24197
835.373	24129
835.511	23996
835.65	23950
835.788	23897
835.926	23802
836.064	23855
836.202	23752
836.34	23897
836.478	24030
836.615	23866
836.753	23866
836.891	24064
837.029	23961
837.167	23843
837.305	23821
837.443	23756
837.58	23741
837.718	23920
837.856	23847
837.993	23699
838.131	23870
838.269	23687
838.406	23672
838.544	23539
838.681	23395
838.819	23448
838.956	23239
839.094	23269
839.231	23265
839.369	23402
839.506	23600
839.643	23440
839.781	23299
839.918	23048
840.055	23227
840.193	23235
840.33	23132
840.467	23178
840.604	23197
840.742	23376
840.879	23010
841.016	23052
841.153	22987
841.29	23193
841.427	23048
841.564	23105
841.701	23124
841.838	23014
841.975	22972
842.112	23124
842.249	22763
842.385	22843
842.522	23132
842.659	23079
842.796	22809
842.933	22835
843.069	22683
843.206	22809
843.343	22900
843.479	23094
843.616	22953
843.752	22664
843.889	22759
844.025	22866
844.162	22687
844.298	22748
844.435	22607
844.571	22675
844.708	22755
844.844	22843
844.98	22733
845.117	22698
845.253	22611
845.389	22527
845.525	22622
845.661	22459
845.798	22379
845.934	22413
846.07	22405
846.206	22348
846.342	22440
846.478	22344
846.614	22143
846.75	22166
846.886	22051
847.022	22211
847.158	22265
847.294	22200
847.429	22101
847.565	22219
847.701	22341
847.837	21823
847.972	21778
848.108	21895
848.244	21945
848.379	21778
848.515	21778
848.65	21816
848.786	21732
848.921	21747
849.057	21774
849.192	21857
849.328	21747
849.463	21671
849.598	21690
849.734	21709
849.869	21618
850.004	21591
850.14	21595
850.275	21496
850.41	21386
850.545	21458
850.68	21443
850.815	21424
850.95	21359
851.085	21701
851.22	21591
851.355	21481
851.49	21500
851.625	21477
851.76	21443
851.895	21447
852.03	21340
852.165	21443
852.299	21564
852.434	21583
852.569	21515
852.703	21439
852.838	21618
852.973	21599
853.107	21686
853.242	21367
853.376	21298
853.511	21222
853.645	21218
853.78	21500
853.914	21401
854.048	21264
854.183	21367
854.317	21447
854.451	21408
854.585	21340
854.72	21389
854.854	21397
854.988	21325
855.122	21363
855.256	21112
855.39	21397
855.524	21351
855.658	21405
855.792	21256
855.926	21264
856.06	21344
856.194	21496
856.327	21241
856.461	21119
856.595	21245
856.729	21241
856.862	21485
856.996	21466
857.13	21408
857.263	21329
857.397	21256
857.53	21348
857.664	21351
857.797	21367
857.931	21473
858.064	21492
858.197	21363
858.331	21306
858.464	21199
858.597	21154
858.731	21256
858.864	21325
858.997	21287
859.13	21298
859.263	21329
859.396	21268
859.529	21249
859.662	21279
859.795	21306
859.928	21310
860.061	21481
860.194	21477
860.327	21374
860.46	21344
860.592	21447
860.725	21458
860.858	21553
860.99	21283
861.123	21241
861.256	21336
861.388	21313
861.521	21941
861.653	21176
861.786	21096
861.918	21131
862.05	21169
862.183	21192
862.315	21272
862.447	21252
862.58	21344
862.712	21024
862.844	20994
862.976	21100
863.108	21070
863.24	21386
863.372	20872
863.504	21013
863.636	21188
863.768	20956
863.9	21047
864.032	20986
864.164	21036
864.296	21074
864.428	21100
864.559	21085
864.691	21070
864.823	21058
864.954	21017
865.086	20906
865.217	20998
865.349	20819
865.48	20921
865.612	20864
865.743	21009
865.875	20990
866.006	20929
866.137	20925
866.269	20941
866.4	20864
866.531	20781
866.662	20765
866.793	20906
866.924	20815
867.055	20918
867.186	20937
867.317	20815
867.448	20686
867.579	20944
867.71	20762
867.841	20800
867.972	20754
868.103	20807
868.233	20933
868.364	20925
868.495	20868
868.625	21005
868.756	21100
868.886	21009
869.017	21032
869.147	21104
869.278	21252
869.408	21146
869.539	21043
869.669	21112
869.799	21074
869.929	21226
870.06	21195
870.19	21447
870.32	21363
870.45	21458
870.58	21393
870.71	21542
870.84	21477
870.97	21431
871.1	21466
871.23	21637
871.36	21698
871.489	21724
871.619	21774
871.749	21663
871.879	21831
872.008	21739
872.138	21739
872.267	21637
872.397	21595
872.526	21542
872.656	21553
872.785	21534
872.915	21656
873.044	21850
873.173	21766
873.303	21736
873.432	21739
873.561	21682
873.69	21644
873.819	21686
873.948	21827
874.077	21739
874.206	21580
874.335	21663
874.464	21717
874.593	21895
874.722	21804
874.851	21972
874.979	21854
875.108	22010
875.237	21926
875.365	21838
875.494	21911
875.623	21861
875.751	21964
875.88	22013
876.008	21915
876.136	22177
876.265	22432
876.393	22565
876.521	22394
876.65	22386
876.778	22299
876.906	22181
877.034	22318
877.162	22249
877.29	22211
877.418	22363
877.546	22314
877.674	22234
877.802	22192
877.93	22299
878.058	22230
878.185	22025
878.313	22230
878.441	22200
878.568	22097
878.696	22074
878.824	22143
878.951	22462
879.079	22424
879.206	22599
879.333	22417
879.461	22287
879.588	22337
879.715	22478
879.842	22588
879.97	22447
880.097	22124
880.224	22040
880.351	22070
880.478	22177
880.605	22059
880.732	22105
880.859	22367
880.986	22188
881.112	22086
881.239	22010
881.366	21736
881.493	21800
881.619	21717
881.746	21751
881.872	21660
881.999	21682
882.125	21583
882.252	21728
882.378	21622
882.505	21888
882.631	21576
882.757	21344
882.883	21450
883.01	21469
883.136	21344
883.262	21233
883.388	21070
883.514	21469
883.64	21466
883.766	21363
883.892	21157
884.018	21195
884.143	21241
884.269	21477
884.395	20975
884.52	20994
884.646	20994
884.772	21055
884.897	20952
885.023	21043
885.148	21036
885.274	21119
885.399	21112
885.524	21096
885.65	20982
885.775	21024
885.9	21013
886.025	21146
886.15	21108
886.275	21013
886.4	20864
886.525	20864
886.65	20963
886.775	20998
886.9	21020
887.025	21233
887.149	20948
887.274	20941
887.399	20663
887.523	20849
887.648	20689
887.773	20613
887.897	20857
888.021	20773
888.146	20750
888.27	20906
888.395	20899
888.519	20887
888.643	20815
888.767	20876
888.891	20686
889.015	20625
889.139	20712
889.263	20442
889.387	20632
889.511	20823
889.635	20746
889.759	20499
889.883	20568
890.006	20617
890.13	20590
890.254	20587
890.377	20457
890.501	20290
890.624	20214
890.748	20377
890.871	20298
890.995	20115
891.118	19974
891.241	20240
891.364	20202
891.488	20278
891.611	20111
891.734	20176
891.857	20138
891.98	20111
892.103	20111
892.226	20092
892.349	20096
892.471	19967
892.594	19955
892.717	20142
892.839	19902
892.962	19970
893.085	20122
893.207	20107
893.33	19936
893.452	20035
893.575	20081
893.697	20024
893.819	20161
893.941	20313
894.064	20092
894.186	19989
894.308	19982
894.43	20081
894.552	20180
894.674	20035
894.796	20119
894.918	20043
895.04	19978
895.161	20191
895.283	20081
895.405	20039
895.526	20176
895.648	19993
895.769	20005
895.891	20077
896.012	20134
896.134	20134
896.255	20050
896.376	20065
896.498	19959
896.619	19978
896.74	20172
896.861	20256
896.982	20370
897.103	20587
897.224	20294
897.345	20271
897.466	20130
897.587	20248
897.708	20377
897.828	20282
897.949	20202
898.07	20039
898.19	20233
898.311	20290
898.431	20301
898.552	20347
898.672	20286
898.792	20366
898.913	20267
899.033	20153
899.153	20145
899.273	20065
899.393	20062
899.513	20142
899.633	20001
899.753	20088
899.873	19928
899.993	20005
900.113	19921
900.232	19936
900.352	19967
900.472	19967
900.591	19662
900.711	19757
900.83	19750
900.95	19982
901.069	19868
901.189	19753
901.308	19533
901.427	19331
901.546	19365
901.665	19407
901.784	19396
901.904	19274
902.023	19122
902.141	19008
902.26	19008
902.379	19099
902.498	18966
902.617	18787
902.735	18951
902.854	18833
902.973	18920
903.091	18715
903.21	18528
903.328	18612
903.446	18521
903.565	18376
903.683	18445
903.801	18376
903.919	18395
904.038	18186
904.156	18232
904.274	18327
904.392	18121
904.51	18220
904.627	18220
904.745	18167
904.863	18133
904.981	17927
905.098	17821
905.216	17756
905.334	17847
905.451	17809
905.569	17726
905.686	17855
905.803	17805
905.921	17581
906.038	17783
906.155	17573
906.272	17535
906.389	17433
906.506	17395
906.623	17364
906.74	17349
906.857	17239
906.974	17204
907.091	17421
907.208	17524
907.324	17360
907.441	17258
907.557	17121
907.674	16965
907.79	16991
907.907	17022
908.023	17170
908.139	17113
908.256	17109
908.372	17014
908.488	17003
908.604	16820
908.72	16740
908.836	16820
908.952	16641
909.068	16786
909.184	16892
909.3	16809
909.415	16869
909.531	16744
909.647	16634
909.762	16504
909.878	16558
909.993	16558
910.108	16360
910.224	16394
910.339	16451
910.454	16360
910.57	16333
910.685	16093
910.8	16493
910.915	16436
911.03	16314
911.145	16204
911.259	16071
911.374	16059
911.489	16002
911.604	15846
911.718	15838
911.833	15857
911.947	15747
912.062	15584
912.176	15759
912.291	15751
912.405	15694
912.519	15960
912.633	15964
912.748	15835
912.862	15819
912.976	15701
913.09	15488
913.204	15660
913.318	15671
913.431	15694
913.545	15827
913.659	15800
913.772	15629
913.886	15587
914	15507
914.113	15500
914.226	15557
914.34	15435
914.453	15291
914.566	15431
914.68	15203
914.793	15260
914.906	15127
915.019	15009
915.132	14998
915.245	15135
915.358	15135
915.47	15123
915.583	15058
915.696	15043
915.809	15127
915.921	15135
916.034	14967
916.146	15001
916.259	14925
916.371	15036
916.483	14952
916.595	14868
916.708	14762
916.82	14902
916.932	14785
917.044	14834
917.156	14823
917.268	14731
917.38	14773
917.491	14773
917.603	14659
917.715	14750
917.826	14811
917.938	14648
918.049	14560
918.161	14674
918.272	14826
918.384	14731
918.495	14655
918.606	14518
918.717	14533
918.828	14495
918.939	14537
919.05	14457
919.161	14438
919.272	14240
919.383	14332
919.494	14499
919.604	14697
919.715	14393
919.826	14320
919.936	14450
920.047	14488
920.157	14427
920.267	14552
920.378	14442
920.488	14370
920.598	14701
920.708	14708
920.818	14564
920.928	14431
921.038	14708
921.148	14686
921.258	14431
921.368	14290
921.477	14126
921.587	14218
921.697	14096
921.806	14100
921.916	14065
922.025	13849
922.134	13860
922.244	13769
922.353	13818
922.462	13655
922.571	13620
922.68	13514
922.789	13403
922.898	13434
923.007	13426
923.116	13419
923.224	13472
923.333	13502
923.442	13236
923.55	13263
923.659	13377
923.767	13312
923.876	13251
923.984	13365
924.092	13164
924.201	13266
924.309	13217
924.417	13164
924.525	13141
924.633	13133
924.741	13890
924.849	12985
924.956	13091
925.064	12916
925.172	12764
925.279	12890
925.387	12886
925.494	12871
925.602	12973
925.709	12943
925.816	12760
925.924	12787
926.031	12935
926.138	12798
926.245	12798
926.352	12776
926.459	12878
926.566	12935
926.673	12772
926.779	12608
926.886	12627
926.993	12521
927.099	12395
927.206	12315
927.312	12296
927.419	12479
927.525	12395
927.631	12437
927.737	12346
927.843	12300
927.95	12289
928.056	12254
928.162	12304
928.267	12296
928.373	12886
928.479	12414
928.585	12140
928.69	12273
928.796	12266
928.901	12098
929.007	11939
929.112	12148
929.218	12034
929.323	12007
929.428	12030
929.533	12098
929.638	11912
929.743	11965
929.848	11988
929.953	11904
930.058	11882
930.163	11722
930.267	11767
930.372	11912
930.477	11600
930.581	11935
930.685	11805
930.79	11501
930.894	11653
930.998	11573
931.103	11710
931.207	11307
931.311	11212
931.415	11147
931.519	10976
931.623	10957
