Data from test_V78500241_1973.txt Node
Date: Fri Mar 25 15:23:35 CST 2022
User: usil
Spectrometer: V785-0024
Trigger mode: 0
Integration Time (sec): 4.000000E-1
Scans to average: 1
Nonlinearity correction enabled: false
Boxcar width: 0
Storing dark spectrum: false
XAxis mode: Wavelengths
Number of Pixels in Spectrum: 1024
>>>>>Begin Spectral Data<<<<<
801.071	27937
801.214	27781
801.356	27485
801.499	27412
801.641	27386
801.783	27340
801.926	27359
802.068	27412
802.211	27260
802.353	27264
802.496	27157
802.638	27093
802.78	26925
802.923	26861
803.065	26937
803.208	26891
803.35	26994
803.492	27294
803.635	27237
803.777	27199
803.919	27306
804.061	27542
804.204	27249
804.346	27116
804.488	27127
804.63	27119
804.773	27176
804.915	27230
805.057	27313
805.199	27226
805.341	27241
805.483	27340
805.626	27310
805.768	27306
805.91	27355
806.052	27294
806.194	27291
806.336	27492
806.478	27374
806.62	27389
806.762	27488
806.904	27549
807.046	27690
807.188	27831
807.33	27816
807.472	27804
807.614	27675
807.756	27686
807.898	27557
808.04	27538
808.182	27542
808.324	27622
808.465	27625
808.607	27941
808.749	27964
808.891	28074
809.033	28078
809.174	28070
809.316	27926
809.458	28029
809.6	27956
809.741	28143
809.883	28131
810.025	28143
810.166	28131
810.308	28265
810.45	28173
810.591	28120
810.733	27804
810.875	27884
811.016	27709
811.158	27823
811.299	27998
811.441	27899
811.582	28188
811.724	27914
811.865	27842
812.007	27789
812.148	27934
812.29	27941
812.431	28162
812.573	28291
812.714	28459
812.855	28489
812.997	28611
813.138	28630
813.279	28573
813.421	28432
813.562	28329
813.703	28284
813.845	28059
813.986	27766
814.127	27724
814.268	27728
814.41	27641
814.551	27656
814.692	27747
814.833	27542
814.974	27686
815.115	27614
815.256	27481
815.397	27519
815.539	27595
815.68	27530
815.821	27473
815.962	27302
816.103	27408
816.244	27412
816.385	27237
816.526	27135
816.666	27077
816.807	26960
816.948	26986
817.089	27039
817.23	26785
817.371	26868
817.512	27005
817.653	26876
817.793	26762
817.934	26891
818.075	27062
818.216	26956
818.356	26800
818.497	26613
818.638	26636
818.778	26575
818.919	26682
819.06	26823
819.2	26826
819.341	26960
819.481	26979
819.622	26982
819.762	27367
819.903	27176
820.043	27058
820.184	27020
820.324	26944
820.465	26963
820.605	26937
820.746	26994
820.886	26948
821.026	26963
821.167	27039
821.307	27058
821.447	26937
821.588	26967
821.728	26815
821.868	26598
822.008	26579
822.149	26465
822.289	26351
822.429	26115
822.569	26172
822.709	26031
822.849	25902
822.99	25894
823.13	25845
823.27	25734
823.41	25734
823.55	25635
823.69	25765
823.83	25772
823.97	25715
824.11	25525
824.25	25419
824.389	25624
824.529	25639
824.669	25525
824.809	25616
824.949	25746
825.089	25742
825.228	25647
825.368	25453
825.508	25403
825.648	25381
825.787	25377
825.927	25483
826.067	25282
826.206	25381
826.346	25594
826.485	25438
826.625	25487
826.765	25567
826.904	25506
827.044	25278
827.183	25103
827.323	25061
827.462	25057
827.601	25232
827.741	25042
827.88	25236
828.02	25023
828.159	25114
828.298	25122
828.437	25213
828.577	25061
828.716	25145
828.855	25133
828.994	24856
829.134	24863
829.273	24920
829.412	24844
829.551	24749
829.69	24764
829.829	24753
829.968	24970
830.107	24928
830.246	24814
830.385	24817
830.524	24753
830.663	24700
830.802	24574
830.941	24532
831.08	24456
831.219	24578
831.357	24505
831.496	24696
831.635	24452
831.774	24414
831.913	24369
832.051	24372
832.19	24243
832.329	24232
832.467	24254
832.606	24076
832.744	24007
832.883	24152
833.022	23851
833.16	24026
833.299	24239
833.437	24049
833.576	24190
833.714	24315
833.852	24258
833.991	24247
834.129	24152
834.267	24292
834.406	24224
834.544	24220
834.682	24232
834.821	24182
834.959	24388
835.097	24239
835.235	24228
835.373	24182
835.511	24133
835.65	24079
835.788	24129
835.926	23980
836.064	23988
836.202	23843
836.34	24007
836.478	24053
836.615	24011
836.753	24015
836.891	23996
837.029	23950
837.167	23855
837.305	23832
837.443	23973
837.58	23916
837.718	23935
837.856	23878
837.993	23786
838.131	23969
838.269	23722
838.406	23882
838.544	23687
838.681	23638
838.819	23463
838.956	23383
839.094	23307
839.231	23467
839.369	23577
839.506	23687
839.643	23627
839.781	23395
839.918	23136
840.055	23315
840.193	23265
840.33	23242
840.467	23239
840.604	23334
840.742	23630
840.879	23235
841.016	23121
841.153	23124
841.29	23330
841.427	23261
841.564	23212
841.701	23299
841.838	23239
841.975	23216
842.112	23117
842.249	23124
842.385	23086
842.522	23242
842.659	23109
842.796	23067
842.933	23014
843.069	22915
843.206	22862
843.343	23136
843.479	23033
843.616	23079
843.752	22771
843.889	22797
844.025	22934
844.162	22790
844.298	22797
844.435	22881
844.571	22767
844.708	22713
844.844	22904
844.98	22885
845.117	22843
845.253	22721
845.389	22694
845.525	22691
845.661	22675
845.798	22462
845.934	22561
846.07	22538
846.206	22554
846.342	22588
846.478	22409
846.614	22314
846.75	22166
846.886	22356
847.022	22268
847.158	22272
847.294	22276
847.429	22226
847.565	22238
847.701	22485
847.837	22109
847.972	21907
848.108	22040
848.244	22101
848.379	21934
848.515	21800
848.65	21861
848.786	21880
848.921	21819
849.057	21975
849.192	22021
849.328	21850
849.463	21854
849.598	21816
849.734	21720
849.869	21778
850.004	21481
850.14	21523
850.275	21603
850.41	21606
850.545	21629
850.68	21568
850.815	21686
850.95	21660
851.085	21732
851.22	21762
851.355	21542
851.49	21572
851.625	21580
851.76	21557
851.895	21572
852.03	21492
852.165	21568
852.299	21564
852.434	21743
852.569	21644
852.703	21652
852.838	21732
852.973	21774
853.107	21739
853.242	21511
853.376	21534
853.511	21321
853.645	21435
853.78	21511
853.914	21405
854.048	21336
854.183	21435
854.317	21500
854.451	21686
854.585	21435
854.72	21538
854.854	21553
854.988	21450
855.122	21515
855.256	21332
855.39	21389
855.524	21485
855.658	21545
855.792	21447
855.926	21439
856.06	21416
856.194	21587
856.327	21424
856.461	21382
856.595	21435
856.729	21488
856.862	21473
856.996	21462
857.13	21466
857.263	21603
857.397	21511
857.53	21336
857.664	21466
857.797	21530
857.931	21340
858.064	21462
858.197	21580
858.331	21443
858.464	21454
858.597	21279
858.731	21382
858.864	21355
858.997	21466
859.13	21447
859.263	21477
859.396	21557
859.529	21317
859.662	21450
859.795	21291
859.928	21329
860.061	21557
860.194	21583
860.327	21629
860.46	21515
860.592	21576
860.725	21526
860.858	21485
860.99	21462
861.123	21397
861.256	21355
861.388	21389
861.521	22192
861.653	21313
861.786	21138
861.918	21344
862.05	21306
862.183	21313
862.315	21272
862.447	21473
862.58	21348
862.712	21188
862.844	21077
862.976	21226
863.108	21249
863.24	21717
863.372	21108
863.504	21142
863.636	21173
863.768	21112
863.9	21264
864.032	21100
864.164	21222
864.296	21203
864.428	21298
864.559	21233
864.691	21188
864.823	21058
864.954	21138
865.086	21176
865.217	21131
865.349	21043
865.48	21116
865.612	21013
865.743	21135
865.875	21093
866.006	20883
866.137	21085
866.269	21131
866.4	20952
866.531	20979
866.662	20956
866.793	20937
866.924	20937
867.055	20944
867.186	20994
867.317	20986
867.448	20864
867.579	20975
867.71	20891
867.841	20960
867.972	20975
868.103	20971
868.233	20982
868.364	20925
868.495	20876
868.625	21093
868.756	21214
868.886	21131
869.017	21218
869.147	21165
869.278	21325
869.408	21176
869.539	21108
869.669	21173
869.799	21146
869.929	21275
870.06	21252
870.19	21553
870.32	21485
870.45	21576
870.58	21538
870.71	21720
870.84	21641
870.97	21583
871.1	21633
871.23	21857
871.36	21842
871.489	21709
871.619	21819
871.749	21781
871.879	21797
872.008	21937
872.138	21736
872.267	21911
872.397	21625
872.526	21576
872.656	21679
872.785	21713
872.915	21926
873.044	21975
873.173	21812
873.303	21835
873.432	21899
873.561	21930
873.69	21770
873.819	21804
873.948	21895
874.077	21861
874.206	21732
874.335	21907
874.464	21861
874.593	22010
874.722	21968
874.851	22013
874.979	22090
875.108	22181
875.237	21979
875.365	21895
875.494	22013
875.623	22207
875.751	22051
875.88	22097
876.008	22226
876.136	22215
876.265	22360
876.393	22523
876.521	22523
876.65	22535
876.778	22428
876.906	22402
877.034	22379
877.162	22398
877.29	22204
877.418	22402
877.546	22322
877.674	22360
877.802	22325
877.93	22295
878.058	22394
878.185	22211
878.313	22421
878.441	22409
878.568	22272
878.696	22284
878.824	22409
878.951	22531
879.079	22596
879.206	22645
879.333	22516
879.461	22516
879.588	22523
879.715	22569
879.842	22691
879.97	22500
880.097	22230
880.224	22219
880.351	22207
880.478	22360
880.605	22166
880.732	22280
880.859	22500
880.986	22261
881.112	22219
881.239	22116
881.366	21953
881.493	21945
881.619	21755
881.746	21899
881.872	21907
881.999	21755
882.125	21690
882.252	21804
882.378	21747
882.505	21812
882.631	21720
882.757	21538
882.883	21633
883.01	21561
883.136	21557
883.262	21382
883.388	21382
883.514	21408
883.64	21500
883.766	21386
883.892	21226
884.018	21313
884.143	21469
884.269	21576
884.395	21283
884.52	21150
884.646	21173
884.772	21123
884.897	21017
885.023	21081
885.148	21294
885.274	21336
885.399	21199
885.524	21218
885.65	21131
885.775	21233
885.9	21154
886.025	21157
886.15	21150
886.275	21093
886.4	21108
886.525	21150
886.65	20982
886.775	21135
886.9	21218
887.025	21340
887.149	21127
887.274	20967
887.399	20944
887.523	20982
887.648	20876
887.773	20785
887.897	20944
888.021	20811
888.146	20925
888.27	20956
888.395	20899
888.519	20914
888.643	21001
888.767	20952
888.891	20788
889.015	20693
889.139	20758
889.263	20670
889.387	20765
889.511	20876
889.635	20807
889.759	20590
889.883	20735
890.006	20682
890.13	20773
890.254	20575
890.377	20644
890.501	20545
890.624	20358
890.748	20454
890.871	20404
890.995	20328
891.118	20221
891.241	20168
891.364	20377
891.488	20366
891.611	20202
891.734	20278
891.857	20229
891.98	20305
892.103	20294
892.226	20248
892.349	20305
892.471	20031
892.594	20084
892.717	20157
892.839	20237
892.962	20107
893.085	20111
893.207	20206
893.33	20096
893.452	20153
893.575	20221
893.697	20119
893.819	20313
893.941	20396
894.064	20290
894.186	20073
894.308	20164
894.43	20225
894.552	20130
894.674	20290
894.796	20084
894.918	20221
895.04	20172
895.161	20183
895.283	20058
895.405	20134
895.526	20195
895.648	20180
895.769	20180
895.891	20172
896.012	20244
896.134	20130
896.255	20225
896.376	20122
896.498	20172
896.619	20278
896.74	20206
896.861	20278
896.982	20480
897.103	20655
897.224	20389
897.345	20328
897.466	20438
897.587	20366
897.708	20590
897.828	20336
897.949	20301
898.07	20282
898.19	20370
898.311	20427
898.431	20252
898.552	20347
898.672	20469
898.792	20377
898.913	20370
899.033	20263
899.153	20176
899.273	20111
899.393	20081
899.513	20195
899.633	20168
899.753	20138
899.873	20096
899.993	20058
900.113	19967
900.232	20077
900.352	20016
900.472	19997
900.591	19868
900.711	19883
900.83	19750
900.95	20020
901.069	19947
901.189	19757
901.308	19567
901.427	19411
901.546	19502
901.665	19670
901.784	19426
901.904	19297
902.023	19274
902.141	19046
902.26	18966
902.379	19114
902.498	18954
902.617	18966
902.735	19000
902.854	18951
902.973	19023
903.091	18738
903.21	18650
903.328	18665
903.446	18555
903.565	18528
903.683	18589
903.801	18384
903.919	18448
904.038	18304
904.156	18258
904.274	18388
904.392	18304
904.51	18270
904.627	18228
904.745	18254
904.863	18277
904.981	18064
905.098	17904
905.216	17855
905.334	17942
905.451	17939
905.569	17912
905.686	17931
905.803	17908
905.921	17653
906.038	17908
906.155	17775
906.272	17551
906.389	17649
906.506	17410
906.623	17455
906.74	17474
906.857	17402
906.974	17345
907.091	17497
907.208	17554
907.324	17516
907.441	17417
907.557	17220
907.674	17189
907.79	17155
907.907	17170
908.023	17212
908.139	17128
908.256	17197
908.372	17018
908.488	17064
908.604	16805
908.72	16896
908.836	16965
908.952	16862
909.068	17006
909.184	16987
909.3	16862
909.415	16854
909.531	16904
909.647	16508
909.762	16653
909.878	16584
909.993	16580
910.108	16637
910.224	16538
910.339	16554
910.454	16493
910.57	16375
910.685	16234
910.8	16592
910.915	16584
911.03	16356
911.145	16265
911.259	16204
911.374	16158
911.489	16166
911.604	16051
911.718	15895
911.833	15812
911.947	15778
912.062	15804
912.176	15930
912.291	15922
912.405	15876
912.519	16032
912.633	16090
912.748	15998
912.862	15975
912.976	15679
913.09	15656
913.204	15660
913.318	15724
913.431	15789
913.545	15850
913.659	15823
913.772	15717
913.886	15690
914	15545
914.113	15663
914.226	15629
914.34	15629
914.453	15435
914.566	15576
914.68	15454
914.793	15481
914.906	15135
915.019	15142
915.132	15119
915.245	15127
915.358	15131
915.47	15192
915.583	15081
915.696	15142
915.809	15108
915.921	15332
916.034	15066
916.146	14994
916.259	15047
916.371	15062
916.483	15146
916.595	14979
916.708	14956
916.82	15017
916.932	14902
917.044	14929
917.156	14845
917.268	14815
917.38	14716
917.491	14731
917.603	14781
917.715	14838
917.826	14838
917.938	14640
918.049	14583
918.161	14724
918.272	14857
918.384	14857
918.495	14762
918.606	14602
918.717	14518
918.828	14564
918.939	14568
919.05	14492
919.161	14427
919.272	14332
919.383	14465
919.494	14583
919.604	14697
919.715	14545
919.826	14431
919.936	14552
920.047	14663
920.157	14560
920.267	14651
920.378	14514
920.488	14454
920.598	14629
920.708	14701
920.818	14640
920.928	14579
921.038	14754
921.148	14735
921.258	14412
921.368	14343
921.477	14324
921.587	14263
921.697	14134
921.806	14233
921.916	14084
922.025	13967
922.134	13913
922.244	13814
922.353	13967
922.462	13727
922.571	13769
922.68	13567
922.789	13521
922.898	13502
923.007	13518
923.116	13605
923.224	13616
923.333	13586
923.442	13411
923.55	13384
923.659	13396
923.767	13510
923.876	13266
923.984	13362
924.092	13225
924.201	13316
924.309	13362
924.417	13354
924.525	13198
924.633	13247
924.741	13883
924.849	12996
924.956	13099
925.064	13061
925.172	12947
925.279	12985
925.387	13012
925.494	13004
925.602	13031
925.709	12977
925.816	12825
925.924	12916
926.031	12962
926.138	12840
926.245	12901
926.352	12745
926.459	12897
926.566	12852
926.673	12734
926.779	12707
926.886	12662
926.993	12669
927.099	12498
927.206	12388
927.312	12475
927.419	12536
927.525	12509
927.631	12467
927.737	12399
927.843	12285
927.95	12197
928.056	12243
928.162	12353
928.267	12395
928.373	13004
928.479	12353
928.585	12262
928.69	12235
928.796	12350
928.901	12186
929.007	12182
929.112	12213
929.218	12106
929.323	12034
929.428	11950
929.533	12201
929.638	12019
929.743	12064
929.848	11992
929.953	11996
930.058	11942
930.163	11733
930.267	11802
930.372	11843
930.477	11688
930.581	11889
930.685	11710
930.79	11520
930.894	11688
930.998	11562
931.103	11786
931.207	11402
931.311	11292
931.415	11261
931.519	11052
931.623	10976
