Data from test_V78500241_832.txt Node
Date: Fri Mar 25 15:15:39 CST 2022
User: usil
Spectrometer: V785-0024
Trigger mode: 0
Integration Time (sec): 4.000000E-1
Scans to average: 1
Nonlinearity correction enabled: false
Boxcar width: 0
Storing dark spectrum: false
XAxis mode: Wavelengths
Number of Pixels in Spectrum: 1024
>>>>>Begin Spectral Data<<<<<
801.071	28352
801.214	28348
801.356	28120
801.499	28025
801.641	27930
801.783	27838
801.926	27819
802.068	27827
802.211	27774
802.353	27743
802.496	27515
802.638	27568
802.78	27462
802.923	27412
803.065	27488
803.208	27625
803.35	27481
803.492	27557
803.635	27545
803.777	27622
803.919	27682
804.061	27979
804.204	27873
804.346	27728
804.488	27652
804.63	27705
804.773	27557
804.915	27747
805.057	27930
805.199	27644
805.341	27930
805.483	27854
805.626	27907
805.768	27713
805.91	27888
806.052	27934
806.194	27739
806.336	28040
806.478	27979
806.62	28029
806.762	27914
806.904	28196
807.046	28348
807.188	28299
807.33	28299
807.472	28268
807.614	28226
807.756	28333
807.898	28204
808.04	28128
808.182	28101
808.324	28135
808.465	28272
808.607	28542
808.749	28462
808.891	28607
809.033	28702
809.174	28675
809.316	28523
809.458	28535
809.6	28531
809.741	28679
809.883	28660
810.025	28854
810.166	28866
810.308	28976
810.45	28694
810.591	28801
810.733	28729
810.875	28535
811.016	28531
811.158	28462
811.299	28519
811.441	28850
811.582	28596
811.724	28500
811.865	28561
812.007	28637
812.148	28557
812.29	28733
812.431	28824
812.573	29090
812.714	29098
812.855	29033
812.997	29242
813.138	29379
813.279	29326
813.421	29223
813.562	29048
813.703	28953
813.845	28881
813.986	28679
814.127	28394
814.268	28390
814.41	28329
814.551	28162
814.692	28341
814.833	28379
814.974	28192
815.115	28386
815.256	28173
815.397	28147
815.539	28276
815.68	28070
815.821	28074
815.962	28116
816.103	28128
816.244	27968
816.385	27934
816.526	27660
816.666	27747
816.807	27568
816.948	27732
817.089	27606
817.23	27660
817.371	27572
817.512	27576
817.653	27698
817.793	27614
817.934	27603
818.075	27637
818.216	27580
818.356	27595
818.497	27412
818.638	27401
818.778	27374
818.919	27363
819.06	27397
819.2	27504
819.341	27561
819.481	27530
819.622	27743
819.762	27922
819.903	27850
820.043	27835
820.184	27663
820.324	27713
820.465	27854
820.605	27762
820.746	27755
820.886	27625
821.026	27656
821.167	27656
821.307	27701
821.447	27614
821.588	27580
821.728	27523
821.868	27298
822.008	27055
822.149	27176
822.289	27070
822.429	26777
822.569	26716
822.709	26929
822.849	26708
822.99	26663
823.13	26552
823.27	26511
823.41	26560
823.55	26305
823.69	26461
823.83	26404
823.97	26370
824.11	26088
824.25	26142
824.389	26275
824.529	26393
824.669	26290
824.809	26404
824.949	26366
825.089	26183
825.228	26267
825.368	26183
825.508	26096
825.648	26016
825.787	26107
825.927	26191
826.067	26187
826.206	26008
826.346	26142
826.485	26077
826.625	26164
826.765	26328
826.904	26119
827.044	25875
827.183	25997
827.323	25852
827.462	25791
827.601	25879
827.741	25871
827.88	25826
828.02	25647
828.159	25746
828.298	25875
828.437	26016
828.577	25788
828.716	25871
828.855	25704
828.994	25514
829.134	25594
829.273	25605
829.412	25472
829.551	25449
829.69	25525
829.829	25594
829.968	25788
830.107	25605
830.246	25609
830.385	25434
830.524	25373
830.663	25369
830.802	25293
830.941	25053
831.08	25141
831.219	25133
831.357	25236
831.496	25411
831.635	25228
831.774	25023
831.913	25190
832.051	24939
832.19	24962
832.329	24886
832.467	24894
832.606	24897
832.744	24745
832.883	24802
833.022	24787
833.16	24935
833.299	25038
833.437	24741
833.576	25042
833.714	24840
833.852	24943
833.991	24981
834.129	24977
834.267	24920
834.406	24924
834.544	24878
834.682	24840
834.821	24951
834.959	25156
835.097	24726
835.235	24890
835.373	24913
835.511	24844
835.65	24692
835.788	24787
835.926	24597
836.064	24490
836.202	24547
836.34	24688
836.478	24696
836.615	24570
836.753	24719
836.891	24753
837.029	24741
837.167	24608
837.305	24585
837.443	24540
837.58	24589
837.718	24540
837.856	24467
837.993	24456
838.131	24426
838.269	24365
838.406	24330
838.544	24357
838.681	24174
838.819	24057
838.956	24018
839.094	24034
839.231	24045
839.369	24155
839.506	24426
839.643	24273
839.781	23878
839.918	23901
840.055	23977
840.193	23885
840.33	23950
840.467	23912
840.604	23980
840.742	24186
840.879	23790
841.016	23802
841.153	23863
841.29	24057
841.427	23866
841.564	23798
841.701	24072
841.838	23984
841.975	23775
842.112	23760
842.249	23707
842.385	23680
842.522	23920
842.659	23589
842.796	23748
842.933	23611
843.069	23630
843.206	23543
843.343	23775
843.479	23733
843.616	23615
843.752	23421
843.889	23360
844.025	23600
844.162	23421
844.298	23577
844.435	23467
844.571	23444
844.708	23501
844.844	23554
844.98	23623
845.117	23455
845.253	23307
845.389	23372
845.525	23372
845.661	23364
845.798	23330
845.934	23193
846.07	23075
846.206	23284
846.342	23242
846.478	23136
846.614	22900
846.75	22938
846.886	23041
847.022	23037
847.158	22927
847.294	22919
847.429	22908
847.565	22923
847.701	23140
847.837	22683
847.972	22569
848.108	22649
848.244	22672
848.379	22561
848.515	22310
848.65	22497
848.786	22580
848.921	22409
849.057	22519
849.192	22557
849.328	22618
849.463	22508
849.598	22451
849.734	22478
849.869	22466
850.004	22192
850.14	22226
850.275	22257
850.41	22131
850.545	22162
850.68	22185
850.815	22363
850.95	22128
851.085	22466
851.22	22185
851.355	22341
851.49	22261
851.625	22325
851.76	22158
851.895	22150
852.03	22090
852.165	22223
852.299	22322
852.434	22409
852.569	22166
852.703	22234
852.838	22447
852.973	22257
853.107	22246
853.242	22253
853.376	22181
853.511	21991
853.645	22032
853.78	22109
853.914	22021
854.048	22044
854.183	21953
854.317	22002
854.451	22341
854.585	22074
854.72	22017
854.854	22143
854.988	22021
855.122	22078
855.256	21994
855.39	22078
855.524	22070
855.658	22112
855.792	22063
855.926	22048
856.06	22226
856.194	22082
856.327	22010
856.461	21998
856.595	21930
856.729	22055
856.862	22287
856.996	22120
857.13	22147
857.263	22257
857.397	22226
857.53	22082
857.664	22070
857.797	22154
857.931	22204
858.064	22139
858.197	22143
858.331	21972
858.464	21975
858.597	21979
858.731	21964
858.864	22006
858.997	22021
859.13	22036
859.263	22090
859.396	22139
859.529	22032
859.662	22048
859.795	21972
859.928	22101
860.061	22287
860.194	22348
860.327	22139
860.46	22097
860.592	22158
860.725	22325
860.858	22181
860.99	21941
861.123	22032
861.256	22067
861.388	22097
861.521	23003
861.653	21930
861.786	21983
861.918	21865
862.05	21873
862.183	21998
862.315	21987
862.447	21979
862.58	21888
862.712	21838
862.844	21667
862.976	21953
863.108	21854
863.24	22120
863.372	21614
863.504	21892
863.636	21751
863.768	21800
863.9	21625
864.032	21633
864.164	21690
864.296	21736
864.428	21907
864.559	21728
864.691	21739
864.823	21732
864.954	21762
865.086	21766
865.217	21694
865.349	21614
865.48	21671
865.612	21599
865.743	21789
865.875	21648
866.006	21637
866.137	21610
866.269	21667
866.4	21614
866.531	21454
866.662	21519
866.793	21591
866.924	21496
867.055	21580
867.186	21656
867.317	21720
867.448	21534
867.579	21572
867.71	21481
867.841	21473
867.972	21637
868.103	21553
868.233	21698
868.364	21466
868.495	21515
868.625	21755
868.756	22032
868.886	21854
869.017	21884
869.147	21842
869.278	21880
869.408	21816
869.539	21793
869.669	21876
869.799	21808
869.929	21960
870.06	21960
870.19	22044
870.32	22086
870.45	22086
870.58	22177
870.71	22318
870.84	22333
870.97	22124
871.1	22090
871.23	22398
871.36	22379
871.489	22402
871.619	22375
871.749	22432
871.879	22447
872.008	22516
872.138	22382
872.267	22504
872.397	22299
872.526	22303
872.656	22154
872.785	22211
872.915	22356
873.044	22618
873.173	22417
873.303	22421
873.432	22489
873.561	22561
873.69	22550
873.819	22424
873.948	22535
874.077	22447
874.206	22443
874.335	22276
874.464	22557
874.593	22637
874.722	22691
874.851	22653
874.979	22706
875.108	22577
875.237	22527
875.365	22546
875.494	22481
875.623	22767
875.751	22508
875.88	22596
876.008	22645
876.136	22812
876.265	23098
876.393	23037
876.521	23060
876.65	23037
876.778	23064
876.906	22843
877.034	22930
877.162	22972
877.29	23060
877.418	23010
877.546	22980
877.674	23052
877.802	23029
877.93	23018
878.058	22900
878.185	22793
878.313	22938
878.441	22949
878.568	22786
878.696	22885
878.824	23090
878.951	23109
879.079	23113
879.206	23204
879.333	23121
879.461	22877
879.588	23041
879.715	23109
879.842	23258
879.97	23003
880.097	22850
880.224	22809
880.351	22725
880.478	22820
880.605	22710
880.732	22733
880.859	23086
880.986	22790
881.112	22786
881.239	22679
881.366	22580
881.493	22382
881.619	22402
881.746	22344
881.872	22329
881.999	22402
882.125	22360
882.252	22299
882.378	22314
882.505	22405
882.631	22192
882.757	22158
882.883	22268
883.01	22006
883.136	22158
883.262	22002
883.388	22025
883.514	22135
883.64	22006
883.766	21956
883.892	21686
884.018	21865
884.143	22025
884.269	22097
884.395	21884
884.52	21732
884.646	21762
884.772	21618
884.897	21488
885.023	21637
885.148	21747
885.274	21774
885.399	21762
885.524	21679
885.65	21709
885.775	21641
885.9	21690
886.025	21759
886.15	21827
886.275	21690
886.4	21591
886.525	21648
886.65	21580
886.775	21610
886.9	21785
887.025	21979
887.149	21705
887.274	21466
887.399	21496
887.523	21439
887.648	21287
887.773	21374
887.897	21496
888.021	21492
888.146	21348
888.27	21583
888.395	21542
888.519	21454
888.643	21439
888.767	21477
888.891	21344
889.015	21275
889.139	21374
889.263	21203
889.387	21378
889.511	21599
889.635	21408
889.759	21268
889.883	21150
890.006	21245
890.13	21329
890.254	21161
890.377	21226
890.501	21131
890.624	20925
890.748	21070
890.871	20891
890.995	20773
891.118	20758
891.241	20910
891.364	20838
891.488	20918
891.611	20796
891.734	20754
891.857	20792
891.98	20823
892.103	20883
892.226	20815
892.349	20800
892.471	20568
892.594	20746
892.717	20853
892.839	20777
892.962	20769
893.085	20659
893.207	20697
893.33	20648
893.452	20575
893.575	20731
893.697	20621
893.819	20796
893.941	20918
894.064	20823
894.186	20457
894.308	20552
894.43	20785
894.552	20800
894.674	20727
894.796	20594
894.918	20575
895.04	20746
895.161	20724
895.283	20743
895.405	20716
895.526	20678
895.648	20651
895.769	20625
895.891	20689
896.012	20785
896.134	20720
896.255	20678
896.376	20621
896.498	20636
896.619	20731
896.74	20636
896.861	20708
896.982	21077
897.103	21138
897.224	20967
897.345	20921
897.466	20807
897.587	20895
897.708	20937
897.828	20952
897.949	20773
898.07	20777
898.19	20788
898.311	20891
898.431	20819
898.552	20781
898.672	20941
898.792	20998
898.913	20842
899.033	20773
899.153	20735
899.273	20457
899.393	20564
899.513	20556
899.633	20613
899.753	20701
899.873	20613
899.993	20560
900.113	20636
900.232	20606
900.352	20613
900.472	20408
900.591	20343
900.711	20484
900.83	20157
900.95	20522
901.069	20412
901.189	20271
901.308	20130
901.427	20027
901.546	20024
901.665	19902
901.784	20088
901.904	19811
902.023	19670
902.141	19453
902.26	19426
902.379	19616
902.498	19483
902.617	19460
902.735	19533
902.854	19324
902.973	19457
903.091	19282
903.21	19114
903.328	19236
903.446	18939
903.565	19008
903.683	18981
903.801	18935
903.919	18890
904.038	18814
904.156	18802
904.274	18642
904.392	18715
904.51	18654
904.627	18593
904.745	18734
904.863	18806
904.981	18532
905.098	18327
905.216	18369
905.334	18441
905.451	18388
905.569	18407
905.686	18399
905.803	18350
905.921	18106
906.038	18232
906.155	18152
906.272	18030
906.389	18136
906.506	17931
906.623	17821
906.74	17767
906.857	17745
906.974	17767
907.091	17855
907.208	18053
907.324	17889
907.441	17824
907.557	17657
907.674	17680
907.79	17543
907.907	17585
908.023	17608
908.139	17714
908.256	17497
908.372	17535
908.488	17516
908.604	17372
908.72	17322
908.836	17368
908.952	17330
909.068	17307
909.184	17486
909.3	17322
909.415	17440
909.531	17277
909.647	16987
909.762	17064
909.878	16953
909.993	17060
910.108	17037
910.224	17014
910.339	17025
910.454	16843
910.57	16824
910.685	16683
910.8	16999
910.915	17003
911.03	16790
911.145	16717
911.259	16763
911.374	16645
911.489	16580
911.604	16451
911.718	16386
911.833	16360
911.947	16265
912.062	16207
912.176	16276
912.291	16424
912.405	16162
912.519	16500
912.633	16550
912.748	16489
912.862	16371
912.976	16177
913.09	16044
913.204	16131
913.318	16120
913.431	16303
913.545	16306
913.659	16253
913.772	16097
913.886	16143
914	15945
914.113	16029
914.226	16097
914.34	15968
914.453	15915
914.566	16021
914.68	15823
914.793	15911
914.906	15629
915.019	15561
915.132	15576
915.245	15553
915.358	15637
915.47	15557
915.583	15568
915.696	15644
915.809	15656
915.921	15724
916.034	15447
916.146	15408
916.259	15519
916.371	15530
916.483	15466
916.595	15504
916.708	15279
916.82	15435
916.932	15275
917.044	15351
917.156	15294
917.268	15142
917.38	15264
917.491	15252
917.603	15188
917.715	15279
917.826	15237
917.938	15173
918.049	14941
918.161	15218
918.272	15237
918.384	15287
918.495	15070
918.606	14956
918.717	14982
918.828	15047
918.939	14944
919.05	14883
919.161	14891
919.272	14720
919.383	14838
919.494	14906
919.604	15032
919.715	14971
919.826	14792
919.936	14815
920.047	14982
920.157	14887
920.267	15055
920.378	14891
920.488	14948
920.598	15062
920.708	15195
920.818	15074
920.928	14944
921.038	15146
921.148	15142
921.258	14857
921.368	14693
921.477	14602
921.587	14583
921.697	14484
921.806	14610
921.916	14522
922.025	14309
922.134	14301
922.244	14290
922.353	14199
922.462	14180
922.571	14065
922.68	13951
922.789	13982
922.898	13986
923.007	13830
923.116	13913
923.224	13833
923.333	13898
923.442	13693
923.55	13708
923.659	13776
923.767	13765
923.876	13658
923.984	13799
924.092	13605
924.201	13689
924.309	13636
924.417	13632
924.525	13510
924.633	13575
924.741	14454
924.849	13373
924.956	13453
925.064	13324
925.172	13217
925.279	13244
925.387	13324
925.494	13297
925.602	13430
925.709	13373
925.816	13164
925.924	13263
926.031	13365
926.138	13240
926.245	13270
926.352	13187
926.459	13244
926.566	13221
926.673	13156
926.779	12973
926.886	13091
926.993	12909
927.099	12878
927.206	12757
927.312	12787
927.419	12935
927.525	12806
927.631	12863
927.737	12817
927.843	12631
927.95	12502
928.056	12578
928.162	12677
928.267	12719
928.373	13278
928.479	12669
928.585	12452
928.69	12574
928.796	12662
928.901	12551
929.007	12357
929.112	12574
929.218	12498
929.323	12388
929.428	12304
929.533	12471
929.638	12277
929.743	12342
929.848	12418
929.953	12338
930.058	12155
930.163	12076
930.267	12079
930.372	12216
930.477	12106
930.581	12334
930.685	12144
930.79	11916
930.894	11965
930.998	11977
931.103	12060
931.207	11775
931.311	11608
931.415	11505
931.519	11311
931.623	11334
