Data from test_V78500241_1562.txt Node
Date: Fri Mar 25 15:20:44 CST 2022
User: usil
Spectrometer: V785-0024
Trigger mode: 0
Integration Time (sec): 4.000000E-1
Scans to average: 1
Nonlinearity correction enabled: false
Boxcar width: 0
Storing dark spectrum: false
XAxis mode: Wavelengths
Number of Pixels in Spectrum: 1024
>>>>>Begin Spectral Data<<<<<
801.071	28070
801.214	27819
801.356	27492
801.499	27568
801.641	27504
801.783	27561
801.926	27485
802.068	27507
802.211	27500
802.353	27249
802.496	27138
802.638	27157
802.78	27131
802.923	27241
803.065	27055
803.208	27055
803.35	27116
803.492	27283
803.635	27302
803.777	27260
803.919	27420
804.061	27732
804.204	27317
804.346	27241
804.488	27222
804.63	27431
804.773	27351
804.915	27283
805.057	27469
805.199	27252
805.341	27488
805.483	27473
805.626	27389
805.768	27329
805.91	27519
806.052	27545
806.194	27340
806.336	27542
806.478	27507
806.62	27447
806.762	27561
806.904	27660
807.046	28006
807.188	27895
807.33	27937
807.472	27945
807.614	27972
807.756	27857
807.898	27797
808.04	27827
808.182	27682
808.324	27899
808.465	27857
808.607	27926
808.749	28166
808.891	28196
809.033	28329
809.174	28257
809.316	28204
809.458	27991
809.6	28120
809.741	28188
809.883	28211
810.025	28455
810.166	28459
810.308	28299
810.45	28352
810.591	28341
810.733	28105
810.875	28090
811.016	28013
811.158	27972
811.299	28021
811.441	28192
811.582	28280
811.724	28097
811.865	27945
812.007	28112
812.148	28150
812.29	28154
812.431	28417
812.573	28519
812.714	28512
812.855	28698
812.997	28752
813.138	28866
813.279	28672
813.421	28672
813.562	28630
813.703	28337
813.845	28322
813.986	28124
814.127	27899
814.268	27861
814.41	27785
814.551	27797
814.692	27918
814.833	27679
814.974	27739
815.115	27800
815.256	27698
815.397	27652
815.539	27827
815.68	27675
815.821	27557
815.962	27629
816.103	27511
816.244	27622
816.385	27393
816.526	27329
816.666	27218
816.807	27043
816.948	27230
817.089	27222
817.23	27176
817.371	27100
817.512	27024
817.653	26998
817.793	26982
817.934	27066
818.075	27096
818.216	26963
818.356	27081
818.497	26914
818.638	26929
818.778	26834
818.919	26792
819.06	26937
819.2	27039
819.341	27066
819.481	26868
819.622	27252
819.762	27355
819.903	27348
820.043	27313
820.184	27199
820.324	27211
820.465	27195
820.605	27138
820.746	27241
820.886	27013
821.026	27165
821.167	27070
821.307	27131
821.447	27096
821.588	27096
821.728	26845
821.868	26697
822.008	26526
822.149	26636
822.289	26511
822.429	26305
822.569	26237
822.709	26157
822.849	26145
822.99	26164
823.13	25966
823.27	26092
823.41	25837
823.55	25780
823.69	25940
823.83	25970
823.97	26012
824.11	25666
824.25	25616
824.389	25620
824.529	25833
824.669	25647
824.809	25845
824.949	25704
825.089	25818
825.228	25811
825.368	25738
825.508	25533
825.648	25597
825.787	25700
825.927	25677
826.067	25449
826.206	25628
826.346	25544
826.485	25635
826.625	25719
826.765	25670
826.904	25639
827.044	25270
827.183	25358
827.323	25304
827.462	25426
827.601	25400
827.741	25362
827.88	25472
828.02	25221
828.159	25255
828.298	25350
828.437	25297
828.577	25225
828.716	25343
828.855	25213
828.994	24996
829.134	25088
829.273	25027
829.412	24992
829.551	24951
829.69	24966
829.829	25110
829.968	25012
830.107	25046
830.246	24973
830.385	24890
830.524	24924
830.663	24764
830.802	24856
830.941	24574
831.08	24684
831.219	24669
831.357	24692
831.496	24814
831.635	24578
831.774	24486
831.913	24467
832.051	24475
832.19	24410
832.329	24441
832.467	24414
832.606	24224
832.744	24281
832.883	24308
833.022	24327
833.16	24277
833.299	24410
833.437	24433
833.576	24281
833.714	24342
833.852	24410
833.991	24399
834.129	24448
834.267	24486
834.406	24399
834.544	24486
834.682	24338
834.821	24410
834.959	24403
835.097	24353
835.235	24384
835.373	24319
835.511	24308
835.65	24190
835.788	24270
835.926	23946
836.064	23916
836.202	24034
836.34	24216
836.478	24323
836.615	24091
836.753	24148
836.891	24296
837.029	24136
837.167	24228
837.305	24041
837.443	23992
837.58	24041
837.718	24102
837.856	23996
837.993	24022
838.131	24034
838.269	23901
838.406	23977
838.544	23870
838.681	23608
838.819	23703
838.956	23604
839.094	23406
839.231	23528
839.369	23676
839.506	23935
839.643	23805
839.781	23463
839.918	23391
840.055	23349
840.193	23387
840.33	23284
840.467	23433
840.604	23410
840.742	23653
840.879	23231
841.016	23330
841.153	23353
841.29	23551
841.427	23299
841.564	23398
841.701	23467
841.838	23406
841.975	23303
842.112	23265
842.249	23220
842.385	23086
842.522	23486
842.659	23200
842.796	23204
842.933	23326
843.069	22999
843.206	23094
843.343	23117
843.479	23132
843.616	23140
843.752	22980
843.889	22968
844.025	22980
844.162	22934
844.298	22938
844.435	23048
844.571	22984
844.708	22965
844.844	23090
844.98	23010
845.117	22953
845.253	22892
845.389	22839
845.525	22839
845.661	22850
845.798	22664
845.934	22542
846.07	22611
846.206	22687
846.342	22767
846.478	22641
846.614	22485
846.75	22379
846.886	22322
847.022	22447
847.158	22344
847.294	22352
847.429	22352
847.565	22341
847.701	22717
847.837	22120
847.972	22067
848.108	22303
848.244	22173
848.379	21975
848.515	22010
848.65	21956
848.786	22017
848.921	21998
849.057	22131
849.192	22150
849.328	22139
849.463	21869
849.598	21949
849.734	21781
849.869	21724
850.004	21804
850.14	21804
850.275	21766
850.41	21660
850.545	21739
850.68	21618
850.815	21819
850.95	21892
851.085	21816
851.22	21819
851.355	21827
851.49	21705
851.625	21747
851.76	21827
851.895	21671
852.03	21625
852.165	21701
852.299	21800
852.434	21857
852.569	21732
852.703	21701
852.838	21717
852.973	21930
853.107	21876
853.242	21690
853.376	21580
853.511	21492
853.645	21462
853.78	21564
853.914	21667
854.048	21519
854.183	21576
854.317	21603
854.451	21869
854.585	21488
854.72	21591
854.854	21625
854.988	21538
855.122	21629
855.256	21439
855.39	21431
855.524	21549
855.658	21682
855.792	21648
855.926	21633
856.06	21526
856.194	21713
856.327	21671
856.461	21492
856.595	21599
856.729	21485
856.862	21625
856.996	21580
857.13	21633
857.263	21633
857.397	21705
857.53	21538
857.664	21526
857.797	21568
857.931	21671
858.064	21690
858.197	21705
858.331	21606
858.464	21439
858.597	21424
858.731	21374
858.864	21382
858.997	21378
859.13	21492
859.263	21557
859.396	21603
859.529	21595
859.662	21587
859.795	21424
859.928	21656
860.061	21675
860.194	21739
860.327	21424
860.46	21488
860.592	21603
860.725	21599
860.858	21606
860.99	21614
861.123	21469
861.256	21519
861.388	21500
861.521	22341
861.653	21435
861.786	21275
861.918	21359
862.05	21351
862.183	21454
862.315	21614
862.447	21557
862.58	21405
862.712	21237
862.844	21256
862.976	21447
863.108	21351
863.24	21545
863.372	21150
863.504	21321
863.636	21272
863.768	21230
863.9	21252
864.032	21310
864.164	21336
864.296	21230
864.428	21466
864.559	21275
864.691	21313
864.823	21298
864.954	21279
865.086	21161
865.217	21241
865.349	21123
865.48	21142
865.612	21157
865.743	21275
865.875	21157
866.006	21089
866.137	21302
866.269	21173
866.4	21188
866.531	21169
866.662	21150
866.793	21180
866.924	21119
867.055	21055
867.186	21066
867.317	21001
867.448	21058
867.579	21005
867.71	21058
867.841	21066
867.972	21146
868.103	20986
868.233	21127
868.364	21089
868.495	21245
868.625	21283
868.756	21374
868.886	21230
869.017	21332
869.147	21332
869.278	21431
869.408	21382
869.539	21310
869.669	21389
869.799	21370
869.929	21466
870.06	21401
870.19	21610
870.32	21667
870.45	21759
870.58	21644
870.71	21800
870.84	21759
870.97	21709
871.1	21675
871.23	21819
871.36	21857
871.489	21755
871.619	21846
871.749	21956
871.879	21934
872.008	21972
872.138	21918
872.267	21972
872.397	21709
872.526	21694
872.656	21717
872.785	21835
872.915	21937
873.044	22135
873.173	21884
873.303	21899
873.432	22017
873.561	21907
873.69	21884
873.819	22021
873.948	21979
874.077	21949
874.206	21854
874.335	21964
874.464	22112
874.593	22249
874.722	22128
874.851	22276
874.979	22112
875.108	22116
875.237	22116
875.365	22154
875.494	22074
875.623	22272
875.751	22143
875.88	22101
876.008	22265
876.136	22371
876.265	22516
876.393	22637
876.521	22592
876.65	22698
876.778	22599
876.906	22565
877.034	22554
877.162	22508
877.29	22375
877.418	22557
877.546	22573
877.674	22470
877.802	22569
877.93	22443
878.058	22443
878.185	22379
878.313	22413
878.441	22386
878.568	22246
878.696	22512
878.824	22523
878.951	22580
879.079	22504
879.206	22748
879.333	22729
879.461	22577
879.588	22588
879.715	22710
879.842	22881
879.97	22535
880.097	22402
880.224	22367
880.351	22371
880.478	22432
880.605	22150
880.732	22356
880.859	22508
880.986	22363
881.112	22356
881.239	22249
881.366	22048
881.493	21865
881.619	21903
881.746	21808
881.872	22021
881.999	21816
882.125	21762
882.252	22044
882.378	21857
882.505	22032
882.631	21800
882.757	21557
882.883	21679
883.01	21606
883.136	21637
883.262	21477
883.388	21439
883.514	21534
883.64	21557
883.766	21576
883.892	21256
884.018	21492
884.143	21488
884.269	21466
884.395	21344
884.52	21199
884.646	21188
884.772	21173
884.897	21093
885.023	21157
885.148	21237
885.274	21340
885.399	21416
885.524	21237
885.65	21195
885.775	21211
885.9	21214
886.025	21329
886.15	21260
886.275	21192
886.4	21150
886.525	21066
886.65	21161
886.775	21119
886.9	21332
887.025	21511
887.149	21195
887.274	21077
887.399	20975
887.523	21001
887.648	20986
887.773	20960
887.897	21218
888.021	21070
888.146	20838
888.27	21051
888.395	21001
888.519	20994
888.643	20899
888.767	20963
888.891	20994
889.015	20876
889.139	20963
889.263	20800
889.387	20910
889.511	20982
889.635	20944
889.759	20792
889.883	20819
890.006	20773
890.13	20842
890.254	20663
890.377	20743
890.501	20518
890.624	20442
890.748	20629
890.871	20355
890.995	20374
891.118	20385
891.241	20301
891.364	20339
891.488	20465
891.611	20377
891.734	20396
891.857	20507
891.98	20332
892.103	20351
892.226	20290
892.349	20259
892.471	20218
892.594	20206
892.717	20446
892.839	20191
892.962	20320
893.085	20309
893.207	20225
893.33	20073
893.452	20267
893.575	20282
893.697	20187
893.819	20408
893.941	20362
894.064	20298
894.186	20199
894.308	20161
894.43	20317
894.552	20423
894.674	20324
894.796	20206
894.918	20161
895.04	20161
895.161	20313
895.283	20320
895.405	20119
895.526	20187
895.648	20305
895.769	20256
895.891	20328
896.012	20324
896.134	20309
896.255	20275
896.376	20244
896.498	20164
896.619	20339
896.74	20248
896.861	20271
896.982	20385
897.103	20674
897.224	20507
897.345	20317
897.466	20404
897.587	20377
897.708	20606
897.828	20484
897.949	20465
898.07	20343
898.19	20358
898.311	20617
898.431	20408
898.552	20465
898.672	20579
898.792	20518
898.913	20419
899.033	20298
899.153	20240
899.273	20130
899.393	20202
899.513	20259
899.633	20183
899.753	20229
899.873	20183
899.993	20278
900.113	20081
900.232	20248
900.352	20103
900.472	20073
900.591	19967
900.711	19887
900.83	19894
900.95	20164
901.069	20092
901.189	19841
901.308	19742
901.427	19670
901.546	19590
901.665	19643
901.784	19533
901.904	19419
902.023	19354
902.141	19061
902.26	19012
902.379	19152
902.498	19133
902.617	19065
902.735	19050
902.854	19175
902.973	19053
903.091	18890
903.21	18829
903.328	18814
903.446	18616
903.565	18601
903.683	18528
903.801	18540
903.919	18589
904.038	18506
904.156	18391
904.274	18471
904.392	18323
904.51	18266
904.627	18311
904.745	18330
904.863	18429
904.981	18133
905.098	18041
905.216	18045
905.334	18045
905.451	17950
905.569	17863
905.686	18003
905.803	17961
905.921	17775
906.038	17824
906.155	17832
906.272	17649
906.389	17691
906.506	17478
906.623	17516
906.74	17608
906.857	17436
906.974	17417
907.091	17562
907.208	17653
907.324	17589
907.441	17349
907.557	17288
907.674	17231
907.79	17124
907.907	17181
908.023	17284
908.139	17197
908.256	17147
908.372	17105
908.488	17128
908.604	16938
908.72	16961
908.836	16987
908.952	17014
909.068	16953
909.184	17010
909.3	16930
909.415	16972
909.531	16900
909.647	16755
909.762	16641
909.878	16668
909.993	16725
910.108	16588
910.224	16561
910.339	16675
910.454	16470
910.57	16516
910.685	16436
910.8	16679
910.915	16622
911.03	16474
911.145	16356
911.259	16226
911.374	16299
911.489	16204
911.604	16002
911.718	15922
911.833	15964
911.947	15937
912.062	15789
912.176	15987
912.291	15991
912.405	15975
912.519	16303
912.633	16139
912.748	16013
912.862	15880
912.976	15804
913.09	15701
913.204	15793
913.318	15922
913.431	15876
913.545	15865
913.659	15880
913.772	15759
913.886	15648
914	15595
914.113	15663
914.226	15759
914.34	15728
914.453	15572
914.566	15595
914.68	15542
914.793	15363
914.906	15294
915.019	15173
915.132	15135
915.245	15249
915.358	15195
915.47	15237
915.583	15169
915.696	15203
915.809	15359
915.921	15355
916.034	15184
916.146	15051
916.259	15062
916.371	15214
916.483	15150
916.595	15036
916.708	15085
916.82	15055
916.932	14952
917.044	14971
917.156	14880
917.268	14838
917.38	14861
917.491	14891
917.603	14899
917.715	14868
917.826	14914
917.938	14788
918.049	14632
918.161	14781
918.272	14800
918.384	14994
918.495	14826
918.606	14682
918.717	14556
918.828	14644
918.939	14663
919.05	14564
919.161	14613
919.272	14336
919.383	14541
919.494	14636
919.604	14765
919.715	14583
919.826	14450
919.936	14598
920.047	14644
920.157	14488
920.267	14716
920.378	14659
920.488	14549
920.598	14720
920.708	14796
920.818	14697
920.928	14697
921.038	14956
921.148	14819
921.258	14503
921.368	14423
921.477	14286
921.587	14286
921.697	14221
921.806	14248
921.916	14233
922.025	14077
922.134	13997
922.244	13887
922.353	13883
922.462	13826
922.571	13795
922.68	13563
922.789	13537
922.898	13586
923.007	13544
923.116	13643
923.224	13594
923.333	13571
923.442	13400
923.55	13373
923.659	13426
923.767	13449
923.876	13438
923.984	13472
924.092	13244
924.201	13411
924.309	13278
924.417	13255
924.525	13247
924.633	13274
924.741	14012
924.849	13065
924.956	13160
925.064	13004
925.172	12970
925.279	12947
925.387	12996
925.494	13023
925.602	13160
925.709	13103
925.816	12916
925.924	12932
926.031	13031
926.138	13004
926.245	12977
926.352	12863
926.459	12935
926.566	13065
926.673	12920
926.779	12776
926.886	12768
926.993	12703
927.099	12612
927.206	12578
927.312	12601
927.419	12654
927.525	12528
927.631	12589
927.737	12479
927.843	12429
927.95	12285
928.056	12452
928.162	12399
928.267	12426
928.373	13137
928.479	12525
928.585	12273
928.69	12414
928.796	12292
928.901	12292
929.007	12209
929.112	12365
929.218	12262
929.323	12171
929.428	12102
929.533	12243
929.638	12076
929.743	12064
929.848	12133
929.953	12064
930.058	11904
930.163	11855
930.267	11809
930.372	11927
930.477	11752
930.581	12011
930.685	11821
930.79	11615
930.894	11703
930.998	11649
931.103	11824
931.207	11429
931.311	11391
931.415	11311
931.519	11048
931.623	11064
