Data from test_V78500241_2792.txt Node
Date: Fri Mar 25 15:29:18 CST 2022
User: usil
Spectrometer: V785-0024
Trigger mode: 0
Integration Time (sec): 4.000000E-1
Scans to average: 1
Nonlinearity correction enabled: false
Boxcar width: 0
Storing dark spectrum: false
XAxis mode: Wavelengths
Number of Pixels in Spectrum: 1024
>>>>>Begin Spectral Data<<<<<
801.071	27131
801.214	26975
801.356	26788
801.499	26804
801.641	26800
801.783	26689
801.926	26731
802.068	26701
802.211	26541
802.353	26571
802.496	26355
802.638	26305
802.78	26271
802.923	26301
803.065	26187
803.208	26237
803.35	26366
803.492	26393
803.635	26488
803.777	26202
803.919	26465
804.061	26807
804.204	26556
804.346	26412
804.488	26465
804.63	26507
804.773	26393
804.915	26393
805.057	26655
805.199	26511
805.341	26434
805.483	26602
805.626	26518
805.768	26347
805.91	26537
806.052	26564
806.194	26530
806.336	26750
806.478	26583
806.62	26537
806.762	26545
806.904	26720
807.046	26990
807.188	27062
807.33	26944
807.472	26967
807.614	26918
807.756	26902
807.898	26743
808.04	26739
808.182	26811
808.324	26788
808.465	26868
808.607	27036
808.749	27176
808.891	27180
809.033	27344
809.174	27241
809.316	27119
809.458	27093
809.6	27074
809.741	27218
809.883	27291
810.025	27412
810.166	27557
810.308	27492
810.45	27526
810.591	27233
810.733	27085
810.875	27161
811.016	27032
811.158	27142
811.299	27207
811.441	27336
811.582	27374
811.724	27138
811.865	27161
812.007	27127
812.148	26998
812.29	27195
812.431	27275
812.573	27431
812.714	27599
812.855	27606
812.997	27778
813.138	27914
813.279	27800
813.421	27709
813.562	27751
813.703	27443
813.845	27294
813.986	26979
814.127	26876
814.268	26876
814.41	26815
814.551	26686
814.692	26834
814.833	26777
814.974	26819
815.115	26762
815.256	26632
815.397	26765
815.539	26724
815.68	26594
815.821	26488
815.962	26606
816.103	26583
816.244	26427
816.385	26404
816.526	26336
816.666	26130
816.807	25966
816.948	26172
817.089	26248
817.23	26100
817.371	26058
817.512	26096
817.653	26043
817.793	25890
817.934	26058
818.075	26187
818.216	25970
818.356	26043
818.497	25822
818.638	25814
818.778	25822
818.919	25852
819.06	25753
819.2	25966
819.341	26122
819.481	26012
819.622	26206
819.762	26415
819.903	26415
820.043	26294
820.184	26119
820.324	26145
820.465	26180
820.605	26088
820.746	26225
820.886	26153
821.026	26183
821.167	26058
821.307	26073
821.447	26073
821.588	25936
821.728	26073
821.868	25674
822.008	25506
822.149	25479
822.289	25479
822.429	25221
822.569	25270
822.709	25164
822.849	25015
822.99	25023
823.13	25057
823.27	25023
823.41	24772
823.55	24730
823.69	24817
823.83	24958
823.97	24829
824.11	24688
824.25	24570
824.389	24692
824.529	24631
824.669	24688
824.809	24726
824.949	24677
825.089	24821
825.228	24635
825.368	24566
825.508	24509
825.648	24601
825.787	24471
825.927	24612
826.067	24528
826.206	24456
826.346	24661
826.485	24654
826.625	24521
826.765	24650
826.904	24559
827.044	24258
827.183	24232
827.323	24144
827.462	24311
827.601	24327
827.741	24285
827.88	24201
828.02	24254
828.159	24095
828.298	24315
828.437	24334
828.577	24194
828.716	24277
828.855	24178
828.994	23870
829.134	23950
829.273	23950
829.412	23912
829.551	23908
829.69	23931
829.829	23961
829.968	24186
830.107	24053
830.246	23954
830.385	23859
830.524	23764
830.663	23726
830.802	23684
830.941	23410
831.08	23543
831.219	23600
831.357	23577
831.496	23798
831.635	23554
831.774	23509
831.913	23269
832.051	23497
832.19	23284
832.329	23284
832.467	23162
832.606	23117
832.744	23143
832.883	23189
833.022	23189
833.16	23292
833.299	23269
833.437	23174
833.576	23315
833.714	23200
833.852	23288
833.991	23235
834.129	23216
834.267	23265
834.406	23242
834.544	23265
834.682	23307
834.821	23311
834.959	23326
835.097	23083
835.235	23349
835.373	23208
835.511	23353
835.65	23220
835.788	23113
835.926	23079
836.064	22862
836.202	22923
836.34	22980
836.478	23181
836.615	23143
836.753	23147
836.891	23136
837.029	23174
837.167	23029
837.305	23041
837.443	22995
837.58	22801
837.718	23014
837.856	22938
837.993	22904
838.131	22991
838.269	22866
838.406	22900
838.544	22831
838.681	22577
838.819	22588
838.956	22478
839.094	22573
839.231	22485
839.369	22599
839.506	22877
839.643	22710
839.781	22375
839.918	22272
840.055	22432
840.193	22348
840.33	22322
840.467	22386
840.604	22478
840.742	22691
840.879	22363
841.016	22287
841.153	22276
841.29	22432
841.427	22314
841.564	22421
841.701	22443
841.838	22322
841.975	22394
842.112	22287
842.249	22105
842.385	22116
842.522	22451
842.659	22310
842.796	22086
842.933	22124
843.069	22101
843.206	22109
843.343	22207
843.479	22120
843.616	22154
843.752	21941
843.889	22021
844.025	22013
844.162	21884
844.298	21964
844.435	21926
844.571	21876
844.708	21975
844.844	21941
844.98	22017
845.117	21915
845.253	21766
845.389	21720
845.525	21812
845.661	21827
845.798	21679
845.934	21739
846.07	21587
846.206	21561
846.342	21629
846.478	21549
846.614	21488
846.75	21260
846.886	21348
847.022	21424
847.158	21500
847.294	21500
847.429	21485
847.565	21405
847.701	21637
847.837	21169
847.972	21062
848.108	21127
848.244	21226
848.379	21024
848.515	20952
848.65	20906
848.786	20921
848.921	20944
849.057	21112
849.192	21051
849.328	21085
849.463	21062
849.598	20842
849.734	20876
849.869	20876
850.004	20712
850.14	20731
850.275	20785
850.41	20629
850.545	20655
850.68	20667
850.815	20686
850.95	20765
851.085	20899
851.22	20857
851.355	20769
851.49	20648
851.625	20731
851.76	20773
851.895	20727
852.03	20762
852.165	20754
852.299	20754
852.434	20872
852.569	20849
852.703	20640
852.838	20861
852.973	20902
853.107	20807
853.242	20571
853.376	20606
853.511	20412
853.645	20454
853.78	20651
853.914	20594
854.048	20530
854.183	20545
854.317	20590
854.451	20743
854.585	20503
854.72	20648
854.854	20625
854.988	20598
855.122	20469
855.256	20427
855.39	20499
855.524	20533
855.658	20583
855.792	20609
855.926	20609
856.06	20568
856.194	20648
856.327	20518
856.461	20514
856.595	20454
856.729	20465
856.862	20705
856.996	20560
857.13	20629
857.263	20682
857.397	20568
857.53	20541
857.664	20648
857.797	20571
857.931	20674
858.064	20594
858.197	20804
858.331	20495
858.464	20617
858.597	20415
858.731	20552
858.864	20492
858.997	20492
859.13	20651
859.263	20571
859.396	20670
859.529	20450
859.662	20659
859.795	20518
859.928	20537
860.061	20674
860.194	20686
860.327	20594
860.46	20541
860.592	20648
860.725	20667
860.858	20625
860.99	20530
861.123	20484
861.256	20655
861.388	20674
861.521	21325
861.653	20454
861.786	20298
861.918	20431
862.05	20362
862.183	20457
862.315	20594
862.447	20552
862.58	20457
862.712	20244
862.844	20298
862.976	20419
863.108	20412
863.24	20838
863.372	20218
863.504	20240
863.636	20320
863.768	20252
863.9	20282
864.032	20218
864.164	20214
864.296	20267
864.428	20404
864.559	20412
864.691	20408
864.823	20271
864.954	20290
865.086	20259
865.217	20176
865.349	20039
865.48	20218
865.612	20267
865.743	20389
865.875	20069
866.006	20096
866.137	20180
866.269	20244
866.4	20164
866.531	20111
866.662	20130
866.793	20210
866.924	20157
867.055	20214
867.186	20031
867.317	20100
867.448	19947
867.579	20020
867.71	20119
867.841	19993
867.972	20084
868.103	20031
868.233	20153
868.364	20218
868.495	20134
868.625	20275
868.756	20503
868.886	20301
869.017	20317
869.147	20488
869.278	20404
869.408	20431
869.539	20347
869.669	20522
869.799	20495
869.929	20434
870.06	20442
870.19	20705
870.32	20785
870.45	20750
870.58	20674
870.71	20849
870.84	20845
870.97	20689
871.1	20731
871.23	21062
871.36	20937
871.489	20815
871.619	20982
871.749	21024
871.879	20918
872.008	21020
872.138	20952
872.267	21020
872.397	20895
872.526	20925
872.656	20807
872.785	20815
872.915	20994
873.044	21055
873.173	20967
873.303	21108
873.432	20967
873.561	20990
873.69	20986
873.819	21001
873.948	21058
874.077	20998
874.206	20960
874.335	20914
874.464	21005
874.593	21245
874.722	21268
874.851	21176
874.979	21336
875.108	21348
875.237	21252
875.365	21089
875.494	21241
875.623	21218
875.751	21207
875.88	21268
876.008	21405
876.136	21412
876.265	21671
876.393	21717
876.521	21804
876.65	21641
876.778	21736
876.906	21724
877.034	21595
877.162	21530
877.29	21564
877.418	21545
877.546	21671
877.674	21614
877.802	21618
877.93	21515
878.058	21587
878.185	21397
878.313	21538
878.441	21610
878.568	21317
878.696	21530
878.824	21450
878.951	21614
879.079	21762
879.206	21846
879.333	21747
879.461	21603
879.588	21698
879.715	21766
879.842	21804
879.97	21751
880.097	21450
880.224	21435
880.351	21351
880.478	21443
880.605	21397
880.732	21576
880.859	21625
880.986	21378
881.112	21443
881.239	21359
881.366	21161
881.493	21043
881.619	21047
881.746	21100
881.872	21043
881.999	20963
882.125	20933
882.252	20960
882.378	20963
882.505	21066
882.631	20830
882.757	20796
882.883	20762
883.01	20739
883.136	20667
883.262	20583
883.388	20480
883.514	20735
883.64	20708
883.766	20655
883.892	20438
884.018	20552
884.143	20663
884.269	20750
884.395	20469
884.52	20461
884.646	20488
884.772	20275
884.897	20309
885.023	20393
885.148	20438
885.274	20488
885.399	20419
885.524	20347
885.65	20355
885.775	20328
885.9	20362
886.025	20644
886.15	20362
886.275	20305
886.4	20282
886.525	20343
886.65	20400
886.775	20282
886.9	20412
887.025	20507
887.149	20309
887.274	20214
887.399	20168
887.523	20119
887.648	20062
887.773	20065
887.897	20263
888.021	20237
888.146	20073
888.27	20199
888.395	20282
888.519	20130
888.643	20058
888.767	20157
888.891	20035
889.015	20024
889.139	20031
889.263	19925
889.387	19970
889.511	20122
889.635	19978
889.759	19970
889.883	19963
890.006	19875
890.13	20084
890.254	19753
890.377	19860
890.501	19788
890.624	19757
890.748	19708
890.871	19655
890.995	19518
891.118	19518
891.241	19540
891.364	19563
891.488	19559
891.611	19533
891.734	19578
891.857	19556
891.98	19445
892.103	19506
892.226	19571
892.349	19537
892.471	19266
892.594	19468
892.717	19426
892.839	19335
892.962	19415
893.085	19556
893.207	19460
893.33	19320
893.452	19263
893.575	19441
893.697	19365
893.819	19567
893.941	19655
894.064	19594
894.186	19445
894.308	19460
894.43	19521
894.552	19601
894.674	19514
894.796	19403
894.918	19331
895.04	19400
895.161	19514
895.283	19537
895.405	19350
895.526	19434
895.648	19422
895.769	19514
895.891	19499
896.012	19620
896.134	19438
896.255	19441
896.376	19483
896.498	19590
896.619	19468
896.74	19491
896.861	19434
896.982	19833
897.103	19963
897.224	19727
897.345	19613
897.466	19609
897.587	19685
897.708	19757
897.828	19677
897.949	19613
898.07	19601
898.19	19499
898.311	19685
898.431	19563
898.552	19704
898.672	19761
898.792	19628
898.913	19696
899.033	19590
899.153	19556
899.273	19346
899.393	19362
899.513	19430
899.633	19430
899.753	19430
899.873	19407
899.993	19495
900.113	19365
900.232	19403
900.352	19381
900.472	19312
900.591	19236
900.711	19381
900.83	19183
900.95	19304
901.069	19282
901.189	19099
901.308	18810
901.427	18795
901.546	18878
901.665	18878
901.784	18829
901.904	18658
902.023	18639
902.141	18437
902.26	18296
902.379	18513
902.498	18330
902.617	18346
902.735	18372
902.854	18369
902.973	18350
903.091	18114
903.21	18026
903.328	18045
903.446	17980
903.565	17836
903.683	17893
903.801	17722
903.919	17832
904.038	17691
904.156	17562
904.274	17760
904.392	17539
904.51	17573
904.627	17684
904.745	17627
904.863	17570
904.981	17387
905.098	17246
905.216	17269
905.334	17406
905.451	17311
905.569	17231
905.686	17353
905.803	17280
905.921	17090
906.038	17033
906.155	17075
906.272	16946
906.389	17003
906.506	16778
906.623	16850
906.74	16668
906.857	16675
906.974	16717
907.091	16797
907.208	16972
907.324	16793
907.441	16759
907.557	16618
907.674	16527
907.79	16462
907.907	16466
908.023	16630
908.139	16455
908.256	16462
908.372	16405
908.488	16421
908.604	16299
908.72	16234
908.836	16295
908.952	16200
909.068	16276
909.184	16409
909.3	16166
909.415	16284
909.531	16234
909.647	16067
909.762	16067
909.878	16017
909.993	15911
910.108	15968
910.224	15846
910.339	15994
910.454	15895
910.57	15907
910.685	15789
910.8	16051
910.915	15994
911.03	15759
911.145	15553
911.259	15629
911.374	15580
911.489	15515
911.604	15431
911.718	15332
911.833	15344
911.947	15332
912.062	15169
912.176	15302
912.291	15447
912.405	15317
912.519	15534
912.633	15591
912.748	15420
912.862	15336
912.976	15142
913.09	14971
913.204	15081
913.318	15214
913.431	15317
913.545	15195
913.659	15233
913.772	15150
913.886	14994
914	14986
914.113	15089
914.226	15013
914.34	15043
914.453	14845
914.566	15062
914.68	14838
914.793	14830
914.906	14663
915.019	14575
915.132	14545
915.245	14598
915.358	14674
915.47	14670
915.583	14545
915.696	14499
915.809	14594
915.921	14590
916.034	14511
916.146	14480
916.259	14461
916.371	14674
916.483	14537
916.595	14415
916.708	14488
916.82	14423
916.932	14389
917.044	14317
917.156	14298
917.268	14252
917.38	14278
917.491	14172
917.603	14301
917.715	14286
917.826	14408
917.938	14263
918.049	14176
918.161	14126
918.272	14298
918.384	14317
918.495	14233
918.606	14088
918.717	13902
918.828	14058
918.939	13997
919.05	13909
919.161	13970
919.272	13826
919.383	13928
919.494	14115
919.604	14195
919.715	14039
919.826	13936
919.936	14031
920.047	14062
920.157	14062
920.267	14244
920.378	14039
920.488	13925
920.598	14206
920.708	14248
920.818	14100
920.928	14149
921.038	14282
921.148	14278
921.258	14012
921.368	13898
921.477	13822
921.587	13681
921.697	13750
921.806	13685
921.916	13597
922.025	13445
922.134	13377
922.244	13350
922.353	13449
922.462	13274
922.571	13179
922.68	13107
922.789	13099
922.898	13038
923.007	13015
923.116	13099
923.224	13057
923.333	13061
923.442	12901
923.55	12882
923.659	12916
923.767	12897
923.876	12856
923.984	12882
924.092	12760
924.201	12837
924.309	12848
924.417	12875
924.525	12707
924.633	12745
924.741	13502
924.849	12574
924.956	12726
925.064	12582
925.172	12464
925.279	12403
925.387	12601
925.494	12521
925.602	12551
925.709	12559
925.816	12342
925.924	12410
926.031	12551
926.138	12418
926.245	12433
926.352	12369
926.459	12525
926.566	12547
926.673	12395
926.779	12304
926.886	12315
926.993	12121
927.099	12049
927.206	12034
927.312	11958
927.419	12106
927.525	12125
927.631	12053
927.737	12087
927.843	11866
927.95	11843
928.056	11885
928.162	11958
928.267	12026
928.373	12540
928.479	11901
928.585	11771
928.69	11863
928.796	11908
928.901	11794
929.007	11649
929.112	11775
929.218	11748
929.323	11661
929.428	11608
929.533	11752
929.638	11592
929.743	11596
929.848	11646
929.953	11619
930.058	11493
930.163	11311
930.267	11360
930.372	11543
930.477	11356
930.581	11566
930.685	11398
930.79	11261
930.894	11265
930.998	11265
931.103	11334
931.207	10927
931.311	10968
931.415	10809
931.519	10561
931.623	10645
