Data from test_V78500241_2741.txt Node
Date: Fri Mar 25 15:28:56 CST 2022
User: usil
Spectrometer: V785-0024
Trigger mode: 0
Integration Time (sec): 4.000000E-1
Scans to average: 1
Nonlinearity correction enabled: false
Boxcar width: 0
Storing dark spectrum: false
XAxis mode: Wavelengths
Number of Pixels in Spectrum: 1024
>>>>>Begin Spectral Data<<<<<
801.071	27131
801.214	27036
801.356	26895
801.499	26952
801.641	26807
801.783	26758
801.926	26785
802.068	26746
802.211	26598
802.353	26575
802.496	26419
802.638	26385
802.78	26271
802.923	26415
803.065	26214
803.208	26294
803.35	26336
803.492	26415
803.635	26488
803.777	26317
803.919	26530
804.061	26929
804.204	26583
804.346	26537
804.488	26518
804.63	26480
804.773	26370
804.915	26568
805.057	26545
805.199	26530
805.341	26499
805.483	26826
805.626	26746
805.768	26423
805.91	26613
806.052	26716
806.194	26606
806.336	26933
806.478	26537
806.62	26655
806.762	26731
806.904	26796
807.046	27062
807.188	26960
807.33	27009
807.472	27070
807.614	26823
807.756	26986
807.898	26899
808.04	26811
808.182	26819
808.324	26899
808.465	27062
808.607	27066
808.749	27188
808.891	27252
809.033	27336
809.174	27180
809.316	27142
809.458	27245
809.6	27195
809.741	27401
809.883	27344
810.025	27466
810.166	27447
810.308	27420
810.45	27378
810.591	27348
810.733	27226
810.875	27173
811.016	27043
811.158	27047
811.299	27260
811.441	27374
811.582	27260
811.724	27142
811.865	27203
812.007	27039
812.148	27066
812.29	27298
812.431	27374
812.573	27534
812.714	27481
812.855	27553
812.997	27762
813.138	27873
813.279	27804
813.421	27614
813.562	27534
813.703	27466
813.845	27435
813.986	26990
814.127	26979
814.268	26861
814.41	26845
814.551	26823
814.692	26975
814.833	26689
814.974	26842
815.115	26876
815.256	26720
815.397	26625
815.539	26705
815.68	26659
815.821	26530
815.962	26621
816.103	26537
816.244	26423
816.385	26518
816.526	26294
816.666	26263
816.807	26103
816.948	26164
817.089	26107
817.23	26069
817.371	26012
817.512	26073
817.653	26119
817.793	26001
817.934	26142
818.075	26157
818.216	26065
818.356	26088
818.497	26031
818.638	25852
818.778	25864
818.919	25841
819.06	25807
819.2	26012
819.341	26164
819.481	26103
819.622	26130
819.762	26549
819.903	26256
820.043	26199
820.184	26206
820.324	26252
820.465	26309
820.605	26240
820.746	26100
820.886	26016
821.026	26290
821.167	26126
821.307	26142
821.447	26077
821.588	25932
821.728	25742
821.868	25719
822.008	25624
822.149	25586
822.289	25430
822.429	25377
822.569	25225
822.709	25088
822.849	25076
822.99	25175
823.13	25080
823.27	24935
823.41	24905
823.55	24707
823.69	24973
823.83	24848
823.97	24935
824.11	24536
824.25	24574
824.389	24620
824.529	24741
824.669	24642
824.809	24776
824.949	24764
825.089	24795
825.228	24677
825.368	24452
825.508	24513
825.648	24639
825.787	24563
825.927	24722
826.067	24555
826.206	24517
826.346	24551
826.485	24547
826.625	24532
826.765	24620
826.904	24612
827.044	24323
827.183	24456
827.323	24270
827.462	24399
827.601	24133
827.741	24281
827.88	24262
828.02	24030
828.159	24323
828.298	24308
828.437	24273
828.577	24083
828.716	24369
828.855	24076
828.994	24011
829.134	24022
829.273	23950
829.412	23980
829.551	23931
829.69	23996
829.829	24003
829.968	24209
830.107	23984
830.246	23992
830.385	23973
830.524	23863
830.663	23794
830.802	23790
830.941	23592
831.08	23414
831.219	23718
831.357	23596
831.496	23836
831.635	23611
831.774	23463
831.913	23398
832.051	23341
832.19	23379
832.329	23364
832.467	23250
832.606	23181
832.744	23250
832.883	23200
833.022	23284
833.16	23223
833.299	23159
833.437	23379
833.576	23356
833.714	23360
833.852	23349
833.991	23315
834.129	23402
834.267	23376
834.406	23337
834.544	23280
834.682	23436
834.821	23185
834.959	23501
835.097	23197
835.235	23398
835.373	23265
835.511	23299
835.65	23204
835.788	23178
835.926	23124
836.064	22869
836.202	22999
836.34	23265
836.478	23254
836.615	23140
836.753	23178
836.891	23121
837.029	23140
837.167	23064
837.305	23052
837.443	23113
837.58	23018
837.718	23052
837.856	23109
837.993	22976
838.131	23048
838.269	22797
838.406	22942
838.544	22866
838.681	22649
838.819	22713
838.956	22561
839.094	22398
839.231	22550
839.369	22717
839.506	22915
839.643	22759
839.781	22557
839.918	22379
840.055	22516
840.193	22508
840.33	22356
840.467	22504
840.604	22451
840.742	22740
840.879	22318
841.016	22371
841.153	22299
841.29	22443
841.427	22417
841.564	22451
841.701	22398
841.838	22428
841.975	22280
842.112	22352
842.249	22219
842.385	22272
842.522	22447
842.659	22371
842.796	22188
842.933	22280
843.069	22131
843.206	22074
843.343	22188
843.479	22166
843.616	22223
843.752	22067
843.889	21922
844.025	22120
844.162	21835
844.298	22048
844.435	21907
844.571	21926
844.708	22021
844.844	22131
844.98	22078
845.117	21926
845.253	21869
845.389	21797
845.525	21968
845.661	21770
845.798	21736
845.934	21614
846.07	21694
846.206	21751
846.342	21861
846.478	21675
846.614	21500
846.75	21401
846.886	21386
847.022	21393
847.158	21500
847.294	21473
847.429	21389
847.565	21389
847.701	21648
847.837	21207
847.972	20944
848.108	21218
848.244	21100
848.379	21058
848.515	21096
848.65	21077
848.786	21108
848.921	21028
849.057	21096
849.192	21017
849.328	21119
849.463	21024
849.598	20971
849.734	20868
849.869	20762
850.004	20754
850.14	20902
850.275	20887
850.41	20697
850.545	20625
850.68	20712
850.815	20804
850.95	20750
851.085	20948
851.22	20960
851.355	20781
851.49	20887
851.625	20746
851.76	20861
851.895	20731
852.03	20674
852.165	20804
852.299	20667
852.434	20788
852.569	20842
852.703	20781
852.838	20887
852.973	20910
853.107	20994
853.242	20739
853.376	20735
853.511	20484
853.645	20495
853.78	20807
853.914	20644
854.048	20579
854.183	20590
854.317	20701
854.451	20785
854.585	20579
854.72	20602
854.854	20716
854.988	20583
855.122	20640
855.256	20579
855.39	20560
855.524	20716
855.658	20670
855.792	20571
855.926	20689
856.06	20682
856.194	20788
856.327	20606
856.461	20495
856.595	20545
856.729	20552
856.862	20731
856.996	20788
857.13	20670
857.263	20682
857.397	20678
857.53	20488
857.664	20644
857.797	20674
857.931	20663
858.064	20617
858.197	20693
858.331	20617
858.464	20560
858.597	20480
858.731	20598
858.864	20522
858.997	20492
859.13	20613
859.263	20686
859.396	20678
859.529	20594
859.662	20613
859.795	20480
859.928	20678
860.061	20781
860.194	20785
860.327	20606
860.46	20727
860.592	20788
860.725	20838
860.858	20727
860.99	20655
861.123	20587
861.256	20541
861.388	20617
861.521	21252
861.653	20465
861.786	20434
861.918	20461
862.05	20537
862.183	20556
862.315	20583
862.447	20492
862.58	20492
862.712	20309
862.844	20301
862.976	20370
863.108	20431
863.24	20762
863.372	20267
863.504	20278
863.636	20221
863.768	20351
863.9	20263
864.032	20282
864.164	20206
864.296	20301
864.428	20473
864.559	20469
864.691	20396
864.823	20290
864.954	20324
865.086	20218
865.217	20294
865.349	20134
865.48	20008
865.612	20210
865.743	20301
865.875	20313
866.006	20111
866.137	20248
866.269	20077
866.4	20229
866.531	20244
866.662	20157
866.793	20096
866.924	20176
867.055	20206
867.186	20100
867.317	20107
867.448	20153
867.579	20172
867.71	20183
867.841	20084
867.972	20199
868.103	20191
868.233	20282
868.364	20206
868.495	20229
868.625	20511
868.756	20450
868.886	20408
869.017	20461
869.147	20541
869.278	20469
869.408	20275
869.539	20396
869.669	20450
869.799	20552
869.929	20514
870.06	20480
870.19	20724
870.32	20632
870.45	20663
870.58	20830
870.71	20906
870.84	20883
870.97	20838
871.1	20834
871.23	20937
871.36	20975
871.489	20925
871.619	20990
871.749	21058
871.879	21062
872.008	21169
872.138	21062
872.267	21028
872.397	20834
872.526	20826
872.656	20781
872.785	21017
872.915	21009
873.044	21176
873.173	21173
873.303	21070
873.432	21116
873.561	21005
873.69	21062
873.819	21066
873.948	21173
874.077	20994
874.206	21009
874.335	20956
874.464	21176
874.593	21344
874.722	21260
874.851	21249
874.979	21287
875.108	21450
875.237	21260
875.365	21192
875.494	21298
875.623	21298
875.751	21294
875.88	21237
876.008	21401
876.136	21466
876.265	21709
876.393	21789
876.521	21724
876.65	21698
876.778	21701
876.906	21614
877.034	21599
877.162	21667
877.29	21542
877.418	21618
877.546	21641
877.674	21614
877.802	21591
877.93	21675
878.058	21557
878.185	21553
878.313	21667
878.441	21705
878.568	21458
878.696	21523
878.824	21732
878.951	21709
879.079	21625
879.206	21861
879.333	21774
879.461	21698
879.588	21869
879.715	21762
879.842	21915
879.97	21705
880.097	21340
880.224	21469
880.351	21557
880.478	21496
880.605	21420
880.732	21435
880.859	21724
880.986	21401
881.112	21519
881.239	21287
881.366	21272
881.493	21070
881.619	21089
881.746	20963
881.872	21032
881.999	21081
882.125	20994
882.252	20971
882.378	21116
882.505	21085
882.631	20906
882.757	20750
882.883	20754
883.01	20765
883.136	20663
883.262	20705
883.388	20648
883.514	20606
883.64	20724
883.766	20686
883.892	20408
884.018	20457
884.143	20720
884.269	20853
884.395	20412
884.52	20415
884.646	20450
884.772	20301
884.897	20240
885.023	20351
885.148	20396
885.274	20629
885.399	20522
885.524	20408
885.65	20415
885.775	20412
885.9	20412
886.025	20495
886.15	20530
886.275	20454
886.4	20290
886.525	20275
886.65	20233
886.775	20240
886.9	20427
887.025	20568
887.149	20336
887.274	20294
887.399	20161
887.523	20168
887.648	20237
887.773	20077
887.897	20237
888.021	20202
888.146	20012
888.27	20347
888.395	20259
888.519	20191
888.643	20206
888.767	20157
888.891	20054
889.015	19959
889.139	20062
889.263	19890
889.387	20161
889.511	20119
889.635	20031
889.759	19963
889.883	19925
890.006	20054
890.13	19989
890.254	19830
890.377	19879
890.501	19761
890.624	19693
890.748	19818
890.871	19708
890.995	19578
891.118	19529
891.241	19521
891.364	19506
891.488	19666
891.611	19597
891.734	19651
891.857	19696
891.98	19476
892.103	19700
892.226	19651
892.349	19510
892.471	19369
892.594	19464
892.717	19468
892.839	19426
892.962	19510
893.085	19632
893.207	19415
893.33	19381
893.452	19362
893.575	19518
893.697	19457
893.819	19613
893.941	19753
894.064	19616
894.186	19304
894.308	19407
894.43	19563
894.552	19719
894.674	19548
894.796	19411
894.918	19438
895.04	19430
895.161	19502
895.283	19510
895.405	19407
895.526	19441
895.648	19384
895.769	19590
895.891	19567
896.012	19613
896.134	19590
896.255	19457
896.376	19464
896.498	19487
896.619	19502
896.74	19613
896.861	19483
896.982	19841
897.103	19906
897.224	19826
897.345	19761
897.466	19616
897.587	19700
897.708	19822
897.828	19750
897.949	19651
898.07	19681
898.19	19696
898.311	19871
898.431	19632
898.552	19742
898.672	19674
898.792	19803
898.913	19712
899.033	19590
899.153	19460
899.273	19426
899.393	19499
899.513	19613
899.633	19400
899.753	19373
899.873	19411
899.993	19464
900.113	19362
900.232	19460
900.352	19453
900.472	19221
900.591	19293
900.711	19236
900.83	19209
900.95	19373
901.069	19388
901.189	19213
901.308	18954
901.427	18837
901.546	18909
901.665	18722
901.784	18814
901.904	18700
902.023	18681
902.141	18517
902.26	18445
902.379	18414
902.498	18395
902.617	18372
902.735	18502
902.854	18380
902.973	18270
903.091	18045
903.21	18022
903.328	18057
903.446	18053
903.565	17878
903.683	17874
903.801	17703
903.919	17798
904.038	17813
904.156	17627
904.274	17627
904.392	17676
904.51	17627
904.627	17646
904.745	17577
904.863	17665
904.981	17493
905.098	17258
905.216	17345
905.334	17318
905.451	17360
905.569	17223
905.686	17265
905.803	17288
905.921	17147
906.038	17200
906.155	17071
906.272	16976
906.389	17003
906.506	16934
906.623	16786
906.74	16816
906.857	16767
906.974	16691
907.091	16831
907.208	16965
907.324	16968
907.441	16778
907.557	16607
907.674	16584
907.79	16367
907.907	16554
908.023	16611
908.139	16599
908.256	16546
908.372	16489
908.488	16451
908.604	16276
908.72	16314
908.836	16272
908.952	16333
909.068	16360
909.184	16455
909.3	16333
909.415	16314
909.531	16280
909.647	15972
909.762	16013
909.878	15907
909.993	16082
910.108	15937
910.224	15949
910.339	16032
910.454	15888
910.57	15861
910.685	15778
910.8	16063
910.915	15937
911.03	15797
911.145	15698
911.259	15606
911.374	15682
911.489	15534
911.604	15443
911.718	15374
911.833	15340
911.947	15313
912.062	15211
912.176	15378
912.291	15374
912.405	15428
912.519	15660
912.633	15542
912.748	15466
912.862	15298
912.976	15154
913.09	15142
913.204	15142
913.318	15169
913.431	15188
913.545	15298
913.659	15272
913.772	15127
913.886	15013
914	14994
914.113	15119
914.226	15157
914.34	15077
914.453	14868
914.566	15104
914.68	14937
914.793	14902
914.906	14670
915.019	14579
915.132	14541
915.245	14587
915.358	14602
915.47	14640
915.583	14598
915.696	14484
915.809	14636
915.921	14743
916.034	14514
916.146	14507
916.259	14480
916.371	14610
916.483	14549
916.595	14526
916.708	14579
916.82	14412
916.932	14476
917.044	14446
917.156	14446
917.268	14267
917.38	14305
917.491	14263
917.603	14237
917.715	14347
917.826	14389
917.938	14221
918.049	14164
918.161	14100
918.272	14419
918.384	14275
918.495	14233
918.606	14054
918.717	13967
918.828	14024
918.939	14062
919.05	13997
919.161	14062
919.272	13841
919.383	13944
919.494	14134
919.604	14225
919.715	14062
919.826	13959
919.936	14081
920.047	13932
920.157	14024
920.267	14176
920.378	14012
920.488	14043
920.598	14134
920.708	14317
920.818	14199
920.928	14153
921.038	14256
921.148	14286
921.258	13978
921.368	13890
921.477	13788
921.587	13776
921.697	13559
921.806	13765
921.916	13613
922.025	13491
922.134	13464
922.244	13377
922.353	13411
922.462	13346
922.571	13221
922.68	13129
922.789	13122
922.898	13126
923.007	13031
923.116	13122
923.224	13012
923.333	12985
923.442	12920
923.55	12875
923.659	13057
923.767	12935
923.876	12814
923.984	12947
924.092	12837
924.201	12844
924.309	12829
924.417	12894
924.525	12696
924.633	12757
924.741	13620
924.849	12574
924.956	12642
925.064	12593
925.172	12532
925.279	12506
925.387	12498
925.494	12570
925.602	12711
925.709	12612
925.816	12441
925.924	12418
926.031	12502
926.138	12369
926.245	12502
926.352	12353
926.459	12426
926.566	12597
926.673	12414
926.779	12258
926.886	12220
926.993	12159
927.099	12186
927.206	12072
927.312	12007
927.419	12148
927.525	12140
927.631	12121
927.737	11935
927.843	11954
927.95	11882
928.056	11939
928.162	11866
928.267	11984
928.373	12585
928.479	12034
928.585	11752
928.69	11901
928.796	11939
928.901	11805
929.007	11653
929.112	11908
929.218	11786
929.323	11703
929.428	11653
929.533	11802
929.638	11562
929.743	11608
929.848	11680
929.953	11566
930.058	11448
930.163	11356
930.267	11345
930.372	11433
930.477	11307
930.581	11493
930.685	11463
930.79	11258
930.894	11284
930.998	11242
931.103	11315
931.207	10995
931.311	10930
931.415	10908
931.519	10771
931.623	10649
