Data from test_V78500241_817.txt Node
Date: Fri Mar 25 15:15:32 CST 2022
User: usil
Spectrometer: V785-0024
Trigger mode: 0
Integration Time (sec): 4.000000E-1
Scans to average: 1
Nonlinearity correction enabled: false
Boxcar width: 0
Storing dark spectrum: false
XAxis mode: Wavelengths
Number of Pixels in Spectrum: 1024
>>>>>Begin Spectral Data<<<<<
801.071	28295
801.214	28265
801.356	28048
801.499	28040
801.641	27797
801.783	28002
801.926	27755
802.068	27888
802.211	27717
802.353	27580
802.496	27591
802.638	27610
802.78	27599
802.923	27473
803.065	27500
803.208	27492
803.35	27408
803.492	27656
803.635	27542
803.777	27523
803.919	27618
804.061	28063
804.204	27743
804.346	27751
804.488	27485
804.63	27686
804.773	27534
804.915	27690
805.057	27854
805.199	27728
805.341	27736
805.483	27918
805.626	27865
805.768	27690
805.91	27876
806.052	27960
806.194	27755
806.336	28048
806.478	27857
806.62	27960
806.762	27930
806.904	28177
807.046	28299
807.188	28310
807.33	28280
807.472	28341
807.614	28158
807.756	28253
807.898	28238
808.04	28063
808.182	28086
808.324	28322
808.465	28177
808.607	28398
808.749	28489
808.891	28630
809.033	28706
809.174	28618
809.316	28611
809.458	28557
809.6	28580
809.741	28573
809.883	28656
810.025	28675
810.166	28873
810.308	28854
810.45	28725
810.591	28854
810.733	28557
810.875	28584
811.016	28603
811.158	28363
811.299	28538
811.441	28683
811.582	28634
811.724	28603
811.865	28493
812.007	28603
812.148	28557
812.29	28675
812.431	28733
812.573	28946
812.714	28953
812.855	29151
812.997	29067
813.138	29436
813.279	29341
813.421	29178
813.562	28999
813.703	29033
813.845	28797
813.986	28519
814.127	28382
814.268	28303
814.41	28280
814.551	28215
814.692	28310
814.833	28249
814.974	28192
815.115	28253
815.256	28120
815.397	28112
815.539	28188
815.68	28120
815.821	27945
815.962	27998
816.103	27979
816.244	27991
816.385	27873
816.526	27785
816.666	27720
816.807	27523
816.948	27648
817.089	27720
817.23	27698
817.371	27545
817.512	27587
817.653	27553
817.793	27610
817.934	27625
818.075	27641
818.216	27526
818.356	27477
818.497	27538
818.638	27260
818.778	27340
818.919	27325
819.06	27336
819.2	27389
819.341	27599
819.481	27477
819.622	27789
819.762	27812
819.903	27720
820.043	27675
820.184	27682
820.324	27656
820.465	27774
820.605	27644
820.746	27690
820.886	27561
821.026	27610
821.167	27686
821.307	27785
821.447	27606
821.588	27412
821.728	27332
821.868	27241
822.008	27135
822.149	27047
822.289	26960
822.429	26796
822.569	26743
822.709	26838
822.849	26648
822.99	26488
823.13	26400
823.27	26503
823.41	26355
823.55	26320
823.69	26358
823.83	26389
823.97	26187
824.11	26145
824.25	26172
824.389	26202
824.529	26282
824.669	26240
824.809	26434
824.949	26381
825.089	26385
825.228	26180
825.368	26008
825.508	26122
825.648	26081
825.787	26210
825.927	26229
826.067	26092
826.206	25959
826.346	26062
826.485	26126
826.625	25917
826.765	26240
826.904	26088
827.044	25913
827.183	25807
827.323	25795
827.462	25841
827.601	25852
827.741	25761
827.88	25715
828.02	25670
828.159	25856
828.298	25921
828.437	25871
828.577	25750
828.716	25898
828.855	25753
828.994	25529
829.134	25502
829.273	25563
829.412	25537
829.551	25434
829.69	25411
829.829	25548
829.968	25594
830.107	25647
830.246	25521
830.385	25411
830.524	25556
830.663	25346
830.802	25301
830.941	25145
831.08	25152
831.219	25107
831.357	25198
831.496	25369
831.635	25072
831.774	25103
831.913	24897
832.051	24928
832.19	24962
832.329	24901
832.467	24844
832.606	24783
832.744	24760
832.883	24848
833.022	24760
833.16	24932
833.299	24875
833.437	24779
833.576	24981
833.714	24882
833.852	24905
833.991	24920
834.129	24897
834.267	24977
834.406	24787
834.544	24783
834.682	24882
834.821	24844
834.959	25004
835.097	24692
835.235	24894
835.373	24719
835.511	24859
835.65	24593
835.788	24749
835.926	24544
836.064	24578
836.202	24582
836.34	24642
836.478	24825
836.615	24707
836.753	24764
836.891	24871
837.029	24650
837.167	24707
837.305	24540
837.443	24490
837.58	24544
837.718	24521
837.856	24528
837.993	24525
838.131	24429
838.269	24315
838.406	24384
838.544	24315
838.681	24174
838.819	24129
838.956	23980
839.094	23969
839.231	24083
839.369	24235
839.506	24384
839.643	24079
839.781	23980
839.918	23973
840.055	24007
840.193	23946
840.33	23870
840.467	23802
840.604	23904
840.742	24144
840.879	23786
841.016	23912
841.153	23771
841.29	23893
841.427	23843
841.564	23901
841.701	23824
841.838	23874
841.975	23855
842.112	23805
842.249	23646
842.385	23649
842.522	23870
842.659	23703
842.796	23547
842.933	23707
843.069	23585
843.206	23718
843.343	23714
843.479	23493
843.616	23455
843.752	23391
843.889	23410
844.025	23558
844.162	23520
844.298	23600
844.435	23398
844.571	23288
844.708	23414
844.844	23653
844.98	23566
845.117	23490
845.253	23421
845.389	23330
845.525	23277
845.661	23265
845.798	23083
845.934	23170
846.07	23109
846.206	23254
846.342	23277
846.478	23174
846.614	22984
846.75	22744
846.886	22877
847.022	23010
847.158	22984
847.294	22850
847.429	22968
847.565	22759
847.701	23105
847.837	22523
847.972	22554
848.108	22649
848.244	22687
848.379	22546
848.515	22615
848.65	22493
848.786	22516
848.921	22440
849.057	22398
849.192	22607
849.328	22611
849.463	22531
849.598	22455
849.734	22325
849.869	22287
850.004	22219
850.14	22295
850.275	22223
850.41	22105
850.545	22219
850.68	22242
850.815	22246
850.95	22135
851.085	22375
851.22	22394
851.355	22299
851.49	22211
851.625	22265
851.76	22192
851.895	22154
852.03	22090
852.165	22295
852.299	22360
852.434	22295
852.569	22166
852.703	22223
852.838	22318
852.973	22382
853.107	22398
853.242	22367
853.376	22051
853.511	21968
853.645	22044
853.78	22120
853.914	22109
854.048	22067
854.183	22063
854.317	22116
854.451	22246
854.585	22017
854.72	21975
854.854	22135
854.988	21968
855.122	22017
855.256	21915
855.39	21953
855.524	22097
855.658	22105
855.792	22093
855.926	22063
856.06	22162
856.194	22128
856.327	22101
856.461	22025
856.595	21987
856.729	22082
856.862	22135
856.996	22055
857.13	22029
857.263	22135
857.397	22173
857.53	21915
857.664	22082
857.797	22074
857.931	22242
858.064	22090
858.197	22181
858.331	22013
858.464	22002
858.597	21960
858.731	22109
858.864	21930
858.997	22063
859.13	22128
859.263	21895
859.396	22310
859.529	21922
859.662	22006
859.795	21994
859.928	22044
860.061	22177
860.194	22276
860.327	21960
860.46	21987
860.592	22303
860.725	22120
860.858	22135
860.99	22086
861.123	21934
861.256	22086
861.388	22063
861.521	22904
861.653	21888
861.786	21850
861.918	21895
862.05	21926
862.183	21907
862.315	22067
862.447	22078
862.58	21987
862.712	21728
862.844	21698
862.976	21698
863.108	21994
863.24	22074
863.372	21732
863.504	21713
863.636	21629
863.768	21667
863.9	21755
864.032	21709
864.164	21682
864.296	21816
864.428	21873
864.559	21789
864.691	21778
864.823	21747
864.954	21835
865.086	21720
865.217	21633
865.349	21610
865.48	21614
865.612	21599
865.743	21698
865.875	21618
866.006	21675
866.137	21641
866.269	21580
866.4	21679
866.531	21523
866.662	21530
866.793	21473
866.924	21504
867.055	21542
867.186	21557
867.317	21530
867.448	21591
867.579	21511
867.71	21405
867.841	21549
867.972	21492
868.103	21580
868.233	21591
868.364	21625
868.495	21698
868.625	21709
868.756	21838
868.886	21698
869.017	21804
869.147	22002
869.278	21903
869.408	21846
869.539	21743
869.669	21857
869.799	21869
869.929	22017
870.06	22010
870.19	22166
870.32	22025
870.45	22150
870.58	22158
870.71	22257
870.84	22219
870.97	22188
871.1	22162
871.23	22318
871.36	22261
871.489	22249
871.619	22276
871.749	22299
871.879	22360
872.008	22417
872.138	22402
872.267	22390
872.397	22169
872.526	22143
872.656	22249
872.785	22226
872.915	22409
873.044	22428
873.173	22314
873.303	22424
873.432	22470
873.561	22379
873.69	22584
873.819	22466
873.948	22565
874.077	22440
874.206	22413
874.335	22459
874.464	22398
874.593	22565
874.722	22546
874.851	22622
874.979	22653
875.108	22626
875.237	22535
875.365	22611
875.494	22694
875.623	22637
875.751	22470
875.88	22569
876.008	22736
876.136	22805
876.265	22957
876.393	23098
876.521	23025
876.65	23086
876.778	23067
876.906	22885
877.034	22889
877.162	22866
877.29	22881
877.418	22965
877.546	23018
877.674	23132
877.802	22919
877.93	22946
878.058	22904
878.185	22850
878.313	22839
878.441	22866
878.568	22793
878.696	22843
878.824	22919
878.951	23033
879.079	23143
879.206	23273
879.333	23178
879.461	22904
879.588	23067
879.715	23014
879.842	23124
879.97	22976
880.097	22778
880.224	22843
880.351	22881
880.478	22786
880.605	22816
880.732	22733
880.859	22881
880.986	22812
881.112	22694
881.239	22569
881.366	22584
881.493	22519
881.619	22409
881.746	22413
881.872	22280
881.999	22325
882.125	22280
882.252	22295
882.378	22306
882.505	22493
882.631	22128
882.757	22158
882.883	22158
883.01	22143
883.136	22086
883.262	21869
883.388	21983
883.514	22032
883.64	22063
883.766	21892
883.892	21793
884.018	21915
884.143	21983
884.269	22101
884.395	21724
884.52	21633
884.646	21850
884.772	21538
884.897	21660
885.023	21614
885.148	21698
885.274	21854
885.399	21823
885.524	21648
885.65	21728
885.775	21652
885.9	21682
886.025	21797
886.15	21743
886.275	21667
886.4	21591
886.525	21618
886.65	21572
886.775	21496
886.9	21724
887.025	21728
887.149	21663
887.274	21466
887.399	21622
887.523	21428
887.648	21329
887.773	21245
887.897	21534
888.021	21348
888.146	21321
888.27	21553
888.395	21564
888.519	21443
888.643	21450
888.767	21393
888.891	21325
889.015	21245
889.139	21302
889.263	21310
889.387	21344
889.511	21458
889.635	21466
889.759	21264
889.883	21211
890.006	21241
890.13	21355
890.254	21184
890.377	21108
890.501	21024
890.624	20887
890.748	21036
890.871	20777
890.995	20697
891.118	20712
891.241	20750
891.364	20769
891.488	20918
891.611	20788
891.734	20796
891.857	20762
891.98	20716
892.103	20758
892.226	20811
892.349	20682
892.471	20537
892.594	20609
892.717	20651
892.839	20659
892.962	20617
893.085	20811
893.207	20731
893.33	20518
893.452	20613
893.575	20796
893.697	20674
893.819	20861
893.941	20758
894.064	20811
894.186	20556
894.308	20609
894.43	20632
894.552	20765
894.674	20693
894.796	20533
894.918	20682
895.04	20659
895.161	20781
895.283	20811
895.405	20731
895.526	20659
895.648	20644
895.769	20689
895.891	20659
896.012	20739
896.134	20648
896.255	20682
896.376	20617
896.498	20746
896.619	20598
896.74	20678
896.861	20758
896.982	21131
897.103	21214
897.224	20979
897.345	20895
897.466	20849
897.587	20956
897.708	21047
897.828	20849
897.949	20659
898.07	20674
898.19	20868
898.311	20902
898.431	20708
898.552	20765
898.672	20918
898.792	20986
898.913	20910
899.033	20667
899.153	20594
899.273	20499
899.393	20629
899.513	20587
899.633	20541
899.753	20625
899.873	20495
899.993	20655
900.113	20564
900.232	20537
900.352	20396
900.472	20366
900.591	20290
900.711	20423
900.83	20290
900.95	20476
901.069	20514
901.189	20187
901.308	20088
901.427	19944
901.546	19963
901.665	20031
901.784	19959
901.904	19772
902.023	19632
902.141	19495
902.26	19514
902.379	19559
902.498	19476
902.617	19396
902.735	19464
902.854	19540
902.973	19487
903.091	19232
903.21	19175
903.328	19141
903.446	19091
903.565	18894
903.683	19000
903.801	18875
903.919	18844
904.038	18928
904.156	18715
904.274	18730
904.392	18578
904.51	18631
904.627	18783
904.745	18665
904.863	18798
904.981	18395
905.098	18407
905.216	18273
905.334	18380
905.451	18399
905.569	18418
905.686	18376
905.803	18388
905.921	18019
906.038	18228
906.155	18129
906.272	18049
906.389	18030
906.506	17901
906.623	17935
906.74	17958
906.857	17828
906.974	17836
907.091	17893
907.208	17931
907.324	17942
907.441	17745
907.557	17695
907.674	17554
907.79	17459
907.907	17562
908.023	17619
908.139	17630
908.256	17558
908.372	17532
908.488	17486
908.604	17200
908.72	17269
908.836	17364
908.952	17200
909.068	17379
909.184	17425
909.3	17330
909.415	17326
909.531	17235
909.647	17075
909.762	17071
909.878	17045
909.993	16938
910.108	16987
910.224	16968
910.339	16991
910.454	16850
910.57	16820
910.685	16736
910.8	17067
910.915	16866
911.03	16839
911.145	16687
911.259	16584
911.374	16675
911.489	16558
911.604	16455
911.718	16303
911.833	16299
911.947	16211
912.062	16135
912.176	16310
912.291	16253
912.405	16402
912.519	16512
912.633	16481
912.748	16367
912.862	16375
912.976	16021
913.09	16017
913.204	16071
913.318	16097
913.431	16185
913.545	16200
913.659	16223
913.772	16025
913.886	15945
914	16013
914.113	16021
914.226	15934
914.34	16063
914.453	15838
914.566	15918
914.68	15861
914.793	15785
914.906	15622
915.019	15686
915.132	15507
915.245	15519
915.358	15450
915.47	15641
915.583	15557
915.696	15553
915.809	15648
915.921	15648
916.034	15469
916.146	15412
916.259	15336
916.371	15530
916.483	15443
916.595	15367
916.708	15424
916.82	15367
916.932	15294
917.044	15294
917.156	15230
917.268	15146
917.38	15154
917.491	15176
917.603	15165
917.715	15245
917.826	15237
917.938	15249
918.049	14971
918.161	15070
918.272	15233
918.384	15302
918.495	15256
918.606	14998
918.717	14883
918.828	15032
918.939	15039
919.05	14857
919.161	15009
919.272	14743
919.383	14842
919.494	15058
919.604	15180
919.715	14876
919.826	14864
919.936	14857
920.047	15036
920.157	15005
920.267	15089
920.378	14914
920.488	14925
920.598	15005
920.708	15294
920.818	15001
920.928	14933
921.038	15157
921.148	15173
921.258	14899
921.368	14785
921.477	14670
921.587	14568
921.697	14594
921.806	14667
921.916	14511
922.025	14305
922.134	14256
922.244	14233
922.353	14305
922.462	14145
922.571	14092
922.68	13993
922.789	13879
922.898	14005
923.007	13871
923.116	13986
923.224	13940
923.333	13917
923.442	13799
923.55	13738
923.659	13784
923.767	13746
923.876	13746
923.984	13681
924.092	13632
924.201	13590
924.309	13632
924.417	13704
924.525	13597
924.633	13613
924.741	14298
924.849	13365
924.956	13533
925.064	13377
925.172	13206
925.279	13285
925.387	13297
925.494	13335
925.602	13441
925.709	13369
925.816	13232
925.924	13202
926.031	13301
926.138	13236
926.245	13259
926.352	13183
926.459	13263
926.566	13304
926.673	13209
926.779	13050
926.886	13080
926.993	12916
927.099	12837
927.206	12821
927.312	12814
927.419	12840
927.525	12875
927.631	12935
927.737	12722
927.843	12715
927.95	12506
928.056	12711
928.162	12677
928.267	12741
928.373	13255
928.479	12745
928.585	12547
928.69	12639
928.796	12631
928.901	12570
929.007	12464
929.112	12475
929.218	12456
929.323	12460
929.428	12445
929.533	12506
929.638	12403
929.743	12361
929.848	12350
929.953	12456
930.058	12155
930.163	12022
930.267	12133
930.372	12304
930.477	12083
930.581	12342
930.685	12022
930.79	12003
930.894	11996
930.998	11999
931.103	12072
931.207	11737
931.311	11630
931.415	11554
931.519	11406
931.623	11376
