Data from test_V78500241_2645.txt Node
Date: Fri Mar 25 15:28:16 CST 2022
User: usil
Spectrometer: V785-0024
Trigger mode: 0
Integration Time (sec): 4.000000E-1
Scans to average: 1
Nonlinearity correction enabled: false
Boxcar width: 0
Storing dark spectrum: false
XAxis mode: Wavelengths
Number of Pixels in Spectrum: 1024
>>>>>Begin Spectral Data<<<<<
801.071	27119
801.214	27142
801.356	26880
801.499	26792
801.641	26720
801.783	26686
801.926	26788
802.068	26788
802.211	26629
802.353	26621
802.496	26480
802.638	26434
802.78	26313
802.923	26244
803.065	26256
803.208	26221
803.35	26324
803.492	26571
803.635	26590
803.777	26476
803.919	26579
804.061	26765
804.204	26533
804.346	26476
804.488	26400
804.63	26438
804.773	26446
804.915	26492
805.057	26590
805.199	26450
805.341	26541
805.483	26648
805.626	26571
805.768	26518
805.91	26583
806.052	26545
806.194	26434
806.336	26606
806.478	26636
806.62	26613
806.762	26845
806.904	26785
807.046	27135
807.188	26975
807.33	27062
807.472	27142
807.614	27047
807.756	27077
807.898	26845
808.04	26842
808.182	26758
808.324	26868
808.465	26823
808.607	27230
808.749	27089
808.891	27218
809.033	27291
809.174	27291
809.316	27024
809.458	27203
809.6	27176
809.741	27252
809.883	27355
810.025	27302
810.166	27420
810.308	27473
810.45	27473
810.591	27424
810.733	27237
810.875	27123
811.016	27112
811.158	27051
811.299	27378
811.441	27458
811.582	27416
811.724	27207
811.865	27317
812.007	27180
812.148	27199
812.29	27302
812.431	27367
812.573	27462
812.714	27568
812.855	27583
812.997	27739
813.138	27960
813.279	27682
813.421	27774
813.562	27625
813.703	27439
813.845	27374
813.986	26994
814.127	27036
814.268	26845
814.41	26994
814.551	26887
814.692	26883
814.833	26891
814.974	26876
815.115	26887
815.256	26594
815.397	26773
815.539	26727
815.68	26716
815.821	26374
815.962	26571
816.103	26632
816.244	26636
816.385	26290
816.526	26267
816.666	26301
816.807	25898
816.948	26164
817.089	26240
817.23	26286
817.371	26081
817.512	26062
817.653	26043
817.793	26115
817.934	26043
818.075	26130
818.216	26054
818.356	26058
818.497	25875
818.638	25966
818.778	25871
818.919	25715
819.06	25986
819.2	25997
819.341	26020
819.481	26199
819.622	26134
819.762	26488
819.903	26263
820.043	26225
820.184	26305
820.324	26191
820.465	26248
820.605	26180
820.746	26130
820.886	26176
821.026	26176
821.167	26096
821.307	26176
821.447	26210
821.588	26050
821.728	25757
821.868	25727
822.008	25590
822.149	25594
822.289	25655
822.429	25335
822.569	25293
822.709	25282
822.849	25156
822.99	25114
823.13	25088
823.27	25164
823.41	24909
823.55	24783
823.69	24882
823.83	24947
823.97	24821
824.11	24700
824.25	24669
824.389	24806
824.529	24783
824.669	24597
824.809	24852
824.949	24730
825.089	24730
825.228	24719
825.368	24502
825.508	24582
825.648	24528
825.787	24658
825.927	24661
826.067	24544
826.206	24616
826.346	24639
826.485	24604
826.625	24597
826.765	24654
826.904	24707
827.044	24353
827.183	24365
827.323	24289
827.462	24380
827.601	24334
827.741	24209
827.88	24330
828.02	24232
828.159	24300
828.298	24148
828.437	24361
828.577	24266
828.716	24494
828.855	24258
828.994	24049
829.134	24034
829.273	24095
829.412	23889
829.551	24018
829.69	24053
829.829	24079
829.968	24030
830.107	24057
830.246	24087
830.385	24049
830.524	23912
830.663	23722
830.802	23836
830.941	23634
831.08	23558
831.219	23722
831.357	23642
831.496	23760
831.635	23547
831.774	23676
831.913	23623
832.051	23429
832.19	23364
832.329	23372
832.467	23417
832.606	23223
832.744	23273
832.883	23280
833.022	23174
833.16	23433
833.299	23383
833.437	23334
833.576	23337
833.714	23334
833.852	23383
833.991	23436
834.129	23516
834.267	23573
834.406	23326
834.544	23417
834.682	23429
834.821	23326
834.959	23505
835.097	23345
835.235	23269
835.373	23311
835.511	23459
835.65	23231
835.788	23235
835.926	23140
836.064	22934
836.202	23025
836.34	23265
836.478	23254
836.615	23174
836.753	23174
836.891	23284
837.029	23113
837.167	23105
837.305	23162
837.443	23056
837.58	23174
837.718	23132
837.856	23033
837.993	22904
838.131	23041
838.269	22965
838.406	22957
838.544	22915
838.681	22774
838.819	22645
838.956	22493
839.094	22607
839.231	22527
839.369	22637
839.506	23025
839.643	22710
839.781	22645
839.918	22508
840.055	22580
840.193	22497
840.33	22402
840.467	22398
840.604	22527
840.742	22736
840.879	22363
841.016	22268
841.153	22447
841.29	22550
841.427	22413
841.564	22424
841.701	22500
841.838	22394
841.975	22474
842.112	22455
842.249	22367
842.385	22291
842.522	22538
842.659	22341
842.796	22234
842.933	22344
843.069	22200
843.206	22086
843.343	22310
843.479	22223
843.616	22234
843.752	22059
843.889	22105
844.025	22124
844.162	22002
844.298	22025
844.435	22021
844.571	21998
844.708	22029
844.844	22379
844.98	22196
845.117	22105
845.253	21876
845.389	21778
845.525	21949
845.661	21816
845.798	21705
845.934	21713
846.07	21686
846.206	21850
846.342	21850
846.478	21694
846.614	21561
846.75	21477
846.886	21435
847.022	21519
847.158	21488
847.294	21481
847.429	21458
847.565	21420
847.701	21778
847.837	21138
847.972	21093
848.108	21294
848.244	21256
848.379	21146
848.515	21135
848.65	21173
848.786	21089
848.921	21055
849.057	21070
849.192	21207
849.328	21005
849.463	21112
849.598	21058
849.734	21032
849.869	20979
850.004	20914
850.14	20941
850.275	20807
850.41	20872
850.545	20815
850.68	20887
850.815	20872
850.95	20819
851.085	21100
851.22	20975
851.355	20891
851.49	20769
851.625	20842
851.76	20887
851.895	20853
852.03	20857
852.165	20800
852.299	20925
852.434	20883
852.569	20891
852.703	20819
852.838	20914
852.973	20963
853.107	20963
853.242	20781
853.376	20598
853.511	20492
853.645	20636
853.78	20792
853.914	20708
854.048	20693
854.183	20602
854.317	20697
854.451	20902
854.585	20625
854.72	20708
854.854	20754
854.988	20621
855.122	20754
855.256	20541
855.39	20602
855.524	20697
855.658	20762
855.792	20689
855.926	20697
856.06	20727
856.194	20724
856.327	20602
856.461	20609
856.595	20545
856.729	20712
856.862	20785
856.996	20686
857.13	20857
857.263	20720
857.397	20750
857.53	20705
857.664	20811
857.797	20845
857.931	20754
858.064	20663
858.197	20739
858.331	20606
858.464	20609
858.597	20560
858.731	20686
858.864	20720
858.997	20629
859.13	20659
859.263	20689
859.396	20697
859.529	20625
859.662	20583
859.795	20636
859.928	20667
860.061	20773
860.194	20876
860.327	20511
860.46	20693
860.592	20811
860.725	20883
860.858	20777
860.99	20731
861.123	20560
861.256	20541
861.388	20686
861.521	21378
861.653	20564
861.786	20488
861.918	20533
862.05	20492
862.183	20617
862.315	20648
862.447	20720
862.58	20476
862.712	20328
862.844	20389
862.976	20454
863.108	20450
863.24	20868
863.372	20275
863.504	20450
863.636	20415
863.768	20461
863.9	20374
864.032	20381
864.164	20332
864.296	20332
864.428	20415
864.559	20377
864.691	20423
864.823	20415
864.954	20324
865.086	20305
865.217	20320
865.349	20320
865.48	20320
865.612	20267
865.743	20408
865.875	20396
866.006	20362
866.137	20370
866.269	20252
866.4	20366
866.531	20221
866.662	20343
866.793	20161
866.924	20358
867.055	20412
867.186	20233
867.317	20282
867.448	20126
867.579	20237
867.71	20176
867.841	20119
867.972	20336
868.103	20263
868.233	20244
868.364	20301
868.495	20343
868.625	20408
868.756	20545
868.886	20412
869.017	20454
869.147	20571
869.278	20617
869.408	20484
869.539	20442
869.669	20625
869.799	20541
869.929	20545
870.06	20617
870.19	20678
870.32	20678
870.45	20807
870.58	20937
870.71	21013
870.84	21013
870.97	20921
871.1	20830
871.23	21051
871.36	21020
871.489	20979
871.619	21070
871.749	21146
871.879	21058
872.008	21142
872.138	21222
872.267	21089
872.397	20963
872.526	20887
872.656	20811
872.785	20815
872.915	21131
873.044	21287
873.173	21150
873.303	21150
873.432	21123
873.561	21199
873.69	21192
873.819	21230
873.948	21142
874.077	21321
874.206	21051
874.335	21169
874.464	21138
874.593	21336
874.722	21176
874.851	21431
874.979	21294
875.108	21382
875.237	21382
875.365	21294
875.494	21306
875.623	21545
875.751	21317
875.88	21329
876.008	21428
876.136	21492
876.265	21736
876.393	21846
876.521	21644
876.65	21804
876.778	21713
876.906	21736
877.034	21656
877.162	21713
877.29	21701
877.418	21648
877.546	21720
877.674	21823
877.802	21724
877.93	21705
878.058	21663
878.185	21717
878.313	21625
878.441	21739
878.568	21557
878.696	21504
878.824	21724
878.951	21751
879.079	21774
879.206	22082
879.333	21800
879.461	21652
879.588	21789
879.715	21793
879.842	21816
879.97	21778
880.097	21519
880.224	21473
880.351	21599
880.478	21523
880.605	21485
880.732	21549
880.859	21679
880.986	21606
881.112	21504
881.239	21401
881.366	21317
881.493	21176
881.619	21180
881.746	21142
881.872	21093
881.999	21043
882.125	21013
882.252	21131
882.378	21173
882.505	21203
882.631	20971
882.757	20826
882.883	20842
883.01	20861
883.136	20739
883.262	20648
883.388	20682
883.514	20826
883.64	20750
883.766	20697
883.892	20602
884.018	20606
884.143	20678
884.269	20883
884.395	20488
884.52	20492
884.646	20476
884.772	20476
884.897	20419
885.023	20442
885.148	20537
885.274	20541
885.399	20568
885.524	20393
885.65	20408
885.775	20511
885.9	20366
886.025	20613
886.15	20552
886.275	20473
886.4	20286
886.525	20431
886.65	20400
886.775	20355
886.9	20522
887.025	20686
887.149	20476
887.274	20294
887.399	20218
887.523	20286
887.648	20035
887.773	20062
887.897	20385
888.021	20218
888.146	20161
888.27	20218
888.395	20290
888.519	20278
888.643	20240
888.767	20347
888.891	20206
889.015	20001
889.139	20164
889.263	20027
889.387	20107
889.511	20214
889.635	20229
889.759	20001
889.883	20031
890.006	20065
890.13	20153
890.254	19970
890.377	20084
890.501	19856
890.624	19704
890.748	19807
890.871	19738
890.995	19613
891.118	19540
891.241	19552
891.364	19548
891.488	19753
891.611	19540
891.734	19647
891.857	19658
891.98	19556
892.103	19575
892.226	19658
892.349	19495
892.471	19453
892.594	19529
892.717	19441
892.839	19510
892.962	19525
893.085	19510
893.207	19540
893.33	19438
893.452	19457
893.575	19609
893.697	19510
893.819	19746
893.941	19776
894.064	19643
894.186	19480
894.308	19540
894.43	19647
894.552	19757
894.674	19734
894.796	19441
894.918	19480
895.04	19537
895.161	19666
895.283	19502
895.405	19529
895.526	19434
895.648	19582
895.769	19525
895.891	19575
896.012	19575
896.134	19567
896.255	19563
896.376	19556
896.498	19559
896.619	19616
896.74	19495
896.861	19518
896.982	19864
897.103	20027
897.224	19753
897.345	19772
897.466	19674
897.587	19742
897.708	19833
897.828	19750
897.949	19658
898.07	19590
898.19	19757
898.311	19845
898.431	19723
898.552	19704
898.672	19837
898.792	19864
898.913	19734
899.033	19658
899.153	19628
899.273	19487
899.393	19445
899.513	19601
899.633	19480
899.753	19521
899.873	19552
899.993	19483
900.113	19480
900.232	19597
900.352	19449
900.472	19301
900.591	19324
900.711	19335
900.83	19217
900.95	19350
901.069	19419
901.189	19175
901.308	19034
901.427	18913
901.546	19088
901.665	18951
901.784	18958
901.904	18783
902.023	18631
902.141	18475
902.26	18361
902.379	18517
902.498	18395
902.617	18410
902.735	18555
902.854	18338
902.973	18388
903.091	18129
903.21	18133
903.328	18155
903.446	18057
903.565	17889
903.683	17923
903.801	17912
903.919	17843
904.038	17813
904.156	17619
904.274	17809
904.392	17710
904.51	17687
904.627	17562
904.745	17718
904.863	17794
904.981	17554
905.098	17349
905.216	17383
905.334	17387
905.451	17360
905.569	17368
905.686	17334
905.803	17372
905.921	17143
906.038	17193
906.155	17288
906.272	17052
906.389	17117
906.506	16839
906.623	16919
906.74	16965
906.857	16725
906.974	16835
907.091	16900
907.208	17121
907.324	17048
907.441	16892
907.557	16675
907.674	16550
907.79	16626
907.907	16577
908.023	16569
908.139	16535
908.256	16580
908.372	16584
908.488	16466
908.604	16402
908.72	16375
908.836	16379
908.952	16261
909.068	16314
909.184	16382
909.3	16428
909.415	16398
909.531	16265
909.647	16143
909.762	16226
909.878	16029
909.993	16074
910.108	16071
910.224	16044
910.339	15968
910.454	15926
910.57	15884
910.685	15831
910.8	15983
910.915	15922
911.03	15857
911.145	15599
911.259	15610
911.374	15660
911.489	15625
911.604	15595
911.718	15454
911.833	15325
911.947	15382
912.062	15332
912.176	15504
912.291	15492
912.405	15450
912.519	15625
912.633	15622
912.748	15420
912.862	15340
912.976	15287
913.09	15188
913.204	15195
913.318	15260
913.431	15382
913.545	15306
913.659	15374
913.772	15252
913.886	15077
914	15047
914.113	15154
914.226	15131
914.34	15093
914.453	14899
914.566	15123
914.68	14838
914.793	14979
914.906	14731
915.019	14636
915.132	14602
915.245	14549
915.358	14659
915.47	14693
915.583	14659
915.696	14693
915.809	14762
915.921	14765
916.034	14579
916.146	14606
916.259	14560
916.371	14682
916.483	14686
916.595	14541
916.708	14499
916.82	14526
916.932	14461
917.044	14434
917.156	14389
917.268	14320
917.38	14290
917.491	14278
917.603	14362
917.715	14377
917.826	14301
917.938	14290
918.049	14210
918.161	14202
918.272	14434
918.384	14324
918.495	14298
918.606	14172
918.717	14115
918.828	14180
918.939	14081
919.05	14005
919.161	14164
919.272	13894
919.383	13974
919.494	14180
919.604	14336
919.715	14081
919.826	13993
919.936	14130
920.047	14164
920.157	14058
920.267	14259
920.378	14096
920.488	14103
920.598	14271
920.708	14309
920.818	14157
920.928	14332
921.038	14355
921.148	14278
921.258	13982
921.368	13928
921.477	13814
921.587	13837
921.697	13639
921.806	13841
921.916	13712
922.025	13582
922.134	13441
922.244	13449
922.353	13483
922.462	13377
922.571	13263
922.68	13126
922.789	13038
922.898	13217
923.007	13042
923.116	13236
923.224	13107
923.333	13099
923.442	13012
923.55	13042
923.659	13004
923.767	13004
923.876	12958
923.984	12943
924.092	12890
924.201	12844
924.309	12928
924.417	12954
924.525	12753
924.633	12745
924.741	13681
924.849	12601
924.956	12787
925.064	12574
925.172	12471
925.279	12578
925.387	12547
925.494	12563
925.602	12612
925.709	12635
925.816	12448
925.924	12517
926.031	12604
926.138	12536
926.245	12620
926.352	12452
926.459	12639
926.566	12532
926.673	12471
926.779	12342
926.886	12232
926.993	12163
927.099	12167
927.206	12072
927.312	12030
927.419	12060
927.525	12026
927.631	12186
927.737	12022
927.843	11999
927.95	11920
928.056	11935
928.162	11980
928.267	11984
928.373	12486
928.479	12022
928.585	11767
928.69	11904
928.796	11931
928.901	11859
929.007	11691
929.112	11889
929.218	11703
929.323	11707
929.428	11707
929.533	11840
929.638	11634
929.743	11642
929.848	11638
929.953	11596
930.058	11467
930.163	11368
930.267	11376
930.372	11512
930.477	11372
930.581	11539
930.685	11478
930.79	11254
930.894	11334
930.998	11250
931.103	11402
931.207	11064
931.311	10942
931.415	10934
931.519	10729
931.623	10694
