Data from test_V78500241_2539.txt Node
Date: Fri Mar 25 15:27:32 CST 2022
User: usil
Spectrometer: V785-0024
Trigger mode: 0
Integration Time (sec): 4.000000E-1
Scans to average: 1
Nonlinearity correction enabled: false
Boxcar width: 0
Storing dark spectrum: false
XAxis mode: Wavelengths
Number of Pixels in Spectrum: 1024
>>>>>Begin Spectral Data<<<<<
801.071	27260
801.214	27264
801.356	26876
801.499	26918
801.641	26960
801.783	26849
801.926	26743
802.068	26758
802.211	26621
802.353	26579
802.496	26473
802.638	26377
802.78	26358
802.923	26294
803.065	26301
803.208	26362
803.35	26408
803.492	26495
803.635	26465
803.777	26339
803.919	26526
804.061	26758
804.204	26415
804.346	26476
804.488	26480
804.63	26579
804.773	26632
804.915	26476
805.057	26609
805.199	26564
805.341	26549
805.483	26644
805.626	26701
805.768	26556
805.91	26552
806.052	26667
806.194	26549
806.336	26807
806.478	26731
806.62	26667
806.762	26765
806.904	26883
807.046	27051
807.188	27039
807.33	27142
807.472	27112
807.614	27047
807.756	27020
807.898	26819
808.04	26826
808.182	26769
808.324	26940
808.465	26982
808.607	27230
808.749	27283
808.891	27317
809.033	27351
809.174	27325
809.316	27195
809.458	27146
809.6	27142
809.741	27230
809.883	27443
810.025	27515
810.166	27424
810.308	27458
810.45	27393
810.591	27272
810.733	27264
810.875	27108
811.016	27192
811.158	27131
811.299	27424
811.441	27325
811.582	27443
811.724	27291
811.865	27157
812.007	27169
812.148	27165
812.29	27138
812.431	27214
812.573	27477
812.714	27724
812.855	27679
812.997	27724
813.138	27907
813.279	27724
813.421	27690
813.562	27618
813.703	27549
813.845	27443
813.986	27020
814.127	26868
814.268	26864
814.41	27028
814.551	26864
814.692	26876
814.833	26849
814.974	26804
815.115	26902
815.256	26762
815.397	26826
815.539	26682
815.68	26689
815.821	26503
815.962	26765
816.103	26678
816.244	26465
816.385	26362
816.526	26556
816.666	26240
816.807	26069
816.948	26202
817.089	26278
817.23	26142
817.371	26138
817.512	26084
817.653	26005
817.793	26054
817.934	26149
818.075	26191
818.216	26176
818.356	26096
818.497	26069
818.638	25826
818.778	25997
818.919	25860
819.06	25986
819.2	25986
819.341	25982
819.481	25944
819.622	26187
819.762	26427
819.903	26400
820.043	26317
820.184	26210
820.324	26126
820.465	26256
820.605	26210
820.746	26149
820.886	26130
821.026	26336
821.167	26161
821.307	26305
821.447	26130
821.588	26008
821.728	25890
821.868	25693
822.008	25635
822.149	25693
822.289	25563
822.429	25297
822.569	25369
822.709	25263
822.849	25251
822.99	25244
823.13	25160
823.27	25019
823.41	24935
823.55	24795
823.69	24913
823.83	24844
823.97	24928
824.11	24692
824.25	24764
824.389	24528
824.529	24837
824.669	24707
824.809	24890
824.949	24787
825.089	24764
825.228	24757
825.368	24486
825.508	24528
825.648	24601
825.787	24669
825.927	24688
826.067	24612
826.206	24563
826.346	24642
826.485	24623
826.625	24498
826.765	24738
826.904	24597
827.044	24346
827.183	24323
827.323	24266
827.462	24437
827.601	24357
827.741	24216
827.88	24369
828.02	24319
828.159	24232
828.298	24296
828.437	24376
828.577	24254
828.716	24296
828.855	24060
828.994	24091
829.134	23958
829.273	24133
829.412	23969
829.551	23973
829.69	24098
829.829	24007
829.968	24076
830.107	24163
830.246	24148
830.385	24026
830.524	23901
830.663	23901
830.802	23786
830.941	23543
831.08	23653
831.219	23783
831.357	23737
831.496	23977
831.635	23733
831.774	23642
831.913	23463
832.051	23478
832.19	23406
832.329	23497
832.467	23391
832.606	23185
832.744	23334
832.883	23299
833.022	23273
833.16	23353
833.299	23391
833.437	23307
833.576	23353
833.714	23585
833.852	23368
833.991	23356
834.129	23406
834.267	23482
834.406	23391
834.544	23444
834.682	23296
834.821	23455
834.959	23581
835.097	23368
835.235	23459
835.373	23425
835.511	23242
835.65	23227
835.788	23326
835.926	23204
836.064	22976
836.202	23025
836.34	23296
836.478	23334
836.615	23204
836.753	23174
836.891	23246
837.029	23322
837.167	23185
837.305	23083
837.443	23117
837.58	23121
837.718	23155
837.856	23155
837.993	23060
838.131	22987
838.269	22911
838.406	23003
838.544	22908
838.681	22835
838.819	22774
838.956	22546
839.094	22618
839.231	22702
839.369	22706
839.506	22995
839.643	22877
839.781	22618
839.918	22580
840.055	22706
840.193	22561
840.33	22470
840.467	22550
840.604	22630
840.742	22740
840.879	22409
841.016	22497
841.153	22436
841.29	22516
841.427	22500
841.564	22531
841.701	22470
841.838	22424
841.975	22371
842.112	22363
842.249	22367
842.385	22280
842.522	22584
842.659	22455
842.796	22287
842.933	22363
843.069	22177
843.206	22226
843.343	22272
843.479	22284
843.616	22249
843.752	22101
843.889	22128
844.025	22169
844.162	22006
844.298	22147
844.435	21994
844.571	22063
844.708	21991
844.844	22185
844.98	22185
845.117	22105
845.253	22029
845.389	21812
845.525	22051
845.661	21895
845.798	21789
845.934	21869
846.07	21724
846.206	21827
846.342	21907
846.478	21720
846.614	21572
846.75	21439
846.886	21530
847.022	21580
847.158	21538
847.294	21496
847.429	21545
847.565	21568
847.701	21747
847.837	21317
847.972	21256
848.108	21306
848.244	21264
848.379	21230
848.515	21142
848.65	21085
848.786	21131
848.921	21112
849.057	21249
849.192	21241
849.328	21245
849.463	21146
849.598	21093
849.734	21036
849.869	20891
850.004	20864
850.14	21055
850.275	20891
850.41	20823
850.545	20914
850.68	20781
850.815	20975
850.95	20914
851.085	21165
851.22	21043
851.355	20872
851.49	20963
851.625	20823
851.76	20853
851.895	20769
852.03	20948
852.165	20773
852.299	20963
852.434	20971
852.569	20876
852.703	20834
852.838	20971
852.973	20952
853.107	20967
853.242	20883
853.376	20781
853.511	20629
853.645	20727
853.78	20868
853.914	20777
854.048	20640
854.183	20640
854.317	20739
854.451	20883
854.585	20670
854.72	20804
854.854	20796
854.988	20720
855.122	20804
855.256	20667
855.39	20659
855.524	20762
855.658	20800
855.792	20648
855.926	20712
856.06	20804
856.194	20727
856.327	20773
856.461	20598
856.595	20682
856.729	20663
856.862	20842
856.996	20739
857.13	20781
857.263	20834
857.397	20777
857.53	20670
857.664	20861
857.797	20735
857.931	20864
858.064	20682
858.197	20895
858.331	20823
858.464	20636
858.597	20571
858.731	20629
858.864	20682
858.997	20746
859.13	20724
859.263	20724
859.396	20785
859.529	20678
859.662	20727
859.795	20750
859.928	20712
860.061	20891
860.194	21005
860.327	20674
860.46	20731
860.592	20689
860.725	20880
860.858	20811
860.99	20693
861.123	20686
861.256	20769
861.388	20727
861.521	21443
861.653	20598
861.786	20526
861.918	20556
862.05	20590
862.183	20556
862.315	20568
862.447	20686
862.58	20701
862.712	20457
862.844	20465
862.976	20590
863.108	20629
863.24	20887
863.372	20514
863.504	20271
863.636	20431
863.768	20495
863.9	20423
864.032	20370
864.164	20301
864.296	20518
864.428	20514
864.559	20511
864.691	20533
864.823	20454
864.954	20552
865.086	20503
865.217	20320
865.349	20317
865.48	20328
865.612	20332
865.743	20499
865.875	20385
866.006	20218
866.137	20351
866.269	20237
866.4	20332
866.531	20145
866.662	20183
866.793	20221
866.924	20107
867.055	20336
867.186	20324
867.317	20267
867.448	20187
867.579	20256
867.71	20240
867.841	20161
867.972	20362
868.103	20180
868.233	20336
868.364	20244
868.495	20461
868.625	20355
868.756	20606
868.886	20381
869.017	20617
869.147	20617
869.278	20606
869.408	20473
869.539	20594
869.669	20579
869.799	20545
869.929	20659
870.06	20727
870.19	20769
870.32	20849
870.45	20937
870.58	20921
870.71	20982
870.84	20998
870.97	20963
871.1	20868
871.23	21127
871.36	21146
871.489	20979
871.619	21028
871.749	21123
871.879	21096
872.008	21142
872.138	21085
872.267	21157
872.397	21089
872.526	20788
872.656	20933
872.785	21055
872.915	21146
873.044	21214
873.173	21142
873.303	21184
873.432	21112
873.561	21184
873.69	21150
873.819	21233
873.948	21306
874.077	21230
874.206	21096
874.335	21165
874.464	21294
874.593	21450
874.722	21355
874.851	21313
874.979	21287
875.108	21496
875.237	21313
875.365	21176
875.494	21367
875.623	21340
875.751	21370
875.88	21545
876.008	21458
876.136	21496
876.265	21854
876.393	21911
876.521	21819
876.65	21953
876.778	21720
876.906	21793
877.034	21717
877.162	21698
877.29	21686
877.418	21800
877.546	21804
877.674	21774
877.802	21755
877.93	21778
878.058	21713
878.185	21610
878.313	21648
878.441	21686
878.568	21606
878.696	21736
878.824	21850
878.951	21865
879.079	21888
879.206	22067
879.333	21842
879.461	21717
879.588	21831
879.715	21972
879.842	22021
879.97	21846
880.097	21644
880.224	21481
880.351	21603
880.478	21618
880.605	21454
880.732	21526
880.859	21903
880.986	21572
881.112	21507
881.239	21412
881.366	21325
881.493	21218
881.619	21100
881.746	21195
881.872	21154
881.999	21150
882.125	21127
882.252	21131
882.378	21077
882.505	21249
882.631	20948
882.757	20853
882.883	21028
883.01	20830
883.136	20674
883.262	20708
883.388	20674
883.514	20861
883.64	20998
883.766	20746
883.892	20575
884.018	20644
884.143	20644
884.269	20826
884.395	20754
884.52	20499
884.646	20469
884.772	20381
884.897	20415
885.023	20564
885.148	20541
885.274	20667
885.399	20537
885.524	20541
885.65	20625
885.775	20473
885.9	20583
886.025	20655
886.15	20587
886.275	20393
886.4	20301
886.525	20423
886.65	20507
886.775	20469
886.9	20640
887.025	20651
887.149	20560
887.274	20256
887.399	20221
887.523	20355
887.648	20248
887.773	20278
887.897	20324
888.021	20259
888.146	20142
888.27	20294
888.395	20328
888.519	20366
888.643	20317
888.767	20309
888.891	20237
889.015	20054
889.139	20138
889.263	20084
889.387	20240
889.511	20290
889.635	20153
889.759	20134
889.883	20107
890.006	20225
890.13	20103
890.254	19955
890.377	19932
890.501	19894
890.624	19795
890.748	19818
890.871	19704
890.995	19734
891.118	19647
891.241	19582
891.364	19639
891.488	19757
891.611	19803
891.734	19616
891.857	19769
891.98	19655
892.103	19635
892.226	19639
892.349	19559
892.471	19396
892.594	19628
892.717	19563
892.839	19567
892.962	19635
893.085	19613
893.207	19639
893.33	19381
893.452	19540
893.575	19635
893.697	19616
893.819	19708
893.941	19708
894.064	19605
894.186	19567
894.308	19510
894.43	19734
894.552	19666
894.674	19712
894.796	19499
894.918	19422
895.04	19464
895.161	19639
895.283	19556
895.405	19476
895.526	19506
895.648	19529
895.769	19556
895.891	19594
896.012	19677
896.134	19727
896.255	19597
896.376	19540
896.498	19567
896.619	19662
896.74	19521
896.861	19529
896.982	19833
897.103	20050
897.224	19765
897.345	19765
897.466	19727
897.587	19727
897.708	19921
897.828	19849
897.949	19757
898.07	19628
898.19	19719
898.311	19936
898.431	19772
898.552	19830
898.672	19780
898.792	19879
898.913	19765
899.033	19811
899.153	19677
899.273	19499
899.393	19502
899.513	19502
899.633	19632
899.753	19563
899.873	19514
899.993	19594
900.113	19502
900.232	19495
900.352	19441
900.472	19362
900.591	19289
900.711	19388
900.83	19240
900.95	19377
901.069	19563
901.189	19282
901.308	19031
901.427	18966
901.546	19015
901.665	18890
901.784	18890
901.904	18859
902.023	18700
902.141	18525
902.26	18388
902.379	18589
902.498	18483
902.617	18448
902.735	18483
902.854	18525
902.973	18258
903.091	18171
903.21	18072
903.328	18190
903.446	18087
903.565	17904
903.683	17821
903.801	17783
903.919	17912
904.038	17889
904.156	17745
904.274	17809
904.392	17615
904.51	17722
904.627	17760
904.745	17714
904.863	17790
904.981	17440
905.098	17376
905.216	17330
905.334	17311
905.451	17398
905.569	17379
905.686	17425
905.803	17421
905.921	17147
906.038	17292
906.155	17212
906.272	17102
906.389	17098
906.506	16995
906.623	16949
906.74	16946
906.857	16866
906.974	16801
907.091	17006
907.208	17045
907.324	16904
907.441	16801
907.557	16713
907.674	16782
907.79	16611
907.907	16641
908.023	16683
908.139	16535
908.256	16599
908.372	16569
908.488	16565
908.604	16322
908.72	16348
908.836	16322
908.952	16382
909.068	16485
909.184	16493
909.3	16394
909.415	16409
909.531	16360
909.647	16124
909.762	16116
909.878	15956
909.993	16067
910.108	15972
910.224	16021
910.339	16017
910.454	15915
910.57	15911
910.685	15816
910.8	16048
910.915	16071
911.03	15945
911.145	15808
911.259	15686
911.374	15652
911.489	15641
911.604	15549
911.718	15545
911.833	15393
911.947	15336
912.062	15401
912.176	15439
912.291	15450
912.405	15485
912.519	15755
912.633	15690
912.748	15473
912.862	15485
912.976	15218
913.09	15127
913.204	15188
913.318	15291
913.431	15378
913.545	15313
913.659	15351
913.772	15241
913.886	15161
914	15055
914.113	15127
914.226	15161
914.34	15146
914.453	14963
914.566	15097
914.68	14937
914.793	14990
914.906	14659
915.019	14727
915.132	14541
915.245	14754
915.358	14716
915.47	14670
915.583	14610
915.696	14716
915.809	14891
915.921	14826
916.034	14564
916.146	14617
916.259	14640
916.371	14629
916.483	14549
916.595	14480
916.708	14480
916.82	14495
916.932	14511
917.044	14415
917.156	14423
917.268	14351
917.38	14332
917.491	14385
917.603	14385
917.715	14377
917.826	14427
917.938	14343
918.049	14210
918.161	14324
918.272	14461
918.384	14412
918.495	14237
918.606	14187
918.717	13970
918.828	14172
918.939	14202
919.05	14069
919.161	14096
919.272	13936
919.383	14054
919.494	14130
919.604	14317
919.715	14123
919.826	13921
919.936	14012
920.047	14103
920.157	14054
920.267	14351
920.378	14084
920.488	14054
920.598	14191
920.708	14484
920.818	14126
920.928	14199
921.038	14377
921.148	14362
921.258	14035
921.368	13932
921.477	13894
921.587	13906
921.697	13742
921.806	13811
921.916	13807
922.025	13559
922.134	13590
922.244	13445
922.353	13525
922.462	13327
922.571	13293
922.68	13156
922.789	13129
922.898	13266
923.007	13084
923.116	13141
923.224	13175
923.333	13069
923.442	12993
923.55	12916
923.659	12916
923.767	13012
923.876	12951
923.984	12966
924.092	12920
924.201	12852
924.309	12867
924.417	12882
924.525	12787
924.633	12757
924.741	13742
924.849	12627
924.956	12795
925.064	12650
925.172	12513
925.279	12494
925.387	12559
925.494	12578
925.602	12757
925.709	12639
925.816	12467
925.924	12525
926.031	12635
926.138	12604
926.245	12574
926.352	12467
926.459	12494
926.566	12525
926.673	12445
926.779	12357
926.886	12281
926.993	12155
927.099	12186
927.206	12182
927.312	12041
927.419	12053
927.525	12129
927.631	12194
927.737	12030
927.843	11954
927.95	11885
928.056	11999
928.162	11973
928.267	12095
928.373	12696
928.479	12045
928.585	11809
928.69	11908
928.796	11950
928.901	11912
929.007	11665
929.112	11870
929.218	11817
929.323	11684
929.428	11737
929.533	11882
929.638	11695
929.743	11767
929.848	11691
929.953	11703
930.058	11558
930.163	11398
930.267	11398
930.372	11592
930.477	11296
930.581	11528
930.685	11467
930.79	11288
930.894	11231
930.998	11231
931.103	11455
931.207	10987
931.311	11056
931.415	10938
931.519	10714
931.623	10698
