Data from test_V78500241_2902.txt Node
Date: Fri Mar 25 15:30:04 CST 2022
User: usil
Spectrometer: V785-0024
Trigger mode: 0
Integration Time (sec): 4.000000E-1
Scans to average: 1
Nonlinearity correction enabled: false
Boxcar width: 0
Storing dark spectrum: false
XAxis mode: Wavelengths
Number of Pixels in Spectrum: 1024
>>>>>Begin Spectral Data<<<<<
801.071	27386
801.214	27233
801.356	26906
801.499	26815
801.641	26739
801.783	26807
801.926	26830
802.068	26769
802.211	26697
802.353	26655
802.496	26594
802.638	26590
802.78	26385
802.923	26324
803.065	26218
803.208	26157
803.35	26294
803.492	26545
803.635	26568
803.777	26309
803.919	26606
804.061	26788
804.204	26632
804.346	26530
804.488	26495
804.63	26541
804.773	26404
804.915	26469
805.057	26667
805.199	26446
805.341	26667
805.483	26621
805.626	26773
805.768	26667
805.91	26613
806.052	26686
806.194	26530
806.336	26853
806.478	26606
806.62	26541
806.762	26701
806.904	26842
807.046	27081
807.188	27070
807.33	27176
807.472	27104
807.614	26956
807.756	26929
807.898	26956
808.04	26853
808.182	26792
808.324	27005
808.465	26845
808.607	27116
808.749	27268
808.891	27287
809.033	27359
809.174	27462
809.316	27256
809.458	27275
809.6	27093
809.741	27393
809.883	27424
810.025	27469
810.166	27439
810.308	27641
810.45	27466
810.591	27313
810.733	27150
810.875	27298
811.016	27112
811.158	27279
811.299	27355
811.441	27477
811.582	27485
811.724	27310
811.865	27096
812.007	27218
812.148	27249
812.29	27302
812.431	27397
812.573	27603
812.714	27641
812.855	27652
812.997	27785
813.138	27808
813.279	27846
813.421	27865
813.562	27637
813.703	27610
813.845	27477
813.986	27104
814.127	27001
814.268	26880
814.41	26887
814.551	26994
814.692	27062
814.833	26845
814.974	26872
815.115	26948
815.256	26712
815.397	26823
815.539	26769
815.68	26609
815.821	26568
815.962	26606
816.103	26590
816.244	26492
816.385	26469
816.526	26381
816.666	26267
816.807	26130
816.948	26248
817.089	26362
817.23	26183
817.371	26149
817.512	26088
817.653	26218
817.793	25997
817.934	26252
818.075	26122
818.216	26130
818.356	26073
818.497	25955
818.638	25795
818.778	25868
818.919	25932
819.06	25955
819.2	25963
819.341	26161
819.481	26145
819.622	26240
819.762	26415
819.903	26480
820.043	26324
820.184	26339
820.324	26187
820.465	26259
820.605	26168
820.746	26199
820.886	26115
821.026	26259
821.167	26134
821.307	26073
821.447	26252
821.588	26020
821.728	25921
821.868	25791
822.008	25601
822.149	25605
822.289	25677
822.429	25419
822.569	25339
822.709	25304
822.849	25072
822.99	25057
823.13	24947
823.27	25088
823.41	24848
823.55	24829
823.69	25019
823.83	24871
823.97	24897
824.11	24684
824.25	24722
824.389	24623
824.529	24798
824.669	24642
824.809	24890
824.949	24741
825.089	24814
825.228	24776
825.368	24593
825.508	24540
825.648	24608
825.787	24688
825.927	24536
826.067	24521
826.206	24639
826.346	24681
826.485	24646
826.625	24589
826.765	24707
826.904	24475
827.044	24369
827.183	24460
827.323	24251
827.462	24437
827.601	24281
827.741	24190
827.88	24338
828.02	24144
828.159	24273
828.298	24281
828.437	24262
828.577	24251
828.716	24361
828.855	24190
828.994	24049
829.134	24083
829.273	23999
829.412	24038
829.551	23885
829.69	23893
829.829	23908
829.968	24003
830.107	24041
830.246	24057
830.385	23977
830.524	23958
830.663	23775
830.802	23760
830.941	23634
831.08	23570
831.219	23646
831.357	23779
831.496	23821
831.635	23600
831.774	23512
831.913	23501
832.051	23414
832.19	23379
832.329	23395
832.467	23292
832.606	23136
832.744	23242
832.883	23288
833.022	23178
833.16	23227
833.299	23212
833.437	23269
833.576	23330
833.714	23212
833.852	23364
833.991	23341
834.129	23383
834.267	23436
834.406	23474
834.544	23421
834.682	23368
834.821	23254
834.959	23528
835.097	23204
835.235	23136
835.373	23360
835.511	23383
835.65	23296
835.788	23159
835.926	23083
836.064	23075
836.202	22942
836.34	23147
836.478	23239
836.615	23166
836.753	23113
836.891	23307
837.029	23242
837.167	23132
837.305	23037
837.443	22972
837.58	22915
837.718	23117
837.856	23041
837.993	22987
838.131	22987
838.269	22919
838.406	22904
838.544	22911
838.681	22843
838.819	22622
838.956	22641
839.094	22512
839.231	22512
839.369	22683
839.506	22873
839.643	22653
839.781	22519
839.918	22443
840.055	22455
840.193	22546
840.33	22386
840.467	22443
840.604	22573
840.742	22634
840.879	22272
841.016	22314
841.153	22230
841.29	22512
841.427	22386
841.564	22367
841.701	22356
841.838	22428
841.975	22284
842.112	22367
842.249	22226
842.385	22249
842.522	22493
842.659	22280
842.796	22310
842.933	22067
843.069	22128
843.206	22120
843.343	22093
843.479	22158
843.616	22055
843.752	21774
843.889	22025
844.025	22177
844.162	22029
844.298	22013
844.435	22021
844.571	21926
844.708	21991
844.844	22124
844.98	22112
845.117	22029
845.253	21880
845.389	21717
845.525	21876
845.661	21857
845.798	21694
845.934	21781
846.07	21671
846.206	21762
846.342	21800
846.478	21686
846.614	21507
846.75	21237
846.886	21481
847.022	21412
847.158	21397
847.294	21370
847.429	21500
847.565	21233
847.701	21827
847.837	21180
847.972	21184
848.108	21252
848.244	21260
848.379	20975
848.515	21001
848.65	21005
848.786	21036
848.921	21226
849.057	21123
849.192	21032
849.328	21077
849.463	21100
849.598	21036
849.734	20796
849.869	20872
850.004	20750
850.14	20804
850.275	20769
850.41	20701
850.545	20788
850.68	20682
850.815	20815
850.95	20750
851.085	21036
851.22	20792
851.355	20819
851.49	20735
851.625	20739
851.76	20727
851.895	20754
852.03	20640
852.165	20944
852.299	20716
852.434	20880
852.569	20765
852.703	20678
852.838	20849
852.973	20990
853.107	20880
853.242	20731
853.376	20609
853.511	20526
853.645	20499
853.78	20746
853.914	20511
854.048	20480
854.183	20412
854.317	20674
854.451	20731
854.585	20556
854.72	20579
854.854	20587
854.988	20476
855.122	20583
855.256	20492
855.39	20594
855.524	20648
855.658	20686
855.792	20617
855.926	20625
856.06	20568
856.194	20636
856.327	20480
856.461	20556
856.595	20530
856.729	20549
856.862	20705
856.996	20583
857.13	20655
857.263	20590
857.397	20739
857.53	20629
857.664	20632
857.797	20682
857.931	20663
858.064	20667
858.197	20670
858.331	20571
858.464	20469
858.597	20473
858.731	20644
858.864	20552
858.997	20590
859.13	20590
859.263	20632
859.396	20670
859.529	20594
859.662	20530
859.795	20434
859.928	20621
860.061	20731
860.194	20701
860.327	20655
860.46	20606
860.592	20834
860.725	20758
860.858	20689
860.99	20579
861.123	20419
861.256	20568
861.388	20651
861.521	21226
861.653	20370
861.786	20370
861.918	20473
862.05	20537
862.183	20552
862.315	20484
862.447	20594
862.58	20530
862.712	20229
862.844	20294
862.976	20438
863.108	20450
863.24	20796
863.372	20332
863.504	20282
863.636	20305
863.768	20393
863.9	20385
864.032	20183
864.164	20343
864.296	20248
864.428	20389
864.559	20347
864.691	20324
864.823	20233
864.954	20282
865.086	20393
865.217	20286
865.349	20221
865.48	20172
865.612	20294
865.743	20336
865.875	20301
866.006	20275
866.137	20210
866.269	20145
866.4	20214
866.531	20183
866.662	20088
866.793	20153
866.924	20221
867.055	20199
867.186	20107
867.317	20195
867.448	20130
867.579	20050
867.71	20031
867.841	19989
867.972	20069
868.103	20202
868.233	20161
868.364	20195
868.495	20271
868.625	20332
868.756	20480
868.886	20271
869.017	20343
869.147	20423
869.278	20488
869.408	20339
869.539	20423
869.669	20419
869.799	20465
869.929	20370
870.06	20492
870.19	20705
870.32	20731
870.45	20632
870.58	20724
870.71	20853
870.84	20880
870.97	20864
871.1	20769
871.23	20944
871.36	20952
871.489	20921
871.619	20918
871.749	20921
871.879	21146
872.008	21024
872.138	20918
872.267	21116
872.397	20849
872.526	20876
872.656	20842
872.785	20876
872.915	21077
873.044	21184
873.173	20971
873.303	21081
873.432	21024
873.561	21085
873.69	20975
873.819	21009
873.948	21161
874.077	21093
874.206	20902
874.335	20975
874.464	21081
874.593	21291
874.722	21214
874.851	21313
874.979	21279
875.108	21256
875.237	21146
875.365	21237
875.494	21188
875.623	21283
875.751	21214
875.88	21241
876.008	21393
876.136	21431
876.265	21736
876.393	22002
876.521	21789
876.65	21743
876.778	21785
876.906	21618
877.034	21629
877.162	21580
877.29	21519
877.418	21648
877.546	21675
877.674	21629
877.802	21526
877.93	21576
878.058	21580
878.185	21500
878.313	21576
878.441	21618
878.568	21443
878.696	21515
878.824	21523
878.951	21728
879.079	21827
879.206	21922
879.333	21705
879.461	21644
879.588	21755
879.715	21743
879.842	21854
879.97	21701
880.097	21393
880.224	21298
880.351	21534
880.478	21496
880.605	21393
880.732	21477
880.859	21724
880.986	21469
881.112	21416
881.239	21298
881.366	21146
881.493	21112
881.619	20990
881.746	21009
881.872	20967
881.999	21066
882.125	20902
882.252	21100
882.378	21051
882.505	21070
882.631	20823
882.757	20689
882.883	20743
883.01	20773
883.136	20735
883.262	20655
883.388	20499
883.514	20625
883.64	20769
883.766	20686
883.892	20450
884.018	20552
884.143	20678
884.269	20758
884.395	20465
884.52	20393
884.646	20415
884.772	20210
884.897	20301
885.023	20385
885.148	20495
885.274	20362
885.399	20438
885.524	20427
885.65	20457
885.775	20355
885.9	20336
886.025	20385
886.15	20343
886.275	20366
886.4	20244
886.525	20305
886.65	20298
886.775	20229
886.9	20419
887.025	20708
887.149	20233
887.274	20229
887.399	20164
887.523	20172
887.648	20115
887.773	20145
887.897	20271
888.021	20229
888.146	20073
888.27	20267
888.395	20225
888.519	20168
888.643	20237
888.767	20149
888.891	20111
889.015	20008
889.139	20096
889.263	19909
889.387	19989
889.511	20138
889.635	20039
889.759	19986
889.883	19830
890.006	19951
890.13	20050
890.254	19727
890.377	19989
890.501	19635
890.624	19708
890.748	19769
890.871	19590
890.995	19483
891.118	19384
891.241	19620
891.364	19476
891.488	19666
891.611	19529
891.734	19495
891.857	19445
891.98	19506
892.103	19613
892.226	19556
892.349	19613
892.471	19373
892.594	19487
892.717	19453
892.839	19457
892.962	19449
893.085	19453
893.207	19422
893.33	19304
893.452	19335
893.575	19487
893.697	19506
893.819	19601
893.941	19609
894.064	19552
894.186	19388
894.308	19297
894.43	19632
894.552	19502
894.674	19540
894.796	19377
894.918	19324
895.04	19369
895.161	19605
895.283	19567
895.405	19384
895.526	19472
895.648	19384
895.769	19419
895.891	19537
896.012	19521
896.134	19563
896.255	19430
896.376	19365
896.498	19460
896.619	19499
896.74	19377
896.861	19525
896.982	19750
897.103	19906
897.224	19750
897.345	19693
897.466	19609
897.587	19799
897.708	19822
897.828	19772
897.949	19723
898.07	19483
898.19	19537
898.311	19655
898.431	19639
898.552	19765
898.672	19776
898.792	19693
898.913	19753
899.033	19586
899.153	19518
899.273	19411
899.393	19335
899.513	19438
899.633	19514
899.753	19514
899.873	19308
899.993	19540
900.113	19392
900.232	19434
900.352	19441
900.472	19308
900.591	19255
900.711	19320
900.83	19278
900.95	19346
901.069	19270
901.189	19027
901.308	18966
901.427	18878
901.546	18924
901.665	19012
901.784	18932
901.904	18707
902.023	18642
902.141	18384
902.26	18464
902.379	18525
902.498	18342
902.617	18228
902.735	18380
902.854	18380
902.973	18323
903.091	18114
903.21	18095
903.328	18060
903.446	18030
903.565	17920
903.683	17931
903.801	17836
903.919	17741
904.038	17920
904.156	17516
904.274	17661
904.392	17573
904.51	17649
904.627	17558
904.745	17516
904.863	17596
904.981	17505
905.098	17246
905.216	17356
905.334	17269
905.451	17383
905.569	17273
905.686	17273
905.803	17288
905.921	17102
906.038	17197
906.155	17079
906.272	16968
906.389	17067
906.506	16816
906.623	16881
906.74	16835
906.857	16706
906.974	16653
907.091	16869
907.208	16892
907.324	16896
907.441	16679
907.557	16622
907.674	16599
907.79	16424
907.907	16554
908.023	16618
908.139	16535
908.256	16485
908.372	16443
908.488	16428
908.604	16398
908.72	16253
908.836	16367
908.952	16242
909.068	16341
909.184	16303
909.3	16246
909.415	16402
909.531	16257
909.647	16032
909.762	15994
909.878	15937
909.993	15968
910.108	15941
910.224	16002
910.339	15907
910.454	15888
910.57	15850
910.685	15724
910.8	16006
910.915	15983
911.03	15873
911.145	15618
911.259	15477
911.374	15542
911.489	15519
911.604	15485
911.718	15344
911.833	15393
911.947	15256
912.062	15233
912.176	15378
912.291	15355
912.405	15405
912.519	15641
912.633	15549
912.748	15348
912.862	15340
912.976	15184
913.09	15032
913.204	15150
913.318	15287
913.431	15291
913.545	15192
913.659	15176
913.772	15138
913.886	14937
914	14948
914.113	15146
914.226	15066
914.34	15062
914.453	14868
914.566	15036
914.68	14796
914.793	14762
914.906	14648
915.019	14617
915.132	14492
915.245	14568
915.358	14583
915.47	14530
915.583	14571
915.696	14644
915.809	14701
915.921	14674
916.034	14503
916.146	14575
916.259	14404
916.371	14545
916.483	14484
916.595	14480
916.708	14469
916.82	14393
916.932	14412
917.044	14415
917.156	14396
917.268	14256
917.38	14256
917.491	14259
917.603	14298
917.715	14343
917.826	14332
917.938	14214
918.049	14107
918.161	14218
918.272	14282
918.384	14343
918.495	14225
918.606	14065
918.717	13928
918.828	14119
918.939	14039
919.05	13989
919.161	14005
919.272	13776
919.383	13795
919.494	14073
919.604	14172
919.715	14039
919.826	13849
919.936	13936
920.047	14054
920.157	13989
920.267	14126
920.378	14005
920.488	13955
920.598	14256
920.708	14240
920.818	14145
920.928	14153
921.038	14286
921.148	14180
921.258	13989
921.368	13879
921.477	13788
921.587	13674
921.697	13616
921.806	13852
921.916	13601
922.025	13445
922.134	13460
922.244	13392
922.353	13502
922.462	13274
922.571	13156
922.68	13088
922.789	13042
922.898	13027
923.007	13050
923.116	13038
923.224	12989
923.333	13000
923.442	12863
923.55	12958
923.659	12848
923.767	12977
923.876	12909
923.984	12875
924.092	12787
924.201	12817
924.309	12779
924.417	12867
924.525	12791
924.633	12681
924.741	13662
924.849	12506
924.956	12635
925.064	12563
925.172	12426
925.279	12540
925.387	12521
925.494	12471
925.602	12642
925.709	12566
925.816	12426
925.924	12483
926.031	12521
926.138	12395
926.245	12525
926.352	12403
926.459	12506
926.566	12563
926.673	12330
926.779	12224
926.886	12182
926.993	12098
927.099	12076
927.206	12003
927.312	12102
927.419	12079
927.525	12095
927.631	12064
927.737	12038
927.843	11954
927.95	11764
928.056	11927
928.162	12019
928.267	11977
928.373	12570
928.479	12015
928.585	11809
928.69	11851
928.796	11901
928.901	11756
929.007	11566
929.112	11786
929.218	11790
929.323	11752
929.428	11638
929.533	11836
929.638	11551
929.743	11619
929.848	11653
929.953	11585
930.058	11444
930.163	11322
930.267	11372
930.372	11383
930.477	11330
930.581	11512
930.685	11395
930.79	11216
930.894	11273
930.998	11208
931.103	11425
931.207	10953
931.311	10904
931.415	10816
931.519	10679
931.623	10637
