Data from test_V78500241_3472.txt Node
Date: Fri Mar 25 15:34:02 CST 2022
User: usil
Spectrometer: V785-0024
Trigger mode: 0
Integration Time (sec): 4.000000E-1
Scans to average: 1
Nonlinearity correction enabled: false
Boxcar width: 0
Storing dark spectrum: false
XAxis mode: Wavelengths
Number of Pixels in Spectrum: 1024
>>>>>Begin Spectral Data<<<<<
801.071	27260
801.214	27131
801.356	27173
801.499	26845
801.641	26735
801.783	26823
801.926	26857
802.068	26834
802.211	26731
802.353	26667
802.496	26533
802.638	26564
802.78	26541
802.923	26381
803.065	26278
803.208	26381
803.35	26476
803.492	26678
803.635	26750
803.777	26716
803.919	26617
804.061	26902
804.204	26667
804.346	26556
804.488	26450
804.63	26545
804.773	26476
804.915	26579
805.057	26606
805.199	26446
805.341	26640
805.483	26727
805.626	26621
805.768	26583
805.91	26754
806.052	26762
806.194	26575
806.336	26796
806.478	26705
806.62	26667
806.762	26804
806.904	27024
807.046	27207
807.188	27291
807.33	27089
807.472	27203
807.614	26937
807.756	27070
807.898	26921
808.04	27020
808.182	26796
808.324	27051
808.465	27024
808.607	27135
808.749	27397
808.891	27291
809.033	27466
809.174	27275
809.316	27310
809.458	27226
809.6	27157
809.741	27332
809.883	27427
810.025	27504
810.166	27348
810.308	27538
810.45	27511
810.591	27504
810.733	27272
810.875	27245
811.016	27176
811.158	27237
811.299	27340
811.441	27378
811.582	27454
811.724	27214
811.865	27367
812.007	27131
812.148	27207
812.29	27279
812.431	27329
812.573	27606
812.714	27797
812.855	27625
812.997	27941
813.138	28059
813.279	27884
813.421	27827
813.562	27644
813.703	27591
813.845	27378
813.986	27119
814.127	27104
814.268	26861
814.41	26967
814.551	26830
814.692	27024
814.833	26842
814.974	26777
815.115	26967
815.256	26796
815.397	26811
815.539	26785
815.68	26765
815.821	26655
815.962	26773
816.103	26765
816.244	26484
816.385	26568
816.526	26415
816.666	26313
816.807	26180
816.948	26218
817.089	26320
817.23	26225
817.371	26145
817.512	26084
817.653	26100
817.793	26111
817.934	26191
818.075	26126
818.216	26206
818.356	26100
818.497	26100
818.638	25955
818.778	25906
818.919	25894
819.06	26012
819.2	26237
819.341	26191
819.481	26122
819.622	26317
819.762	26541
819.903	26393
820.043	26381
820.184	26256
820.324	26259
820.465	26343
820.605	26309
820.746	26278
820.886	26168
821.026	26172
821.167	26187
821.307	26358
821.447	26039
821.588	26149
821.728	26027
821.868	25742
822.008	25628
822.149	25757
822.289	25689
822.429	25464
822.569	25289
822.709	25422
822.849	25152
822.99	25255
823.13	25202
823.27	25118
823.41	24947
823.55	25004
823.69	25053
823.83	24962
823.97	25008
824.11	24890
824.25	24821
824.389	24916
824.529	24829
824.669	24882
824.809	24989
824.949	24776
825.089	24741
825.228	24890
825.368	24726
825.508	24623
825.648	24669
825.787	24669
825.927	24726
826.067	24688
826.206	24681
826.346	24757
826.485	24787
826.625	24684
826.765	24726
826.904	24719
827.044	24479
827.183	24498
827.323	24456
827.462	24437
827.601	24460
827.741	24258
827.88	24437
828.02	24270
828.159	24407
828.298	24410
828.437	24380
828.577	24418
828.716	24403
828.855	24311
828.994	24262
829.134	24148
829.273	24133
829.412	24121
829.551	24034
829.69	24155
829.829	24072
829.968	24197
830.107	24239
830.246	24148
830.385	24038
830.524	24018
830.663	23973
830.802	23813
830.941	23771
831.08	23726
831.219	23863
831.357	23870
831.496	24018
831.635	23771
831.774	23783
831.913	23566
832.051	23558
832.19	23528
832.329	23486
832.467	23490
832.606	23326
832.744	23417
832.883	23364
833.022	23417
833.16	23478
833.299	23448
833.437	23440
833.576	23452
833.714	23539
833.852	23482
833.991	23444
834.129	23585
834.267	23604
834.406	23455
834.544	23471
834.682	23646
834.821	23539
834.959	23775
835.097	23436
835.235	23608
835.373	23414
835.511	23421
835.65	23258
835.788	23204
835.926	23170
836.064	23159
836.202	23197
836.34	23311
836.478	23486
836.615	23345
836.753	23318
836.891	23364
837.029	23311
837.167	23349
837.305	23258
837.443	23235
837.58	23147
837.718	23292
837.856	23231
837.993	23121
838.131	23246
838.269	23044
838.406	22987
838.544	22984
838.681	22885
838.819	22885
838.956	22733
839.094	22702
839.231	22759
839.369	22919
839.506	23117
839.643	22961
839.781	22637
839.918	22634
840.055	22615
840.193	22611
840.33	22607
840.467	22577
840.604	22752
840.742	22885
840.879	22489
841.016	22641
841.153	22569
841.29	22630
841.427	22596
841.564	22679
841.701	22683
841.838	22550
841.975	22440
842.112	22493
842.249	22379
842.385	22443
842.522	22546
842.659	22561
842.796	22386
842.933	22432
843.069	22371
843.206	22402
843.343	22474
843.479	22360
843.616	22405
843.752	22143
843.889	22048
844.025	22234
844.162	22181
844.298	22272
844.435	22154
844.571	22211
844.708	22219
844.844	22329
844.98	22230
845.117	22276
845.253	22158
845.389	22116
845.525	22040
845.661	22006
845.798	21934
845.934	21949
846.07	21857
846.206	21823
846.342	22025
846.478	21816
846.614	21739
846.75	21545
846.886	21576
847.022	21759
847.158	21686
847.294	21583
847.429	21580
847.565	21641
847.701	21941
847.837	21336
847.972	21340
848.108	21504
848.244	21492
848.379	21302
848.515	21306
848.65	21169
848.786	21150
848.921	21195
849.057	21226
849.192	21306
849.328	21329
849.463	21306
849.598	21123
849.734	21199
849.869	21089
850.004	21070
850.14	20971
850.275	21055
850.41	20887
850.545	20948
850.68	20906
850.815	21028
850.95	20960
851.085	21066
851.22	21047
851.355	20891
851.49	21036
851.625	20933
851.76	20899
851.895	20906
852.03	20876
852.165	20929
852.299	21058
852.434	21043
852.569	20990
852.703	21020
852.838	21024
852.973	21070
853.107	21146
853.242	20971
853.376	20815
853.511	20708
853.645	20693
853.78	20731
853.914	20708
854.048	20769
854.183	20727
854.317	20956
854.451	21096
854.585	20861
854.72	20853
854.854	20918
854.988	20712
855.122	20796
855.256	20613
855.39	20849
855.524	20864
855.658	20963
855.792	20785
855.926	20781
856.06	20857
856.194	20906
856.327	20804
856.461	20758
856.595	20708
856.729	20823
856.862	20838
856.996	20769
857.13	20834
857.263	20864
857.397	20948
857.53	20788
857.664	20921
857.797	20834
857.931	20918
858.064	20815
858.197	20979
858.331	20758
858.464	20693
858.597	20739
858.731	20823
858.864	20735
858.997	20716
859.13	20769
859.263	20887
859.396	20876
859.529	20785
859.662	20785
859.795	20689
859.928	20842
860.061	20975
860.194	21009
860.327	20842
860.46	20845
860.592	20941
860.725	20899
860.858	20960
860.99	20739
861.123	20731
861.256	20788
861.388	20906
861.521	21542
861.653	20651
861.786	20712
861.918	20575
862.05	20667
862.183	20632
862.315	20769
862.447	20792
862.58	20746
862.712	20438
862.844	20549
862.976	20552
863.108	20594
863.24	20971
863.372	20442
863.504	20530
863.636	20518
863.768	20629
863.9	20465
864.032	20552
864.164	20473
864.296	20465
864.428	20587
864.559	20552
864.691	20613
864.823	20568
864.954	20560
865.086	20465
865.217	20473
865.349	20408
865.48	20343
865.612	20423
865.743	20480
865.875	20412
866.006	20377
866.137	20431
866.269	20438
866.4	20461
866.531	20358
866.662	20419
866.793	20374
866.924	20290
867.055	20385
867.186	20488
867.317	20290
867.448	20161
867.579	20320
867.71	20400
867.841	20290
867.972	20454
868.103	20267
868.233	20336
868.364	20298
868.495	20450
868.625	20568
868.756	20609
868.886	20651
869.017	20590
869.147	20746
869.278	20788
869.408	20625
869.539	20621
869.669	20579
869.799	20678
869.929	20807
870.06	20636
870.19	20788
870.32	20819
870.45	20979
870.58	21039
870.71	21089
870.84	21146
870.97	20960
871.1	20944
871.23	21176
871.36	21256
871.489	21005
871.619	21104
871.749	21226
871.879	21142
872.008	21264
872.138	21146
872.267	21192
872.397	21096
872.526	21058
872.656	21066
872.785	21058
872.915	21256
873.044	21268
873.173	21116
873.303	21317
873.432	21317
873.561	21252
873.69	21272
873.819	21135
873.948	21355
874.077	21218
874.206	21275
874.335	21245
874.464	21329
874.593	21462
874.722	21393
874.851	21633
874.979	21504
875.108	21530
875.237	21378
875.365	21310
875.494	21424
875.623	21606
875.751	21492
875.88	21568
876.008	21526
876.136	21732
876.265	21915
876.393	21934
876.521	21918
876.65	22025
876.778	21838
876.906	21743
877.034	21656
877.162	21903
877.29	21667
877.418	21892
877.546	21759
877.674	21812
877.802	21865
877.93	21819
878.058	21804
878.185	21694
878.313	21785
878.441	21846
878.568	21717
878.696	21709
878.824	21774
878.951	21926
879.079	22147
879.206	22211
879.333	21926
879.461	21899
879.588	22006
879.715	22021
879.842	22063
879.97	21857
880.097	21705
880.224	21648
880.351	21690
880.478	21652
880.605	21583
880.732	21614
880.859	21793
880.986	21732
881.112	21660
881.239	21393
881.366	21336
881.493	21245
881.619	21131
881.746	21226
881.872	21222
881.999	21104
882.125	21123
882.252	21192
882.378	21184
882.505	21310
882.631	21062
882.757	20899
882.883	21135
883.01	21051
883.136	20876
883.262	20781
883.388	20777
883.514	20906
883.64	20933
883.766	20876
883.892	20739
884.018	20777
884.143	20887
884.269	20929
884.395	20625
884.52	20564
884.646	20587
884.772	20598
884.897	20454
885.023	20598
885.148	20678
885.274	20731
885.399	20640
885.524	20522
885.65	20571
885.775	20648
885.9	20545
886.025	20701
886.15	20708
886.275	20545
886.4	20431
886.525	20590
886.65	20503
886.775	20518
886.9	20571
887.025	20762
887.149	20575
887.274	20431
887.399	20244
887.523	20377
887.648	20214
887.773	20328
887.897	20533
888.021	20343
888.146	20389
888.27	20442
888.395	20476
888.519	20469
888.643	20473
888.767	20419
888.891	20271
889.015	20164
889.139	20248
889.263	20084
889.387	20286
889.511	20328
889.635	20278
889.759	20111
889.883	20282
890.006	20256
890.13	20195
890.254	20092
890.377	20107
890.501	19955
890.624	19807
890.748	19959
890.871	19696
890.995	19704
891.118	19662
891.241	19784
891.364	19761
891.488	19803
891.611	19780
891.734	19693
891.857	19898
891.98	19757
892.103	19807
892.226	19746
892.349	19677
892.471	19499
892.594	19696
892.717	19674
892.839	19620
892.962	19700
893.085	19704
893.207	19632
893.33	19578
893.452	19582
893.575	19635
893.697	19647
893.819	19868
893.941	19814
894.064	19868
894.186	19590
894.308	19590
894.43	19776
894.552	19772
894.674	19731
894.796	19563
894.918	19753
895.04	19601
895.161	19742
895.283	19670
895.405	19495
895.526	19632
895.648	19582
895.769	19571
895.891	19791
896.012	19658
896.134	19696
896.255	19582
896.376	19639
896.498	19655
896.619	19700
896.74	19590
896.861	19696
896.982	20027
897.103	20046
897.224	19875
897.345	19814
897.466	19928
897.587	19871
897.708	19967
897.828	19845
897.949	19780
898.07	19674
898.19	19750
898.311	19940
898.431	19830
898.552	19784
898.672	19875
898.792	19955
898.913	19917
899.033	19712
899.153	19750
899.273	19647
899.393	19601
899.513	19681
899.633	19628
899.753	19651
899.873	19563
899.993	19674
900.113	19586
900.232	19670
900.352	19533
900.472	19514
900.591	19301
900.711	19472
900.83	19282
900.95	19430
901.069	19487
901.189	19301
901.308	19114
901.427	18977
901.546	18932
901.665	18993
901.784	19023
901.904	18859
902.023	18734
902.141	18654
902.26	18601
902.379	18627
902.498	18475
902.617	18410
902.735	18593
902.854	18464
902.973	18384
903.091	18243
903.21	18327
903.328	18178
903.446	18117
903.565	18068
903.683	17965
903.801	17832
903.919	17859
904.038	17996
904.156	17722
904.274	17859
904.392	17847
904.51	17752
904.627	17767
904.745	17813
904.863	17798
904.981	17589
905.098	17425
905.216	17497
905.334	17482
905.451	17455
905.569	17406
905.686	17478
905.803	17520
905.921	17311
906.038	17387
906.155	17345
906.272	17136
906.389	17220
906.506	16980
906.623	17075
906.74	16999
906.857	16881
906.974	16885
907.091	16984
907.208	17105
907.324	17022
907.441	16938
907.557	16740
907.674	16599
907.79	16656
907.907	16694
908.023	16622
908.139	16679
908.256	16596
908.372	16626
908.488	16683
908.604	16489
908.72	16291
908.836	16455
908.952	16382
909.068	16569
909.184	16436
909.3	16325
909.415	16481
909.531	16409
909.647	16166
909.762	16097
909.878	16188
909.993	16128
910.108	16059
910.224	16158
910.339	16154
910.454	15987
910.57	16017
910.685	15937
910.8	16215
910.915	16090
911.03	15994
911.145	15842
911.259	15751
911.374	15667
911.489	15682
911.604	15652
911.718	15462
911.833	15584
911.947	15428
912.062	15462
912.176	15603
912.291	15447
912.405	15515
912.519	15762
912.633	15606
912.748	15511
912.862	15488
912.976	15355
913.09	15249
913.204	15260
913.318	15408
913.431	15466
913.545	15469
913.659	15363
913.772	15283
913.886	15252
914	15066
914.113	15321
914.226	15233
914.34	15222
914.453	15017
914.566	15093
914.68	15024
914.793	15005
914.906	14754
915.019	14792
915.132	14758
915.245	14845
915.358	14800
915.47	14712
915.583	14655
915.696	14754
915.809	14838
915.921	14804
916.034	14613
916.146	14670
916.259	14632
916.371	14758
916.483	14777
916.595	14625
916.708	14758
916.82	14530
916.932	14549
917.044	14537
917.156	14450
917.268	14484
917.38	14457
917.491	14362
917.603	14393
917.715	14533
917.826	14457
917.938	14259
918.049	14130
918.161	14309
918.272	14385
918.384	14511
918.495	14294
918.606	14221
918.717	14161
918.828	14263
918.939	14172
919.05	14081
919.161	14103
919.272	13978
919.383	14050
919.494	14202
919.604	14412
919.715	14149
919.826	14016
919.936	14153
920.047	14229
920.157	14142
920.267	14305
920.378	14123
920.488	14168
920.598	14358
920.708	14522
920.818	14237
920.928	14161
921.038	14507
921.148	14389
921.258	14073
921.368	14054
921.477	13986
921.587	13871
921.697	13772
921.806	13841
921.916	13712
922.025	13582
922.134	13540
922.244	13453
922.353	13567
922.462	13438
922.571	13460
922.68	13270
922.789	13175
922.898	13221
923.007	13202
923.116	13198
923.224	13194
923.333	13168
923.442	13088
923.55	13000
923.659	13034
923.767	13057
923.876	12958
923.984	13015
924.092	12859
924.201	12894
924.309	13019
924.417	12977
924.525	12916
924.633	12890
924.741	13613
924.849	12665
924.956	12776
925.064	12677
925.172	12578
925.279	12620
925.387	12642
925.494	12585
925.602	12692
925.709	12677
925.816	12506
925.924	12620
926.031	12585
926.138	12654
926.245	12589
926.352	12509
926.459	12620
926.566	12654
926.673	12513
926.779	12361
926.886	12479
926.993	12140
927.099	12243
927.206	12171
927.312	12148
927.419	12228
927.525	12228
927.631	12167
927.737	12079
927.843	12026
927.95	11965
928.056	11965
928.162	11992
928.267	12064
928.373	12604
928.479	12106
928.585	11836
928.69	11969
928.796	12076
928.901	11878
929.007	11764
929.112	11942
929.218	11923
929.323	11802
929.428	11748
929.533	11961
929.638	11707
929.743	11703
929.848	11729
929.953	11707
930.058	11649
930.163	11474
930.267	11482
930.372	11532
930.477	11383
930.581	11577
930.685	11486
930.79	11406
930.894	11318
930.998	11299
931.103	11478
931.207	11060
931.311	10957
931.415	10930
931.519	10793
931.623	10759
