Data from test_V78500241_920.txt Node
Date: Fri Mar 25 15:16:15 CST 2022
User: usil
Spectrometer: V785-0024
Trigger mode: 0
Integration Time (sec): 4.000000E-1
Scans to average: 1
Nonlinearity correction enabled: false
Boxcar width: 0
Storing dark spectrum: false
XAxis mode: Wavelengths
Number of Pixels in Spectrum: 1024
>>>>>Begin Spectral Data<<<<<
801.071	28086
801.214	28074
801.356	28013
801.499	27789
801.641	27755
801.783	27739
801.926	27648
802.068	27739
802.211	27663
802.353	27709
802.496	27462
802.638	27416
802.78	27237
802.923	27264
803.065	27393
803.208	27306
803.35	27473
803.492	27542
803.635	27507
803.777	27526
803.919	27557
804.061	27785
804.204	27542
804.346	27591
804.488	27519
804.63	27568
804.773	27485
804.915	27770
805.057	27606
805.199	27591
805.341	27576
805.483	27732
805.626	27701
805.768	27644
805.91	27660
806.052	27720
806.194	27606
806.336	28029
806.478	27816
806.62	27865
806.762	27846
806.904	28017
807.046	28082
807.188	28093
807.33	28150
807.472	28147
807.614	27960
807.756	28265
807.898	28029
808.04	27930
808.182	28010
808.324	28044
808.465	28070
808.607	28310
808.749	28314
808.891	28421
809.033	28577
809.174	28516
809.316	28390
809.458	28303
809.6	28394
809.741	28561
809.883	28527
810.025	28649
810.166	28679
810.308	28820
810.45	28649
810.591	28607
810.733	28603
810.875	28360
811.016	28306
811.158	28390
811.299	28451
811.441	28618
811.582	28504
811.724	28344
811.865	28360
812.007	28474
812.148	28371
812.29	28443
812.431	28660
812.573	28809
812.714	28923
812.855	28938
812.997	29022
813.138	29159
813.279	29212
813.421	29014
813.562	29022
813.703	28752
813.845	28767
813.986	28481
814.127	28169
814.268	28048
814.41	28048
814.551	28207
814.692	28246
814.833	28093
814.974	28135
815.115	28226
815.256	28013
815.397	27979
815.539	28040
815.68	27846
815.821	27854
815.962	28029
816.103	27873
816.244	27804
816.385	27682
816.526	27800
816.666	27564
816.807	27420
816.948	27542
817.089	27496
817.23	27564
817.371	27348
817.512	27454
817.653	27572
817.793	27389
817.934	27252
818.075	27542
818.216	27367
818.356	27367
818.497	27363
818.638	27150
818.778	27195
818.919	27291
819.06	27154
819.2	27192
819.341	27382
819.481	27424
819.622	27477
819.762	27816
819.903	27694
820.043	27675
820.184	27587
820.324	27576
820.465	27629
820.605	27511
820.746	27675
820.886	27321
821.026	27462
821.167	27454
821.307	27644
821.447	27534
821.588	27329
821.728	27195
821.868	27066
822.008	26982
822.149	26880
822.289	26891
822.429	26571
822.569	26556
822.709	26514
822.849	26453
822.99	26575
823.13	26355
823.27	26400
823.41	26240
823.55	26100
823.69	26039
823.83	26248
823.97	26263
824.11	26153
824.25	25936
824.389	26043
824.529	26039
824.669	26107
824.809	26172
824.949	26096
825.089	26355
825.228	26062
825.368	26062
825.508	25986
825.648	25772
825.787	25868
825.927	25791
826.067	26035
826.206	25951
826.346	25966
826.485	26096
826.625	25852
826.765	26012
826.904	25944
827.044	25567
827.183	25761
827.323	25670
827.462	25719
827.601	25719
827.741	25655
827.88	25738
828.02	25533
828.159	25628
828.298	25670
828.437	25700
828.577	25594
828.716	25696
828.855	25544
828.994	25434
829.134	25278
829.273	25430
829.412	25362
829.551	25285
829.69	25274
829.829	25419
829.968	25422
830.107	25613
830.246	25388
830.385	25278
830.524	25278
830.663	25183
830.802	25065
830.941	24977
831.08	24985
831.219	25053
831.357	25084
831.496	25156
831.635	24859
831.774	24852
831.913	24821
832.051	24806
832.19	24806
832.329	24787
832.467	24593
832.606	24597
832.744	24654
832.883	24547
833.022	24574
833.16	24757
833.299	24779
833.437	24738
833.576	24673
833.714	24707
833.852	24814
833.991	24776
834.129	24806
834.267	24867
834.406	24715
834.544	24821
834.682	24616
834.821	24669
834.959	24833
835.097	24700
835.235	24741
835.373	24684
835.511	24734
835.65	24703
835.788	24593
835.926	24357
836.064	24418
836.202	24422
836.34	24620
836.478	24490
836.615	24585
836.753	24536
836.891	24665
837.029	24620
837.167	24528
837.305	24448
837.443	24365
837.58	24353
837.718	24399
837.856	24498
837.993	24319
838.131	24323
838.269	24273
838.406	24300
838.544	24079
838.681	24076
838.819	23973
838.956	23950
839.094	23878
839.231	23988
839.369	24171
839.506	24216
839.643	24106
839.781	24026
839.918	23786
840.055	23866
840.193	23843
840.33	23642
840.467	23684
840.604	23958
840.742	24087
840.879	23687
841.016	23691
841.153	23634
841.29	23840
841.427	23794
841.564	23790
841.701	23786
841.838	23714
841.975	23535
842.112	23543
842.249	23577
842.385	23490
842.522	23665
842.659	23638
842.796	23562
842.933	23520
843.069	23471
843.206	23414
843.343	23577
843.479	23570
843.616	23554
843.752	23216
843.889	23246
844.025	23410
844.162	23288
844.298	23284
844.435	23322
844.571	23250
844.708	23356
844.844	23417
844.98	23512
845.117	23398
845.253	23273
845.389	23098
845.525	23056
845.661	23231
845.798	23003
845.934	23094
846.07	22995
846.206	22949
846.342	23102
846.478	23094
846.614	22725
846.75	22812
846.886	22687
847.022	22828
847.158	22828
847.294	22744
847.429	22771
847.565	22774
847.701	23128
847.837	22379
847.972	22421
848.108	22592
848.244	22672
848.379	22402
848.515	22356
848.65	22344
848.786	22310
848.921	22306
849.057	22428
849.192	22489
849.328	22417
849.463	22443
849.598	22405
849.734	22261
849.869	22128
850.004	22090
850.14	22143
850.275	22169
850.41	21991
850.545	22120
850.68	22055
850.815	22204
850.95	21983
851.085	22356
851.22	22192
851.355	22192
851.49	22090
851.625	22135
851.76	22021
851.895	21979
852.03	22109
852.165	22105
852.299	22226
852.434	22204
852.569	22112
852.703	22139
852.838	22192
852.973	22253
853.107	22356
853.242	22234
853.376	21945
853.511	21907
853.645	22048
853.78	22196
853.914	22029
854.048	21892
854.183	21892
854.317	22097
854.451	22063
854.585	21949
854.72	21975
854.854	22150
854.988	21899
855.122	21922
855.256	21793
855.39	21918
855.524	22051
855.658	21960
855.792	21926
855.926	22021
856.06	21956
856.194	22093
856.327	22063
856.461	21823
856.595	21854
856.729	21998
856.862	22105
856.996	22063
857.13	21975
857.263	22063
857.397	22070
857.53	21960
857.664	21983
857.797	21918
857.931	22074
858.064	21964
858.197	22021
858.331	22013
858.464	21835
858.597	21755
858.731	21903
858.864	21869
858.997	21808
859.13	21922
859.263	21835
859.396	21975
859.529	21953
859.662	21892
859.795	21812
859.928	22006
860.061	21953
860.194	22120
860.327	22048
860.46	21945
860.592	22044
860.725	22059
860.858	22082
860.99	21899
861.123	21884
861.256	21892
861.388	22017
861.521	22691
861.653	21728
861.786	21770
861.918	21694
862.05	21861
862.183	21880
862.315	21926
862.447	22029
862.58	21831
862.712	21629
862.844	21720
862.976	21671
863.108	21701
863.24	22204
863.372	21618
863.504	21648
863.636	21660
863.768	21686
863.9	21682
864.032	21583
864.164	21622
864.296	21709
864.428	21751
864.559	21690
864.691	21720
864.823	21766
864.954	21583
865.086	21583
865.217	21553
865.349	21481
865.48	21591
865.612	21656
865.743	21671
865.875	21610
866.006	21473
866.137	21603
866.269	21519
866.4	21641
866.531	21351
866.662	21454
866.793	21526
866.924	21523
867.055	21526
867.186	21401
867.317	21435
867.448	21294
867.579	21488
867.71	21302
867.841	21378
867.972	21496
868.103	21485
868.233	21492
868.364	21466
868.495	21667
868.625	21656
868.756	21762
868.886	21614
869.017	21614
869.147	21964
869.278	21759
869.408	21827
869.539	21591
869.669	21781
869.799	21633
869.929	21766
870.06	21789
870.19	22029
870.32	22097
870.45	22109
870.58	22002
870.71	22158
870.84	22257
870.97	22162
871.1	22120
871.23	22306
871.36	22272
871.489	22128
871.619	22223
871.749	22242
871.879	22276
872.008	22306
872.138	22249
872.267	22253
872.397	22158
872.526	22131
872.656	22166
872.785	22219
872.915	22333
873.044	22344
873.173	22230
873.303	22291
873.432	22402
873.561	22421
873.69	22272
873.819	22394
873.948	22333
874.077	22246
874.206	22306
874.335	22375
874.464	22546
874.593	22500
874.722	22394
874.851	22615
874.979	22497
875.108	22630
875.237	22367
875.365	22512
875.494	22493
875.623	22580
875.751	22672
875.88	22596
876.008	22637
876.136	22755
876.265	22820
876.393	23105
876.521	22953
876.65	22987
876.778	23041
876.906	22930
877.034	22812
877.162	22896
877.29	22847
877.418	22946
877.546	22801
877.674	22919
877.802	22885
877.93	22831
878.058	22831
878.185	22790
878.313	22850
878.441	22820
878.568	22691
878.696	22816
878.824	22748
878.951	22934
879.079	22949
879.206	23174
879.333	22961
879.461	22854
879.588	23071
879.715	22900
879.842	23151
879.97	23014
880.097	22584
880.224	22641
880.351	22752
880.478	22618
880.605	22630
880.732	22706
880.859	22862
880.986	22698
881.112	22675
881.239	22527
881.366	22432
881.493	22356
881.619	22242
881.746	22424
881.872	22246
881.999	22200
882.125	22185
882.252	22257
882.378	22291
882.505	22299
882.631	22093
882.757	22025
882.883	21907
883.01	21964
883.136	21979
883.262	21835
883.388	21842
883.514	21876
883.64	22029
883.766	21907
883.892	21728
884.018	21675
884.143	21861
884.269	22021
884.395	21599
884.52	21743
884.646	21606
884.772	21530
884.897	21515
885.023	21641
885.148	21682
885.274	21709
885.399	21694
885.524	21538
885.65	21629
885.775	21629
885.9	21610
886.025	21686
886.15	21625
886.275	21515
886.4	21397
886.525	21561
886.65	21488
886.775	21420
886.9	21614
887.025	21728
887.149	21606
887.274	21424
887.399	21321
887.523	21291
887.648	21329
887.773	21279
887.897	21405
888.021	21378
888.146	21370
888.27	21405
888.395	21412
888.519	21443
888.643	21363
888.767	21363
888.891	21313
889.015	21154
889.139	21176
889.263	21112
889.387	21408
889.511	21378
889.635	21340
889.759	21142
889.883	21089
890.006	21142
890.13	21195
890.254	21135
890.377	21116
890.501	20990
890.624	20914
890.748	20971
890.871	20762
890.995	20697
891.118	20568
891.241	20670
891.364	20762
891.488	20857
891.611	20735
891.734	20796
891.857	20773
891.98	20777
892.103	20712
892.226	20629
892.349	20648
892.471	20522
892.594	20537
892.717	20754
892.839	20575
892.962	20625
893.085	20602
893.207	20537
893.33	20362
893.452	20549
893.575	20686
893.697	20454
893.819	20750
893.941	20716
894.064	20743
894.186	20537
894.308	20537
894.43	20769
894.552	20693
894.674	20625
894.796	20488
894.918	20434
895.04	20533
895.161	20571
895.283	20674
895.405	20526
895.526	20583
895.648	20522
895.769	20606
895.891	20560
896.012	20579
896.134	20651
896.255	20629
896.376	20545
896.498	20571
896.619	20549
896.74	20514
896.861	20564
896.982	20868
897.103	21043
897.224	20754
897.345	20895
897.466	20670
897.587	20800
897.708	20910
897.828	20750
897.949	20743
898.07	20648
898.19	20785
898.311	20735
898.431	20609
898.552	20861
898.672	20838
898.792	20842
898.913	20769
899.033	20678
899.153	20606
899.273	20503
899.393	20556
899.513	20560
899.633	20484
899.753	20465
899.873	20412
899.993	20476
900.113	20564
900.232	20541
900.352	20412
900.472	20408
900.591	20286
900.711	20366
900.83	20305
900.95	20396
901.069	20434
901.189	20180
901.308	20001
901.427	19963
901.546	19833
901.665	19868
901.784	19898
901.904	19715
902.023	19693
902.141	19502
902.26	19343
902.379	19415
902.498	19335
902.617	19236
902.735	19381
902.854	19274
902.973	19244
903.091	19103
903.21	19053
903.328	19091
903.446	18924
903.565	18817
903.683	18947
903.801	18779
903.919	18753
904.038	18871
904.156	18711
904.274	18684
904.392	18502
904.51	18627
904.627	18665
904.745	18661
904.863	18654
904.981	18342
905.098	18296
905.216	18254
905.334	18216
905.451	18304
905.569	18186
905.686	18216
905.803	18289
905.921	18136
906.038	18220
906.155	18038
906.272	17996
906.389	18038
906.506	17870
906.623	17847
906.74	17836
906.857	17604
906.974	17627
907.091	17889
907.208	17980
907.324	17786
907.441	17786
907.557	17570
907.674	17505
907.79	17452
907.907	17425
908.023	17680
908.139	17497
908.256	17490
908.372	17440
908.488	17379
908.604	17345
908.72	17159
908.836	17189
908.952	17200
909.068	17181
909.184	17421
909.3	17220
909.415	17280
909.531	17170
909.647	17079
909.762	16927
909.878	16850
909.993	16976
910.108	17025
910.224	16938
910.339	16934
910.454	16763
910.57	16694
910.685	16634
910.8	16968
910.915	16812
911.03	16778
911.145	16542
911.259	16569
911.374	16447
911.489	16493
911.604	16459
911.718	16352
911.833	16310
911.947	16204
912.062	16120
912.176	16310
912.291	16314
912.405	16150
912.519	16474
912.633	16466
912.748	16257
912.862	16276
912.976	16158
913.09	16040
913.204	16044
913.318	16090
913.431	16093
913.545	16204
913.659	16166
913.772	16010
913.886	15983
914	15873
914.113	16063
914.226	16010
914.34	15911
914.453	15694
914.566	15846
914.68	15713
914.793	15724
914.906	15591
915.019	15477
915.132	15431
915.245	15481
915.358	15507
915.47	15439
915.583	15477
915.696	15625
915.809	15561
915.921	15561
916.034	15344
916.146	15367
916.259	15344
916.371	15408
916.483	15336
916.595	15306
916.708	15412
916.82	15424
916.932	15264
917.044	15306
917.156	15241
917.268	15176
917.38	15195
917.491	15055
917.603	15062
917.715	15233
917.826	15203
917.938	15081
918.049	14937
918.161	15039
918.272	15169
918.384	15230
918.495	14925
918.606	14963
918.717	14762
918.828	14876
918.939	14880
919.05	14819
919.161	14815
919.272	14583
919.383	14686
919.494	14826
919.604	15077
919.715	14880
919.826	14792
919.936	14648
920.047	14963
920.157	14906
920.267	14887
920.378	14811
920.488	14834
920.598	14868
920.708	15127
920.818	15001
920.928	14876
921.038	15108
921.148	15013
921.258	14815
921.368	14670
921.477	14549
921.587	14545
921.697	14431
921.806	14583
921.916	14355
922.025	14237
922.134	14248
922.244	14180
922.353	14126
922.462	14107
922.571	13959
922.68	13902
922.789	13856
922.898	13883
923.007	13776
923.116	13875
923.224	13807
923.333	13780
923.442	13670
923.55	13742
923.659	13731
923.767	13700
923.876	13571
923.984	13681
924.092	13483
924.201	13556
924.309	13510
924.417	13559
924.525	13537
924.633	13510
924.741	14461
924.849	13285
924.956	13403
925.064	13255
925.172	13198
925.279	13168
925.387	13285
925.494	13206
925.602	13362
925.709	13259
925.816	13072
925.924	13107
926.031	13183
926.138	13206
926.245	13213
926.352	13175
926.459	13244
926.566	13209
926.673	13110
926.779	12977
926.886	12962
926.993	12840
927.099	12848
927.206	12814
927.312	12852
927.419	12795
927.525	12878
927.631	12757
927.737	12589
927.843	12574
927.95	12631
928.056	12509
928.162	12608
928.267	12719
928.373	13308
928.479	12635
928.585	12464
928.69	12570
928.796	12566
928.901	12361
929.007	12319
929.112	12445
929.218	12452
929.323	12334
929.428	12281
929.533	12388
929.638	12292
929.743	12334
929.848	12327
929.953	12224
930.058	12053
930.163	12019
930.267	12076
930.372	12159
930.477	12026
930.581	12152
930.685	11965
930.79	11878
930.894	11980
930.998	11946
931.103	11992
931.207	11684
931.311	11596
931.415	11471
931.519	11265
931.623	11254
