Data from test_V78500241_2169.txt Node
Date: Fri Mar 25 15:24:57 CST 2022
User: usil
Spectrometer: V785-0024
Trigger mode: 0
Integration Time (sec): 4.000000E-1
Scans to average: 1
Nonlinearity correction enabled: false
Boxcar width: 0
Storing dark spectrum: false
XAxis mode: Wavelengths
Number of Pixels in Spectrum: 1024
>>>>>Begin Spectral Data<<<<<
801.071	27698
801.214	27869
801.356	27424
801.499	27329
801.641	27393
801.783	27249
801.926	27249
802.068	27184
802.211	27211
802.353	27104
802.496	27051
802.638	26971
802.78	26940
802.923	26853
803.065	26804
803.208	26765
803.35	26937
803.492	26956
803.635	27218
803.777	26979
803.919	27093
804.061	27313
804.204	27093
804.346	27062
804.488	26982
804.63	27146
804.773	26948
804.915	27135
805.057	27188
805.199	27184
805.341	27173
805.483	27272
805.626	27218
805.768	27340
805.91	27329
806.052	27279
806.194	27321
806.336	27538
806.478	27241
806.62	27241
806.762	27203
806.904	27534
807.046	27766
807.188	27804
807.33	27614
807.472	27857
807.614	27614
807.756	27705
807.898	27545
808.04	27447
808.182	27450
808.324	27538
808.465	27473
808.607	27751
808.749	27922
808.891	27956
809.033	28036
809.174	27964
809.316	27827
809.458	27728
809.6	27762
809.741	27930
809.883	27998
810.025	28196
810.166	28143
810.308	28166
810.45	28109
810.591	28112
810.733	28029
810.875	27663
811.016	27770
811.158	27747
811.299	27854
811.441	27991
811.582	27907
811.724	27720
811.865	27679
812.007	27865
812.148	27789
812.29	27888
812.431	28139
812.573	28166
812.714	28265
812.855	28504
812.997	28596
813.138	28504
813.279	28470
813.421	28284
813.562	28356
813.703	28204
813.845	28055
813.986	27793
814.127	27701
814.268	27530
814.41	27686
814.551	27553
814.692	27675
814.833	27450
814.974	27492
815.115	27492
815.256	27462
815.397	27488
815.539	27485
815.68	27370
815.821	27325
815.962	27424
816.103	27287
816.244	27272
816.385	27100
816.526	27131
816.666	26891
816.807	26785
816.948	26994
817.089	26861
817.23	26963
817.371	26872
817.512	26864
817.653	26842
817.793	26731
817.934	26895
818.075	26800
818.216	26804
818.356	26899
818.497	26727
818.638	26549
818.778	26484
818.919	26541
819.06	26606
819.2	26762
819.341	26921
819.481	26830
819.622	27093
819.762	27066
819.903	27074
820.043	26918
820.184	26826
820.324	26845
820.465	27039
820.605	26998
820.746	26826
820.886	26800
821.026	26933
821.167	26807
821.307	26906
821.447	26864
821.588	26773
821.728	26606
821.868	26377
822.008	26404
822.149	26358
822.289	26290
822.429	26073
822.569	26084
822.709	26008
822.849	25830
822.99	25807
823.13	25742
823.27	25719
823.41	25715
823.55	25358
823.69	25658
823.83	25685
823.97	25590
824.11	25320
824.25	25422
824.389	25438
824.529	25529
824.669	25419
824.809	25563
824.949	25518
825.089	25639
825.228	25495
825.368	25392
825.508	25289
825.648	25270
825.787	25228
825.927	25221
826.067	25316
826.206	25388
826.346	25293
826.485	25278
826.625	25198
826.765	25438
826.904	25297
827.044	24989
827.183	25046
827.323	25000
827.462	25065
827.601	25057
827.741	24996
827.88	25122
828.02	24810
828.159	24970
828.298	25046
828.437	25023
828.577	24939
828.716	25072
828.855	24916
828.994	24673
829.134	24760
829.273	24665
829.412	24719
829.551	24753
829.69	24726
829.829	24802
829.968	24817
830.107	24749
830.246	24677
830.385	24700
830.524	24616
830.663	24418
830.802	24353
830.941	24311
831.08	24171
831.219	24315
831.357	24410
831.496	24494
831.635	24357
831.774	24247
831.913	24273
832.051	24060
832.19	24091
832.329	24182
832.467	23935
832.606	23942
832.744	23893
832.883	23935
833.022	23931
833.16	23961
833.299	23931
833.437	23973
833.576	24064
833.714	23950
833.852	23999
833.991	24098
834.129	24125
834.267	24171
834.406	23954
834.544	24068
834.682	24098
834.821	23999
834.959	24232
835.097	24060
835.235	24163
835.373	24038
835.511	24110
835.65	23969
835.788	23836
835.926	23767
836.064	23676
836.202	23771
836.34	23847
836.478	23908
836.615	23882
836.753	23885
836.891	23961
837.029	23996
837.167	23897
837.305	23828
837.443	23805
837.58	23737
837.718	23813
837.856	23775
837.993	23646
838.131	23638
838.269	23429
838.406	23668
838.544	23592
838.681	23174
838.819	23387
838.956	23254
839.094	23143
839.231	23326
839.369	23288
839.506	23467
839.643	23284
839.781	23124
839.918	23189
840.055	23254
840.193	23098
840.33	23178
840.467	23113
840.604	23071
840.742	23349
840.879	22889
841.016	22923
841.153	22915
841.29	23143
841.427	23090
841.564	23022
841.701	23109
841.838	23006
841.975	23048
842.112	22904
842.249	22938
842.385	22938
842.522	22995
842.659	22919
842.796	22850
842.933	22881
843.069	22904
843.206	22877
843.343	22847
843.479	22847
843.616	22911
843.752	22656
843.889	22672
844.025	22797
844.162	22637
844.298	22683
844.435	22603
844.571	22542
844.708	22656
844.844	22831
844.98	22744
845.117	22717
845.253	22535
845.389	22440
845.525	22417
845.661	22447
845.798	22337
845.934	22238
846.07	22318
846.206	22303
846.342	22588
846.478	22432
846.614	22238
846.75	22029
846.886	22101
847.022	22143
847.158	22124
847.294	22090
847.429	22074
847.565	22070
847.701	22265
847.837	21728
847.972	21789
848.108	21895
848.244	21857
848.379	21686
848.515	21660
848.65	21717
848.786	21690
848.921	21648
849.057	21816
849.192	21713
849.328	21709
849.463	21641
849.598	21564
849.734	21587
849.869	21488
850.004	21287
850.14	21397
850.275	21450
850.41	21268
850.545	21397
850.68	21397
850.815	21321
850.95	21424
851.085	21591
851.22	21504
851.355	21428
851.49	21378
851.625	21393
851.76	21477
851.895	21351
852.03	21313
852.165	21336
852.299	21481
852.434	21450
852.569	21481
852.703	21317
852.838	21637
852.973	21637
853.107	21488
853.242	21237
853.376	21272
853.511	21237
853.645	21188
853.78	21416
853.914	21321
854.048	21264
854.183	21256
854.317	21283
854.451	21408
854.585	21176
854.72	21169
854.854	21310
854.988	21096
855.122	21241
855.256	21093
855.39	21264
855.524	21336
855.658	21329
855.792	21310
855.926	21192
856.06	21268
856.194	21245
856.327	21336
856.461	21176
856.595	21218
856.729	21256
856.862	21340
856.996	21298
857.13	21287
857.263	21336
857.397	21306
857.53	21207
857.664	21344
857.797	21378
857.931	21351
858.064	21310
858.197	21420
858.331	21150
858.464	21066
858.597	21100
858.731	21264
858.864	21268
858.997	21195
859.13	21252
859.263	21237
859.396	21344
859.529	21176
859.662	21157
859.795	21237
859.928	21199
860.061	21264
860.194	21435
860.327	21291
860.46	21169
860.592	21340
860.725	21351
860.858	21291
860.99	21256
861.123	21214
861.256	21268
861.388	21199
861.521	21945
861.653	21089
861.786	20967
861.918	21161
862.05	21214
862.183	21302
862.315	21192
862.447	21275
862.58	21142
862.712	20800
862.844	20937
862.976	21024
863.108	21032
863.24	21416
863.372	20796
863.504	20891
863.636	20994
863.768	20921
863.9	20788
864.032	20864
864.164	20883
864.296	20868
864.428	20998
864.559	21104
864.691	21066
864.823	20944
864.954	20834
865.086	20910
865.217	20899
865.349	20720
865.48	20842
865.612	20834
865.743	21066
865.875	20876
866.006	20929
866.137	20811
866.269	20902
866.4	20746
866.531	20830
866.662	20743
866.793	20697
866.924	20746
867.055	20800
867.186	20880
867.317	20815
867.448	20640
867.579	20739
867.71	20773
867.841	20689
867.972	20823
868.103	20765
868.233	20834
868.364	20849
868.495	20925
868.625	21135
868.756	21062
868.886	21005
869.017	21017
869.147	21157
869.278	21051
869.408	21100
869.539	21039
869.669	21195
869.799	21135
869.929	21142
870.06	21192
870.19	21321
870.32	21340
870.45	21317
870.58	21386
870.71	21511
870.84	21515
870.97	21504
871.1	21363
871.23	21572
871.36	21652
871.489	21435
871.619	21534
871.749	21523
871.879	21736
872.008	21682
872.138	21538
872.267	21713
872.397	21466
872.526	21511
872.656	21359
872.785	21443
872.915	21580
873.044	21781
873.173	21622
873.303	21717
873.432	21755
873.561	21682
873.69	21507
873.819	21587
873.948	21679
874.077	21618
874.206	21595
874.335	21618
874.464	21713
874.593	21781
874.722	21656
874.851	21888
874.979	22002
875.108	21930
875.237	21895
875.365	21720
875.494	21823
875.623	21857
875.751	21956
875.88	21926
876.008	21987
876.136	22002
876.265	22303
876.393	22390
876.521	22272
876.65	22344
876.778	22314
876.906	22173
877.034	22211
877.162	22234
877.29	22147
877.418	22253
877.546	22299
877.674	22086
877.802	22154
877.93	22181
878.058	22063
878.185	22010
878.313	22306
878.441	22177
878.568	22036
878.696	22192
878.824	22173
878.951	22394
879.079	22535
879.206	22626
879.333	22402
879.461	22344
879.588	22246
879.715	22310
879.842	22489
879.97	22223
880.097	22070
880.224	22086
880.351	21972
880.478	22109
880.605	22036
880.732	21922
880.859	22428
880.986	22116
881.112	21991
881.239	21907
881.366	21857
881.493	21747
881.619	21675
881.746	21713
881.872	21625
881.999	21751
882.125	21542
882.252	21720
882.378	21629
882.505	21846
882.631	21447
882.757	21370
882.883	21488
883.01	21313
883.136	21294
883.262	21169
883.388	21268
883.514	21382
883.64	21336
883.766	21207
883.892	21176
884.018	21127
884.143	21374
884.269	21393
884.395	21104
884.52	20937
884.646	21051
884.772	20921
884.897	20807
885.023	20979
885.148	21036
885.274	21138
885.399	21176
885.524	21043
885.65	21036
885.775	21017
885.9	20982
886.025	21055
886.15	21070
886.275	20895
886.4	20887
886.525	20864
886.65	20906
886.775	20910
886.9	21058
887.025	21199
887.149	20967
887.274	20731
887.399	20975
887.523	20864
887.648	20613
887.773	20762
887.897	20769
888.021	20842
888.146	20743
888.27	20792
888.395	20880
888.519	20731
888.643	20682
888.767	20876
888.891	20739
889.015	20587
889.139	20689
889.263	20526
889.387	20587
889.511	20750
889.635	20621
889.759	20590
889.883	20617
890.006	20659
890.13	20625
890.254	20469
890.377	20370
890.501	20332
890.624	20503
890.748	20385
890.871	20294
890.995	20164
891.118	19963
891.241	20134
891.364	20142
891.488	20267
891.611	20138
891.734	20142
891.857	20263
891.98	20134
892.103	20244
892.226	20119
892.349	20027
892.471	19890
892.594	20122
892.717	20081
892.839	19993
892.962	20054
893.085	20176
893.207	19993
893.33	19879
893.452	19997
893.575	20092
893.697	20005
893.819	20077
893.941	20282
894.064	20233
894.186	20012
894.308	19890
894.43	20153
894.552	20145
894.674	19993
894.796	19932
894.918	19993
895.04	20058
895.161	20050
895.283	20054
895.405	19959
895.526	20206
895.648	20001
895.769	20050
895.891	19898
896.012	20149
896.134	20077
896.255	20001
896.376	20020
896.498	20031
896.619	20062
896.74	20035
896.861	20096
896.982	20278
897.103	20351
897.224	20233
897.345	20206
897.466	20214
897.587	20263
897.708	20415
897.828	20233
897.949	20244
898.07	20149
898.19	20111
898.311	20286
898.431	20225
898.552	20252
898.672	20244
898.792	20282
898.913	20267
899.033	20111
899.153	20096
899.273	20027
899.393	19955
899.513	20084
899.633	20012
899.753	19970
899.873	19944
899.993	19963
900.113	19997
900.232	19947
900.352	19959
900.472	19879
900.591	19814
900.711	19830
900.83	19674
900.95	19894
901.069	19898
901.189	19712
901.308	19365
901.427	19369
901.546	19373
901.665	19426
901.784	19327
901.904	19145
902.023	19091
902.141	19008
902.26	18913
902.379	19031
902.498	18981
902.617	18897
902.735	18970
902.854	18913
902.973	18844
903.091	18597
903.21	18521
903.328	18608
903.446	18323
903.565	18429
903.683	18426
903.801	18235
903.919	18380
904.038	18346
904.156	18136
904.274	18159
904.392	18091
904.51	18072
904.627	18182
904.745	18155
904.863	18178
904.981	17897
905.098	17836
905.216	17836
905.334	17855
905.451	17737
905.569	17756
905.686	17878
905.803	17878
905.921	17520
906.038	17642
906.155	17619
906.272	17532
906.389	17482
906.506	17410
906.623	17398
906.74	17330
906.857	17208
906.974	17284
907.091	17387
907.208	17421
907.324	17368
907.441	17269
907.557	17018
907.674	17090
907.79	17162
907.907	17060
908.023	17010
908.139	17045
908.256	17079
908.372	16980
908.488	16904
908.604	16774
908.72	16729
908.836	16691
908.952	16729
909.068	16790
909.184	16850
909.3	16755
909.415	16752
909.531	16809
909.647	16474
909.762	16512
909.878	16489
909.993	16523
910.108	16493
910.224	16428
910.339	16535
910.454	16284
910.57	16280
910.685	16185
910.8	16546
910.915	16379
911.03	16265
911.145	16128
911.259	16063
911.374	16097
911.489	15998
911.604	16002
911.718	15774
911.833	15873
911.947	15698
912.062	15724
912.176	15888
912.291	15770
912.405	15781
912.519	15972
912.633	16059
912.748	15774
912.862	15797
912.976	15682
913.09	15488
913.204	15576
913.318	15641
913.431	15736
913.545	15717
913.659	15728
913.772	15599
913.886	15477
914	15466
914.113	15477
914.226	15500
914.34	15431
914.453	15310
914.566	15344
914.68	15393
914.793	15302
914.906	15077
915.019	15116
915.132	14937
915.245	14960
915.358	15043
915.47	15077
915.583	15024
915.696	15108
915.809	15154
915.921	15222
916.034	14990
916.146	14944
916.259	14941
916.371	15001
916.483	14979
916.595	14838
916.708	14891
916.82	14910
916.932	14807
917.044	14830
917.156	14750
917.268	14735
917.38	14682
917.491	14781
917.603	14735
917.715	14762
917.826	14781
917.938	14724
918.049	14552
918.161	14667
918.272	14731
918.384	14785
918.495	14636
918.606	14526
918.717	14355
918.828	14514
918.939	14552
919.05	14393
919.161	14442
919.272	14271
919.383	14275
919.494	14488
919.604	14602
919.715	14507
919.826	14377
919.936	14381
920.047	14488
920.157	14431
920.267	14617
920.378	14332
920.488	14370
920.598	14575
920.708	14712
920.818	14636
920.928	14598
921.038	14811
921.148	14743
921.258	14389
921.368	14313
921.477	14123
921.587	14096
921.697	14005
921.806	14214
921.916	13997
922.025	13849
922.134	13769
922.244	13788
922.353	13917
922.462	13590
922.571	13620
922.68	13445
922.789	13449
922.898	13453
923.007	13419
923.116	13457
923.224	13411
923.333	13457
923.442	13278
923.55	13312
923.659	13297
923.767	13468
923.876	13202
923.984	13362
924.092	13240
924.201	13126
924.309	13270
924.417	13194
924.525	13145
924.633	13110
924.741	13928
924.849	12924
924.956	13110
925.064	12817
925.172	12795
925.279	12886
925.387	12981
925.494	12844
925.602	13000
925.709	12810
925.816	12779
925.924	12867
926.031	12916
926.138	12719
926.245	12829
926.352	12806
926.459	12837
926.566	12875
926.673	12707
926.779	12707
926.886	12604
926.993	12498
927.099	12422
927.206	12418
927.312	12342
927.419	12426
927.525	12391
927.631	12467
927.737	12426
927.843	12323
927.95	12190
928.056	12251
928.162	12311
928.267	12311
928.373	12954
928.479	12350
928.585	12175
928.69	12213
928.796	12350
928.901	12129
929.007	11901
929.112	12098
929.218	12087
929.323	12019
929.428	11961
929.533	12026
929.638	11859
929.743	11916
929.848	11980
929.953	11923
930.058	11859
930.163	11733
930.267	11733
930.372	11859
930.477	11676
930.581	11958
930.685	11748
930.79	11649
930.894	11604
930.998	11543
931.103	11722
931.207	11360
931.311	11269
931.415	11174
931.519	10953
931.623	10991
