Data from test_V78500241_1788.txt Node
Date: Fri Mar 25 15:22:18 CST 2022
User: usil
Spectrometer: V785-0024
Trigger mode: 0
Integration Time (sec): 4.000000E-1
Scans to average: 1
Nonlinearity correction enabled: false
Boxcar width: 0
Storing dark spectrum: false
XAxis mode: Wavelengths
Number of Pixels in Spectrum: 1024
>>>>>Begin Spectral Data<<<<<
801.071	27785
801.214	27648
801.356	27618
801.499	27389
801.641	27340
801.783	27264
801.926	27473
802.068	27199
802.211	27256
802.353	27089
802.496	27024
802.638	26895
802.78	26910
802.923	26990
803.065	26876
803.208	26967
803.35	26982
803.492	27020
803.635	27211
803.777	26994
803.919	27241
804.061	27412
804.204	27195
804.346	27066
804.488	26990
804.63	27260
804.773	27135
804.915	27157
805.057	27203
805.199	27226
805.341	27218
805.483	27218
805.626	27306
805.768	27199
805.91	27237
806.052	27283
806.194	27176
806.336	27325
806.478	27332
806.62	27135
806.762	27397
806.904	27439
807.046	27816
807.188	27667
807.33	27720
807.472	27656
807.614	27629
807.756	27656
807.898	27561
808.04	27504
808.182	27507
808.324	27500
808.465	27663
808.607	27774
808.749	27835
808.891	28017
809.033	28048
809.174	27781
809.316	27861
809.458	27797
809.6	27914
809.741	28082
809.883	28135
810.025	28078
810.166	28162
810.308	28257
810.45	28135
810.591	28154
810.733	27994
810.875	27953
811.016	27766
811.158	27743
811.299	27888
811.441	28055
811.582	28162
811.724	27869
811.865	27717
812.007	27804
812.148	27983
812.29	27983
812.431	27972
812.573	28215
812.714	28390
812.855	28516
812.997	28481
813.138	28687
813.279	28401
813.421	28329
813.562	28405
813.703	28116
813.845	27949
813.986	27808
814.127	27667
814.268	27618
814.41	27709
814.551	27386
814.692	27583
814.833	27405
814.974	27500
815.115	27530
815.256	27492
815.397	27397
815.539	27450
815.68	27424
815.821	27329
815.962	27306
816.103	27500
816.244	27245
816.385	27108
816.526	27283
816.666	27039
816.807	26914
816.948	26998
817.089	27020
817.23	26929
817.371	26849
817.512	26868
817.653	26750
817.793	26746
817.934	26940
818.075	26830
818.216	26796
818.356	26868
818.497	26716
818.638	26609
818.778	26640
818.919	26693
819.06	26731
819.2	26727
819.341	26834
819.481	26921
819.622	27066
819.762	27131
819.903	27074
820.043	27157
820.184	27051
820.324	27074
820.465	27089
820.605	27150
820.746	26956
820.886	26838
821.026	27176
821.167	26921
821.307	27058
821.447	26796
821.588	26853
821.728	26705
821.868	26499
822.008	26336
822.149	26423
822.289	26339
822.429	26084
822.569	25917
822.709	26005
822.849	25940
822.99	25898
823.13	25887
823.27	25704
823.41	25643
823.55	25624
823.69	25696
823.83	25677
823.97	25742
824.11	25491
824.25	25483
824.389	25491
824.529	25594
824.669	25552
824.809	25632
824.949	25537
825.089	25643
825.228	25597
825.368	25297
825.508	25274
825.648	25426
825.787	25369
825.927	25392
826.067	25457
826.206	25384
826.346	25472
826.485	25411
826.625	25369
826.765	25540
826.904	25468
827.044	25137
827.183	25099
827.323	25110
827.462	25168
827.601	24947
827.741	25133
827.88	25000
828.02	24981
828.159	24966
828.298	25110
828.437	25152
828.577	24973
828.716	25225
828.855	25000
828.994	24901
829.134	24913
829.273	24909
829.412	24901
829.551	24901
829.69	24795
829.829	24772
829.968	24947
830.107	24905
830.246	24840
830.385	24722
830.524	24730
830.663	24673
830.802	24544
830.941	24525
831.08	24327
831.219	24563
831.357	24570
831.496	24677
831.635	24544
831.774	24422
831.913	24429
832.051	24338
832.19	24232
832.329	24182
832.467	24087
832.606	24133
832.744	24098
832.883	24148
833.022	24174
833.16	24095
833.299	24182
833.437	24129
833.576	24407
833.714	24220
833.852	24216
833.991	24190
834.129	24292
834.267	24251
834.406	24342
834.544	24361
834.682	24300
834.821	24129
834.959	24330
835.097	24308
835.235	24201
835.373	24224
835.511	24216
835.65	23965
835.788	24057
835.926	24057
836.064	23935
836.202	23832
836.34	23946
836.478	24129
836.615	24060
836.753	23950
836.891	24114
837.029	24167
837.167	23920
837.305	24038
837.443	24003
837.58	23847
837.718	23950
837.856	23882
837.993	23851
838.131	23908
838.269	23748
838.406	23855
838.544	23745
838.681	23562
838.819	23474
838.956	23372
839.094	23368
839.231	23566
839.369	23520
839.506	23707
839.643	23570
839.781	23398
839.918	23356
840.055	23330
840.193	23265
840.33	23292
840.467	23337
840.604	23273
840.742	23531
840.879	23140
841.016	23178
841.153	23109
841.29	23452
841.427	23242
841.564	23235
841.701	23303
841.838	23277
841.975	23174
842.112	23071
842.249	23162
842.385	22968
842.522	23345
842.659	23235
842.796	22984
842.933	23151
843.069	22911
843.206	22934
843.343	23143
843.479	23067
843.616	23044
843.752	22900
843.889	22824
844.025	22904
844.162	22725
844.298	23010
844.435	22904
844.571	22820
844.708	22744
844.844	22862
844.98	22961
845.117	22873
845.253	22744
845.389	22637
845.525	22740
845.661	22630
845.798	22474
845.934	22592
846.07	22580
846.206	22459
846.342	22729
846.478	22542
846.614	22329
846.75	22356
846.886	22295
847.022	22413
847.158	22234
847.294	22344
847.429	22352
847.565	22284
847.701	22546
847.837	21899
847.972	21983
848.108	22078
848.244	22070
848.379	21911
848.515	21888
848.65	21899
848.786	21865
848.921	21869
849.057	21960
849.192	21979
849.328	21918
849.463	21907
849.598	21857
849.734	21873
849.869	21701
850.004	21641
850.14	21682
850.275	21587
850.41	21572
850.545	21561
850.68	21618
850.815	21622
850.95	21675
851.085	21861
851.22	21720
851.355	21618
851.49	21633
851.625	21686
851.76	21492
851.895	21534
852.03	21572
852.165	21644
852.299	21701
852.434	21854
852.569	21641
852.703	21583
852.838	21663
852.973	21762
853.107	21751
853.242	21549
853.376	21466
853.511	21218
853.645	21416
853.78	21545
853.914	21447
854.048	21469
854.183	21481
854.317	21481
854.451	21766
854.585	21458
854.72	21431
854.854	21549
854.988	21382
855.122	21481
855.256	21374
855.39	21393
855.524	21610
855.658	21511
855.792	21507
855.926	21526
856.06	21477
856.194	21534
856.327	21401
856.461	21412
856.595	21378
856.729	21355
856.862	21439
856.996	21534
857.13	21538
857.263	21488
857.397	21557
857.53	21462
857.664	21561
857.797	21389
857.931	21549
858.064	21466
858.197	21435
858.331	21462
858.464	21397
858.597	21382
858.731	21458
858.864	21393
858.997	21325
859.13	21500
859.263	21519
859.396	21458
859.529	21306
859.662	21431
859.795	21420
859.928	21389
860.061	21633
860.194	21618
860.327	21477
860.46	21488
860.592	21454
860.725	21652
860.858	21507
860.99	21534
861.123	21336
861.256	21416
861.388	21458
861.521	22063
861.653	21355
861.786	21359
861.918	21313
862.05	21329
862.183	21272
862.315	21287
862.447	21587
862.58	21367
862.712	21131
862.844	21203
862.976	21336
863.108	21211
863.24	21534
863.372	21104
863.504	21112
863.636	21131
863.768	21169
863.9	21150
864.032	21047
864.164	21055
864.296	21256
864.428	21291
864.559	21188
864.691	21165
864.823	21184
864.954	21009
865.086	21169
865.217	21058
865.349	20956
865.48	21058
865.612	20971
865.743	21154
865.875	21089
866.006	21055
866.137	20982
866.269	21017
866.4	21104
866.531	20967
866.662	20967
866.793	21005
866.924	20960
867.055	21013
867.186	20967
867.317	20918
867.448	20929
867.579	20876
867.71	20842
867.841	20834
867.972	20990
868.103	21028
868.233	20990
868.364	21062
868.495	21013
868.625	21169
868.756	21481
868.886	21188
869.017	21135
869.147	21340
869.278	21313
869.408	21298
869.539	21222
869.669	21367
869.799	21211
869.929	21386
870.06	21332
870.19	21492
870.32	21553
870.45	21587
870.58	21564
870.71	21682
870.84	21709
870.97	21576
871.1	21660
871.23	21846
871.36	21892
871.489	21717
871.619	21732
871.749	21827
871.879	21884
872.008	21956
872.138	21846
872.267	21861
872.397	21618
872.526	21774
872.656	21671
872.785	21610
872.915	21842
873.044	21895
873.173	21850
873.303	21888
873.432	21842
873.561	22055
873.69	21857
873.819	21827
873.948	21918
874.077	21869
874.206	21732
874.335	21808
874.464	21949
874.593	22173
874.722	22051
874.851	22070
874.979	22086
875.108	22097
875.237	21964
875.365	21854
875.494	21998
875.623	22242
875.751	22025
875.88	22086
876.008	22177
876.136	22242
876.265	22554
876.393	22554
876.521	22569
876.65	22603
876.778	22436
876.906	22436
877.034	22329
877.162	22348
877.29	22356
877.418	22272
877.546	22409
877.674	22409
877.802	22417
877.93	22424
878.058	22348
878.185	22268
878.313	22234
878.441	22310
878.568	22253
878.696	22314
878.824	22565
878.951	22428
879.079	22538
879.206	22744
879.333	22561
879.461	22402
879.588	22497
879.715	22531
879.842	22569
879.97	22557
880.097	22219
880.224	22234
880.351	22333
880.478	22280
880.605	22272
880.732	22272
880.859	22455
880.986	22215
881.112	22192
881.239	22162
881.366	22021
881.493	21934
881.619	21774
881.746	21838
881.872	21918
881.999	21846
882.125	21835
882.252	21823
882.378	21842
882.505	21968
882.631	21576
882.757	21587
882.883	21519
883.01	21405
883.136	21397
883.262	21519
883.388	21264
883.514	21549
883.64	21622
883.766	21359
883.892	21203
884.018	21386
884.143	21469
884.269	21477
884.395	21207
884.52	21066
884.646	21150
884.772	21112
884.897	21207
885.023	21169
885.148	21165
885.274	21245
885.399	21340
885.524	21207
885.65	21135
885.775	21051
885.9	21032
886.025	21218
886.15	21264
886.275	21043
886.4	21051
886.525	21119
886.65	21089
886.775	21024
886.9	21252
887.025	21313
887.149	21036
887.274	21138
887.399	20864
887.523	20910
887.648	20807
887.773	20842
887.897	20975
888.021	20933
888.146	20800
888.27	20986
888.395	21013
888.519	20849
888.643	20914
888.767	20948
888.891	20804
889.015	20632
889.139	20838
889.263	20594
889.387	20743
889.511	20880
889.635	20895
889.759	20727
889.883	20720
890.006	20743
890.13	20842
890.254	20579
890.377	20743
890.501	20587
890.624	20434
890.748	20503
890.871	20240
890.995	20358
891.118	20168
891.241	20191
891.364	20313
891.488	20259
891.611	20313
891.734	20271
891.857	20400
891.98	20252
892.103	20328
892.226	20305
892.349	20206
892.471	20134
892.594	20271
892.717	20180
892.839	20252
892.962	20221
893.085	20210
893.207	20214
893.33	20115
893.452	20164
893.575	20309
893.697	20130
893.819	20374
893.941	20263
894.064	20336
894.186	20149
894.308	20107
894.43	20100
894.552	20377
894.674	20252
894.796	20043
894.918	20161
895.04	20218
895.161	20115
895.283	20282
895.405	20081
895.526	20305
895.648	20050
895.769	20172
895.891	20275
896.012	20240
896.134	20176
896.255	20126
896.376	20107
896.498	20221
896.619	20290
896.74	20157
896.861	20290
896.982	20476
897.103	20522
897.224	20434
897.345	20294
897.466	20393
897.587	20355
897.708	20583
897.828	20404
897.949	20343
898.07	20195
898.19	20252
898.311	20499
898.431	20252
898.552	20381
898.672	20473
898.792	20568
898.913	20351
899.033	20351
899.153	20100
899.273	20111
899.393	20122
899.513	20191
899.633	20134
899.753	20134
899.873	20073
899.993	20103
900.113	19936
900.232	20115
900.352	20008
900.472	19982
900.591	19917
900.711	19811
900.83	19932
900.95	19944
901.069	19925
901.189	19772
901.308	19651
901.427	19472
901.546	19578
901.665	19495
901.784	19544
901.904	19365
902.023	19259
902.141	19031
902.26	19000
902.379	19164
902.498	18989
902.617	18977
902.735	18993
902.854	18970
902.973	18856
903.091	18726
903.21	18654
903.328	18711
903.446	18646
903.565	18403
903.683	18551
903.801	18384
903.919	18407
904.038	18437
904.156	18304
904.274	18380
904.392	18300
904.51	18182
904.627	18190
904.745	18285
904.863	18220
904.981	18049
905.098	17863
905.216	17904
905.334	17908
905.451	17866
905.569	17923
905.686	17931
905.803	17882
905.921	17687
906.038	17828
906.155	17714
906.272	17562
906.389	17676
906.506	17463
906.623	17577
906.74	17440
906.857	17326
906.974	17318
907.091	17425
907.208	17573
907.324	17478
907.441	17414
907.557	17162
907.674	17170
907.79	17056
907.907	17128
908.023	17178
908.139	17200
908.256	17045
908.372	17143
908.488	17067
908.604	16953
908.72	16847
908.836	16858
908.952	16919
909.068	16911
909.184	17018
909.3	16850
909.415	16866
909.531	16869
909.647	16748
909.762	16538
909.878	16489
909.993	16569
910.108	16660
910.224	16607
910.339	16599
910.454	16512
910.57	16428
910.685	16371
910.8	16634
910.915	16596
911.03	16409
911.145	16177
911.259	16162
911.374	16105
911.489	16067
911.604	16154
911.718	15888
911.833	15930
911.947	15930
912.062	15778
912.176	15880
912.291	15930
912.405	15819
912.519	16059
912.633	16048
912.748	15934
912.862	15903
912.976	15701
913.09	15641
913.204	15762
913.318	15648
913.431	15804
913.545	15797
913.659	15842
913.772	15610
913.886	15625
914	15477
914.113	15682
914.226	15599
914.34	15515
914.453	15439
914.566	15603
914.68	15416
914.793	15329
914.906	15173
915.019	15070
915.132	15165
915.245	15104
915.358	15150
915.47	15294
915.583	15230
915.696	15226
915.809	15085
915.921	15329
916.034	15032
916.146	14979
916.259	15123
916.371	15062
916.483	15039
916.595	14990
916.708	14899
916.82	14910
916.932	14842
917.044	14868
917.156	15020
917.268	14819
917.38	14826
917.491	14762
917.603	14758
917.715	14902
917.826	14861
917.938	14720
918.049	14758
918.161	14705
918.272	14933
918.384	14902
918.495	14613
918.606	14655
918.717	14514
918.828	14556
918.939	14552
919.05	14381
919.161	14514
919.272	14244
919.383	14381
919.494	14518
919.604	14754
919.715	14590
919.826	14533
919.936	14457
920.047	14564
920.157	14571
920.267	14636
920.378	14587
920.488	14530
920.598	14716
920.708	14758
920.818	14613
920.928	14594
921.038	14769
921.148	14765
921.258	14431
921.368	14400
921.477	14309
921.587	14324
921.697	14096
921.806	14237
921.916	14183
922.025	13887
922.134	13921
922.244	13894
922.353	13932
922.462	13734
922.571	13727
922.68	13613
922.789	13472
922.898	13441
923.007	13438
923.116	13533
923.224	13430
923.333	13449
923.442	13438
923.55	13400
923.659	13426
923.767	13438
923.876	13403
923.984	13449
924.092	13225
924.201	13278
924.309	13274
924.417	13289
924.525	13175
924.633	13202
924.741	14187
924.849	13046
924.956	13149
925.064	13012
925.172	12920
925.279	12989
925.387	12973
925.494	12928
925.602	13050
925.709	13015
925.816	12897
925.924	12909
926.031	13008
926.138	12943
926.245	12871
926.352	12878
926.459	12848
926.566	12932
926.673	12684
926.779	12753
926.886	12722
926.993	12574
927.099	12502
927.206	12509
927.312	12490
927.419	12471
927.525	12502
927.631	12563
927.737	12467
927.843	12433
927.95	12216
928.056	12338
928.162	12353
928.267	12319
928.373	13015
928.479	12376
928.585	12190
928.69	12292
928.796	12365
928.901	12197
929.007	12049
929.112	12228
929.218	12121
929.323	12041
929.428	12098
929.533	12106
929.638	12057
929.743	12083
929.848	12022
929.953	12038
930.058	11885
930.163	11707
930.267	11843
930.372	11916
930.477	11726
930.581	11984
930.685	11824
930.79	11638
930.894	11634
930.998	11535
931.103	11748
931.207	11356
931.311	11364
931.415	11223
931.519	11117
931.623	11006
