Data from test_V78500241_2341.txt Node
Date: Fri Mar 25 15:26:09 CST 2022
User: usil
Spectrometer: V785-0024
Trigger mode: 0
Integration Time (sec): 4.000000E-1
Scans to average: 1
Nonlinearity correction enabled: false
Boxcar width: 0
Storing dark spectrum: false
XAxis mode: Wavelengths
Number of Pixels in Spectrum: 1024
>>>>>Begin Spectral Data<<<<<
801.071	27553
801.214	27370
801.356	27283
801.499	27169
801.641	27043
801.783	26940
801.926	27135
802.068	26925
802.211	26887
802.353	26971
802.496	26590
802.638	26693
802.78	26678
802.923	26629
803.065	26526
803.208	26579
803.35	26655
803.492	26765
803.635	26918
803.777	26777
803.919	26872
804.061	27211
804.204	26971
804.346	26693
804.488	26811
804.63	26781
804.773	26864
804.915	26777
805.057	26883
805.199	26880
805.341	26857
805.483	26975
805.626	27032
805.768	26883
805.91	26971
806.052	26940
806.194	26952
806.336	27081
806.478	26902
806.62	27001
806.762	27070
806.904	27203
807.046	27526
807.188	27393
807.33	27401
807.472	27393
807.614	27272
807.756	27378
807.898	27241
808.04	27173
808.182	27100
808.324	27245
808.465	27298
808.607	27370
808.749	27663
808.891	27800
809.033	27530
809.174	27648
809.316	27420
809.458	27564
809.6	27545
809.741	27816
809.883	27793
810.025	27755
810.166	27622
810.308	27789
810.45	27850
810.591	27713
810.733	27492
810.875	27614
811.016	27500
811.158	27408
811.299	27732
811.441	27732
811.582	27622
811.724	27633
811.865	27595
812.007	27515
812.148	27507
812.29	27515
812.431	27610
812.573	27865
812.714	27964
812.855	28048
812.997	28105
813.138	28325
813.279	28082
813.421	28185
813.562	27983
813.703	27762
813.845	27793
813.986	27511
814.127	27355
814.268	27226
814.41	27165
814.551	27138
814.692	27355
814.833	27211
814.974	27119
815.115	27386
815.256	27085
815.397	27112
815.539	27180
815.68	27043
815.821	26914
815.962	26960
816.103	26963
816.244	26937
816.385	26823
816.526	26720
816.666	26636
816.807	26438
816.948	26674
817.089	26651
817.23	26480
817.371	26469
817.512	26598
817.653	26499
817.793	26511
817.934	26499
818.075	26522
818.216	26537
818.356	26488
818.497	26434
818.638	26191
818.778	26237
818.919	26157
819.06	26305
819.2	26370
819.341	26457
819.481	26431
819.622	26609
819.762	26891
819.903	26686
820.043	26636
820.184	26617
820.324	26530
820.465	26632
820.605	26712
820.746	26598
820.886	26522
821.026	26629
821.167	26442
821.307	26648
821.447	26457
821.588	26476
821.728	26370
821.868	26199
822.008	25940
822.149	25940
822.289	26005
822.429	25601
822.569	25708
822.709	25632
822.849	25575
822.99	25518
823.13	25438
823.27	25514
823.41	25255
823.55	25217
823.69	25297
823.83	25221
823.97	25000
824.11	25053
824.25	24962
824.389	24989
824.529	25164
824.669	25019
824.809	25285
824.949	25168
825.089	25088
825.228	25141
825.368	25000
825.508	24821
825.648	25122
825.787	24996
825.927	24973
826.067	24886
826.206	24894
826.346	24928
826.485	24871
826.625	24920
826.765	25019
826.904	24977
827.044	24783
827.183	24738
827.323	24551
827.462	24711
827.601	24711
827.741	24566
827.88	24734
828.02	24604
828.159	24585
828.298	24601
828.437	24730
828.577	24597
828.716	24730
828.855	24505
828.994	24361
829.134	24471
829.273	24414
829.412	24369
829.551	24327
829.69	24350
829.829	24330
829.968	24483
830.107	24422
830.246	24452
830.385	24266
830.524	24308
830.663	24300
830.802	24022
830.941	24152
831.08	24060
831.219	24117
831.357	23973
831.496	24201
831.635	23897
831.774	23984
831.913	23859
832.051	23954
832.19	23611
832.329	23786
832.467	23794
832.606	23699
832.744	23642
832.883	23817
833.022	23638
833.16	23630
833.299	23752
833.437	23767
833.576	23779
833.714	23790
833.852	23817
833.991	23855
834.129	23828
834.267	23672
834.406	23680
834.544	23824
834.682	23687
834.821	23764
834.959	23984
835.097	23760
835.235	23775
835.373	23695
835.511	23718
835.65	23699
835.788	23623
835.926	23547
836.064	23429
836.202	23372
836.34	23551
836.478	23630
836.615	23459
836.753	23615
836.891	23707
837.029	23608
837.167	23478
837.305	23444
837.443	23558
837.58	23425
837.718	23592
837.856	23562
837.993	23486
838.131	23493
838.269	23303
838.406	23296
838.544	23280
838.681	23006
838.819	23147
838.956	22850
839.094	22938
839.231	22877
839.369	23197
839.506	23296
839.643	23223
839.781	22923
839.918	22904
840.055	22946
840.193	22835
840.33	22896
840.467	22831
840.604	22896
840.742	23060
840.879	22691
841.016	22824
841.153	22694
841.29	22877
841.427	22877
841.564	23006
841.701	22816
841.838	22748
841.975	22645
842.112	22618
842.249	22622
842.385	22512
842.522	22763
842.659	22675
842.796	22592
842.933	22527
843.069	22405
843.206	22474
843.343	22679
843.479	22561
843.616	22504
843.752	22318
843.889	22333
844.025	22516
844.162	22382
844.298	22527
844.435	22405
844.571	22306
844.708	22462
844.844	22413
844.98	22535
845.117	22356
845.253	22344
845.389	22234
845.525	22325
845.661	22131
845.798	22109
845.934	22078
846.07	22131
846.206	22154
846.342	22223
846.478	22154
846.614	21934
846.75	21888
846.886	21842
847.022	21865
847.158	21850
847.294	21899
847.429	21880
847.565	21724
847.701	22078
847.837	21515
847.972	21454
848.108	21625
848.244	21648
848.379	21530
848.515	21424
848.65	21351
848.786	21359
848.921	21405
849.057	21515
849.192	21469
849.328	21336
849.463	21382
849.598	21408
849.734	21332
849.869	21306
850.004	21195
850.14	21306
850.275	21043
850.41	21100
850.545	21138
850.68	21184
850.815	21237
850.95	21066
851.085	21279
851.22	21211
851.355	21241
851.49	21112
851.625	21074
851.76	21214
851.895	21104
852.03	21028
852.165	21135
852.299	21184
852.434	21237
852.569	21256
852.703	21047
852.838	21154
852.973	21317
853.107	21317
853.242	21074
853.376	21058
853.511	20849
853.645	20975
853.78	21138
853.914	20921
854.048	20948
854.183	21036
854.317	21039
854.451	21165
854.585	21058
854.72	21009
854.854	21074
854.988	20853
855.122	21028
855.256	20883
855.39	20944
855.524	21024
855.658	21001
855.792	21020
855.926	20990
856.06	21039
856.194	21070
856.327	21013
856.461	20979
856.595	21005
856.729	21024
856.862	21032
856.996	21062
857.13	21036
857.263	21146
857.397	21013
857.53	21017
857.664	20910
857.797	21184
857.931	21024
858.064	21028
858.197	21058
858.331	20963
858.464	20979
858.597	20872
858.731	21028
858.864	20857
858.997	21013
859.13	21089
859.263	20982
859.396	21077
859.529	20944
859.662	20975
859.795	20937
859.928	21077
860.061	21085
860.194	21199
860.327	21070
860.46	21081
860.592	21123
860.725	21093
860.858	21032
860.99	21028
861.123	20883
861.256	21028
861.388	21032
861.521	21511
861.653	20864
861.786	20819
861.918	20765
862.05	20857
862.183	20899
862.315	21005
862.447	20971
862.58	20941
862.712	20693
862.844	20636
862.976	20754
863.108	20724
863.24	21173
863.372	20617
863.504	20754
863.636	20716
863.768	20739
863.9	20819
864.032	20712
864.164	20659
864.296	20689
864.428	20701
864.559	20849
864.691	20876
864.823	20674
864.954	20792
865.086	20689
865.217	20655
865.349	20442
865.48	20629
865.612	20533
865.743	20758
865.875	20663
866.006	20629
866.137	20644
866.269	20556
866.4	20651
866.531	20590
866.662	20556
866.793	20507
866.924	20594
867.055	20727
867.186	20670
867.317	20408
867.448	20488
867.579	20450
867.71	20438
867.841	20434
867.972	20499
868.103	20594
868.233	20522
868.364	20526
868.495	20701
868.625	20674
868.756	20868
868.886	20727
869.017	20708
869.147	20826
869.278	20861
869.408	20849
869.539	20765
869.669	20861
869.799	20811
869.929	20880
870.06	20872
870.19	21116
870.32	21165
870.45	21093
870.58	21127
870.71	21283
870.84	21351
870.97	21112
871.1	21222
871.23	21367
871.36	21321
871.489	21230
871.619	21348
871.749	21306
871.879	21294
872.008	21473
872.138	21458
872.267	21370
872.397	21298
872.526	21260
872.656	21150
872.785	21226
872.915	21428
873.044	21454
873.173	21428
873.303	21526
873.432	21458
873.561	21462
873.69	21389
873.819	21408
873.948	21515
874.077	21447
874.206	21329
874.335	21393
874.464	21515
874.593	21603
874.722	21545
874.851	21694
874.979	21709
875.108	21580
875.237	21660
875.365	21603
875.494	21595
875.623	21713
875.751	21618
875.88	21614
876.008	21713
876.136	21778
876.265	22070
876.393	22169
876.521	22147
876.65	22013
876.778	22074
876.906	22082
877.034	21960
877.162	22013
877.29	21857
877.418	22063
877.546	21918
877.674	21979
877.802	21926
877.93	22082
878.058	21880
878.185	21854
878.313	21918
878.441	21857
878.568	21846
878.696	21812
878.824	22029
878.951	21994
879.079	22078
879.206	22207
879.333	22078
879.461	22051
879.588	21911
879.715	22147
879.842	22287
879.97	21994
880.097	21888
880.224	21812
880.351	21865
880.478	21892
880.605	21720
880.732	21755
880.859	22044
880.986	21816
881.112	21895
881.239	21587
881.366	21625
881.493	21500
881.619	21264
881.746	21500
881.872	21428
881.999	21310
882.125	21344
882.252	21401
882.378	21466
882.505	21401
882.631	21218
882.757	21112
882.883	21157
883.01	21135
883.136	21085
883.262	20929
883.388	21001
883.514	20963
883.64	21131
883.766	20960
883.892	20887
884.018	20918
884.143	21020
884.269	21173
884.395	20769
884.52	20792
884.646	20682
884.772	20598
884.897	20609
885.023	20663
885.148	20826
885.274	20883
885.399	20918
885.524	20826
885.65	20758
885.775	20663
885.9	20689
886.025	20880
886.15	20788
886.275	20663
886.4	20533
886.525	20670
886.65	20640
886.775	20655
886.9	20743
887.025	20853
887.149	20708
887.274	20446
887.399	20503
887.523	20438
887.648	20385
887.773	20377
887.897	20533
888.021	20579
888.146	20473
888.27	20545
888.395	20533
888.519	20564
888.643	20606
888.767	20613
888.891	20434
889.015	20298
889.139	20442
889.263	20366
889.387	20370
889.511	20434
889.635	20423
889.759	20305
889.883	20252
890.006	20252
890.13	20320
890.254	20176
890.377	20237
890.501	20069
890.624	19993
890.748	20180
890.871	19997
890.995	19822
891.118	19909
891.241	19856
891.364	19856
891.488	19993
891.611	19822
891.734	19913
891.857	19978
891.98	19837
892.103	19928
892.226	19902
892.349	19822
892.471	19887
892.594	19833
892.717	19849
892.839	19772
892.962	19898
893.085	19921
893.207	19772
893.33	19712
893.452	19959
893.575	19776
893.697	19753
893.819	19902
893.941	19917
894.064	19970
894.186	19712
894.308	19795
894.43	19951
894.552	19890
894.674	19921
894.796	19753
894.918	19784
895.04	19871
895.161	19917
895.283	19811
895.405	19830
895.526	19788
895.648	19833
895.769	19852
895.891	20031
896.012	19871
896.134	19852
896.255	19807
896.376	19818
896.498	19693
896.619	19898
896.74	19856
896.861	19780
896.982	20046
897.103	20336
897.224	20043
897.345	20046
897.466	19898
897.587	19940
897.708	20145
897.828	20035
897.949	19963
898.07	19936
898.19	19887
898.311	20092
898.431	20024
898.552	20092
898.672	20035
898.792	20081
898.913	19951
899.033	19875
899.153	19841
899.273	19791
899.393	19822
899.513	19784
899.633	19708
899.753	19715
899.873	19693
899.993	19868
900.113	19677
900.232	19772
900.352	19700
900.472	19670
900.591	19590
900.711	19590
900.83	19586
900.95	19731
901.069	19658
901.189	19483
901.308	19266
901.427	19168
901.546	19122
901.665	19088
901.784	19183
901.904	19015
902.023	18871
902.141	18749
902.26	18696
902.379	18817
902.498	18745
902.617	18578
902.735	18741
902.854	18681
902.973	18540
903.091	18426
903.21	18296
903.328	18350
903.446	18243
903.565	18174
903.683	18190
903.801	18015
903.919	18125
904.038	18022
904.156	17954
904.274	18015
904.392	17878
904.51	17897
904.627	17927
904.745	17775
904.863	17977
904.981	17691
905.098	17634
905.216	17581
905.334	17680
905.451	17524
905.569	17615
905.686	17505
905.803	17512
905.921	17440
906.038	17524
906.155	17372
906.272	17280
906.389	17410
906.506	17166
906.623	17075
906.74	17193
906.857	16923
906.974	16999
907.091	17151
907.208	17216
907.324	17090
907.441	17022
907.557	16915
907.674	16786
907.79	16805
907.907	16752
908.023	16820
908.139	16801
908.256	16759
908.372	16706
908.488	16683
908.604	16649
908.72	16622
908.836	16653
908.952	16516
909.068	16592
909.184	16713
909.3	16558
909.415	16531
909.531	16390
909.647	16325
909.762	16196
909.878	16299
909.993	16226
910.108	16268
910.224	16204
910.339	16192
910.454	16181
910.57	16093
910.685	16032
910.8	16287
910.915	16253
911.03	16032
911.145	15941
911.259	15911
911.374	15865
911.489	15739
911.604	15781
911.718	15732
911.833	15545
911.947	15637
912.062	15431
912.176	15637
912.291	15591
912.405	15599
912.519	15827
912.633	15838
912.748	15652
912.862	15564
912.976	15408
913.09	15393
913.204	15389
913.318	15424
913.431	15492
913.545	15568
913.659	15416
913.772	15405
913.886	15283
914	15199
914.113	15329
914.226	15332
914.34	15374
914.453	15146
914.566	15256
914.68	15176
914.793	15097
914.906	14777
915.019	14868
915.132	14731
915.245	14963
915.358	14864
915.47	14868
915.583	14838
915.696	14765
915.809	14906
915.921	14925
916.034	14781
916.146	14823
916.259	14880
916.371	14815
916.483	14880
916.595	14705
916.708	14705
916.82	14804
916.932	14670
917.044	14598
917.156	14625
917.268	14533
917.38	14560
917.491	14499
917.603	14408
917.715	14606
917.826	14568
917.938	14476
918.049	14313
918.161	14427
918.272	14503
918.384	14495
918.495	14507
918.606	14339
918.717	14282
918.828	14301
918.939	14423
919.05	14218
919.161	14221
919.272	14073
919.383	14046
919.494	14362
919.604	14412
919.715	14191
919.826	14153
919.936	14237
920.047	14332
920.157	14290
920.267	14393
920.378	14237
920.488	14115
920.598	14450
920.708	14602
920.818	14438
920.928	14301
921.038	14556
921.148	14419
921.258	14240
921.368	14096
921.477	13974
921.587	14016
921.697	13807
921.806	13974
921.916	13795
922.025	13620
922.134	13632
922.244	13597
922.353	13632
922.462	13548
922.571	13460
922.68	13331
922.789	13232
922.898	13244
923.007	13217
923.116	13343
923.224	13171
923.333	13263
923.442	13133
923.55	13107
923.659	13183
923.767	13149
923.876	13107
923.984	13145
924.092	12985
924.201	13004
924.309	13110
924.417	13057
924.525	12985
924.633	13004
924.741	13921
924.849	12726
924.956	12844
925.064	12791
925.172	12589
925.279	12642
925.387	12734
925.494	12772
925.602	12817
925.709	12730
925.816	12566
925.924	12677
926.031	12745
926.138	12696
926.245	12730
926.352	12544
926.459	12627
926.566	12662
926.673	12608
926.779	12437
926.886	12448
926.993	12330
927.099	12342
927.206	12201
927.312	12216
927.419	12308
927.525	12262
927.631	12311
927.737	12125
927.843	12098
927.95	12026
928.056	12144
928.162	12163
928.267	12102
928.373	12734
928.479	12121
928.585	11954
928.69	12079
928.796	12091
928.901	12003
929.007	11916
929.112	11920
929.218	11882
929.323	11836
929.428	11859
929.533	11904
929.638	11779
929.743	11824
929.848	11889
929.953	11832
930.058	11729
930.163	11509
930.267	11520
930.372	11748
930.477	11455
930.581	11767
930.685	11627
930.79	11383
930.894	11455
930.998	11364
931.103	11562
931.207	11204
931.311	11121
931.415	10953
931.519	10767
931.623	10774
