Data from test_V78500241_897.txt Node
Date: Fri Mar 25 15:16:06 CST 2022
User: usil
Spectrometer: V785-0024
Trigger mode: 0
Integration Time (sec): 4.000000E-1
Scans to average: 1
Nonlinearity correction enabled: false
Boxcar width: 0
Storing dark spectrum: false
XAxis mode: Wavelengths
Number of Pixels in Spectrum: 1024
>>>>>Begin Spectral Data<<<<<
801.071	28280
801.214	28166
801.356	27873
801.499	27842
801.641	27827
801.783	27778
801.926	27892
802.068	27732
802.211	27747
802.353	27641
802.496	27450
802.638	27507
802.78	27401
802.923	27374
803.065	27450
803.208	27397
803.35	27466
803.492	27477
803.635	27564
803.777	27587
803.919	27618
804.061	27911
804.204	27614
804.346	27641
804.488	27458
804.63	27549
804.773	27599
804.915	27835
805.057	27739
805.199	27667
805.341	27724
805.483	27816
805.626	27663
805.768	27663
805.91	27766
806.052	27808
806.194	27701
806.336	27941
806.478	27865
806.62	27850
806.762	27949
806.904	28078
807.046	28329
807.188	28344
807.33	28097
807.472	28314
807.614	28101
807.756	28238
807.898	28074
808.04	28032
808.182	28063
808.324	28109
808.465	28093
808.607	28299
808.749	28413
808.891	28424
809.033	28504
809.174	28523
809.316	28485
809.458	28504
809.6	28481
809.741	28626
809.883	28573
810.025	28656
810.166	28755
810.308	28816
810.45	28630
810.591	28672
810.733	28542
810.875	28390
811.016	28424
811.158	28432
811.299	28497
811.441	28584
811.582	28660
811.724	28508
811.865	28546
812.007	28367
812.148	28417
812.29	28493
812.431	28592
812.573	28888
812.714	28778
812.855	28968
812.997	29010
813.138	29231
813.279	29048
813.421	29018
813.562	29052
813.703	28847
813.845	28797
813.986	28489
814.127	28306
814.268	28169
814.41	28166
814.551	28131
814.692	28230
814.833	28090
814.974	28097
815.115	28207
815.256	27991
815.397	27972
815.539	27964
815.68	28032
815.821	27979
815.962	28002
816.103	28173
816.244	27922
816.385	27797
816.526	27797
816.666	27614
816.807	27587
816.948	27523
817.089	27633
817.23	27572
817.371	27431
817.512	27610
817.653	27557
817.793	27488
817.934	27473
818.075	27530
818.216	27599
818.356	27526
818.497	27424
818.638	27370
818.778	27218
818.919	27256
819.06	27268
819.2	27416
819.341	27485
819.481	27587
819.622	27519
819.762	27789
819.903	27644
820.043	27717
820.184	27606
820.324	27625
820.465	27793
820.605	27530
820.746	27679
820.886	27526
821.026	27637
821.167	27603
821.307	27652
821.447	27416
821.588	27420
821.728	27146
821.868	27131
822.008	26963
822.149	26975
822.289	26948
822.429	26636
822.569	26602
822.709	26629
822.849	26446
822.99	26526
823.13	26408
823.27	26480
823.41	26389
823.55	26157
823.69	26259
823.83	26290
823.97	26237
824.11	26077
824.25	26084
824.389	26145
824.529	26366
824.669	26084
824.809	26088
824.949	26202
825.089	26248
825.228	26214
825.368	25852
825.508	26050
825.648	26142
825.787	26005
825.927	26050
826.067	26084
826.206	25928
826.346	26149
826.485	25993
826.625	26088
826.765	26206
826.904	26008
827.044	25849
827.183	25818
827.323	25651
827.462	25799
827.601	25837
827.741	25708
827.88	25651
828.02	25609
828.159	25723
828.298	25742
828.437	25795
828.577	25696
828.716	25894
828.855	25696
828.994	25419
829.134	25453
829.273	25453
829.412	25304
829.551	25441
829.69	25403
829.829	25388
829.968	25354
830.107	25400
830.246	25544
830.385	25400
830.524	25537
830.663	25164
830.802	25122
830.941	25042
831.08	25000
831.219	25110
831.357	25091
831.496	25293
831.635	24981
831.774	24939
831.913	25050
832.051	24878
832.19	24905
832.329	24840
832.467	24852
832.606	24715
832.744	24681
832.883	24707
833.022	24757
833.16	24776
833.299	24806
833.437	24856
833.576	24920
833.714	24833
833.852	24875
833.991	24924
834.129	24962
834.267	24840
834.406	24745
834.544	24867
834.682	24817
834.821	24867
834.959	24840
835.097	24559
835.235	24749
835.373	24802
835.511	24700
835.65	24703
835.788	24604
835.926	24456
836.064	24536
836.202	24494
836.34	24620
836.478	24631
836.615	24623
836.753	24616
836.891	24677
837.029	24684
837.167	24513
837.305	24525
837.443	24448
837.58	24513
837.718	24471
837.856	24502
837.993	24418
838.131	24384
838.269	24232
838.406	24456
838.544	24342
838.681	24159
838.819	24121
838.956	23897
839.094	23855
839.231	23961
839.369	24022
839.506	24289
839.643	24068
839.781	23935
839.918	23988
840.055	23863
840.193	23813
840.33	23847
840.467	23893
840.604	23889
840.742	24076
840.879	23634
841.016	23684
841.153	23657
841.29	23916
841.427	23821
841.564	23908
841.701	23859
841.838	23973
841.975	23798
842.112	23707
842.249	23630
842.385	23505
842.522	23687
842.659	23619
842.796	23558
842.933	23543
843.069	23459
843.206	23608
843.343	23600
843.479	23493
843.616	23653
843.752	23337
843.889	23436
844.025	23562
844.162	23360
844.298	23566
844.435	23311
844.571	23345
844.708	23414
844.844	23539
844.98	23573
845.117	23471
845.253	23246
845.389	23227
845.525	23368
845.661	23231
845.798	23113
845.934	23208
846.07	23067
846.206	23140
846.342	23296
846.478	23037
846.614	22946
846.75	22759
846.886	22908
847.022	22934
847.158	22881
847.294	22767
847.429	22927
847.565	22744
847.701	23006
847.837	22626
847.972	22565
848.108	22641
848.244	22577
848.379	22440
848.515	22379
848.65	22424
848.786	22215
848.921	22451
849.057	22550
849.192	22550
849.328	22451
849.463	22455
849.598	22371
849.734	22417
849.869	22287
850.004	22223
850.14	22173
850.275	22242
850.41	22181
850.545	22147
850.68	22090
850.815	22249
850.95	22238
851.085	22314
851.22	22325
851.355	22211
851.49	22166
851.625	22181
851.76	22093
851.895	22051
852.03	22029
852.165	22223
852.299	22128
852.434	22291
852.569	22219
852.703	22169
852.838	22238
852.973	22280
853.107	22272
853.242	22158
853.376	22002
853.511	21953
853.645	21983
853.78	22029
853.914	21972
854.048	21991
854.183	21930
854.317	21972
854.451	22280
854.585	21956
854.72	21968
854.854	22017
854.988	21941
855.122	22055
855.256	21964
855.39	22055
855.524	22158
855.658	22017
855.792	22051
855.926	22090
856.06	22006
856.194	22120
856.327	22021
856.461	22063
856.595	21888
856.729	21915
856.862	22044
856.996	22055
857.13	21926
857.263	22063
857.397	22017
857.53	22017
857.664	22010
857.797	22051
857.931	22017
858.064	22006
858.197	22116
858.331	21987
858.464	21956
858.597	21739
858.731	21949
858.864	21899
858.997	21987
859.13	22044
859.263	22029
859.396	22097
859.529	22093
859.662	21888
859.795	21880
859.928	22055
860.061	22055
860.194	22265
860.327	22029
860.46	22013
860.592	22253
860.725	22188
860.858	22226
860.99	21983
861.123	21861
861.256	21804
861.388	21979
861.521	22641
861.653	21922
861.786	21751
861.918	21915
862.05	22013
862.183	21945
862.315	21884
862.447	22109
862.58	21838
862.712	21770
862.844	21633
862.976	21770
863.108	21682
863.24	22063
863.372	21595
863.504	21644
863.636	21606
863.768	21622
863.9	21610
864.032	21652
864.164	21576
864.296	21743
864.428	21690
864.559	21739
864.691	21823
864.823	21614
864.954	21762
865.086	21705
865.217	21671
865.349	21591
865.48	21561
865.612	21549
865.743	21800
865.875	21641
866.006	21595
866.137	21477
866.269	21504
866.4	21538
866.531	21523
866.662	21405
866.793	21462
866.924	21420
867.055	21603
867.186	21443
867.317	21454
867.448	21454
867.579	21473
867.71	21420
867.841	21393
867.972	21458
868.103	21534
868.233	21447
868.364	21538
868.495	21553
868.625	21755
868.756	21884
868.886	21656
869.017	21713
869.147	21865
869.278	21724
869.408	21831
869.539	21762
869.669	21736
869.799	21724
869.929	21964
870.06	21915
870.19	21941
870.32	22044
870.45	22074
870.58	22101
870.71	22131
870.84	22040
870.97	22143
871.1	22116
871.23	22356
871.36	22405
871.489	22257
871.619	22246
871.749	22371
871.879	22352
872.008	22508
872.138	22337
872.267	22352
872.397	22162
872.526	22230
872.656	22253
872.785	22158
872.915	22421
873.044	22443
873.173	22462
873.303	22360
873.432	22451
873.561	22493
873.69	22557
873.819	22341
873.948	22516
874.077	22352
874.206	22306
874.335	22276
874.464	22478
874.593	22641
874.722	22565
874.851	22687
874.979	22626
875.108	22691
875.237	22527
875.365	22405
875.494	22535
875.623	22687
875.751	22596
875.88	22561
876.008	22664
876.136	22713
876.265	22968
876.393	23117
876.521	23037
876.65	23094
876.778	22965
876.906	22809
877.034	22923
877.162	22877
877.29	22710
877.418	22885
877.546	22858
877.674	22896
877.802	22942
877.93	22797
878.058	22755
878.185	22805
878.313	22786
878.441	23025
878.568	22820
878.696	22812
878.824	23003
878.951	23014
879.079	23109
879.206	23254
879.333	23071
879.461	22892
879.588	23121
879.715	23113
879.842	23140
879.97	22980
880.097	22622
880.224	22679
880.351	22793
880.478	22755
880.605	22725
880.732	22725
880.859	22908
880.986	22793
881.112	22713
881.239	22683
881.366	22474
881.493	22398
881.619	22310
881.746	22337
881.872	22249
881.999	22265
882.125	22223
882.252	22204
882.378	22249
882.505	22379
882.631	22086
882.757	22131
882.883	22048
883.01	21972
883.136	22017
883.262	21892
883.388	21838
883.514	22074
883.64	21956
883.766	21903
883.892	21804
884.018	21846
884.143	21991
884.269	21884
884.395	21724
884.52	21637
884.646	21656
884.772	21496
884.897	21591
885.023	21682
885.148	21648
885.274	21743
885.399	21656
885.524	21679
885.65	21583
885.775	21690
885.9	21656
886.025	21698
886.15	21572
886.275	21561
886.4	21534
886.525	21557
886.65	21485
886.775	21450
886.9	21629
887.025	21732
887.149	21622
887.274	21515
887.399	21428
887.523	21340
887.648	21252
887.773	21363
887.897	21428
888.021	21519
888.146	21393
888.27	21447
888.395	21473
888.519	21386
888.643	21405
888.767	21420
888.891	21329
889.015	21173
889.139	21279
889.263	21165
889.387	21325
889.511	21378
889.635	21230
889.759	21070
889.883	21146
890.006	21146
890.13	21249
890.254	21055
890.377	21043
890.501	21028
890.624	20883
890.748	20944
890.871	20868
890.995	20796
891.118	20648
891.241	20682
891.364	20857
891.488	20864
891.611	20861
891.734	20785
891.857	20887
891.98	20663
892.103	20762
892.226	20716
892.349	20655
892.471	20488
892.594	20655
892.717	20644
892.839	20629
892.962	20686
893.085	20629
893.207	20693
893.33	20526
893.452	20587
893.575	20731
893.697	20602
893.819	20773
893.941	20781
894.064	20754
894.186	20476
894.308	20579
894.43	20697
894.552	20750
894.674	20708
894.796	20484
894.918	20560
895.04	20575
895.161	20758
895.283	20674
895.405	20518
895.526	20727
895.648	20777
895.769	20583
895.891	20655
896.012	20705
896.134	20522
896.255	20629
896.376	20583
896.498	20659
896.619	20636
896.74	20693
896.861	20617
896.982	21009
897.103	21020
897.224	20883
897.345	20819
897.466	20804
897.587	20785
897.708	21028
897.828	20857
897.949	20788
898.07	20686
898.19	20823
898.311	20861
898.431	20845
898.552	20918
898.672	20918
898.792	21017
898.913	20849
899.033	20693
899.153	20568
899.273	20617
899.393	20606
899.513	20682
899.633	20667
899.753	20632
899.873	20533
899.993	20533
900.113	20598
900.232	20560
900.352	20419
900.472	20446
900.591	20309
900.711	20389
900.83	20362
900.95	20454
901.069	20412
901.189	20324
901.308	19989
901.427	19909
901.546	19978
901.665	19868
901.784	19883
901.904	19894
902.023	19738
902.141	19525
902.26	19438
902.379	19567
902.498	19468
902.617	19289
902.735	19559
902.854	19304
902.973	19388
903.091	19187
903.21	19061
903.328	19164
903.446	18985
903.565	18958
903.683	18795
903.801	18825
903.919	18973
904.038	18772
904.156	18707
904.274	18833
904.392	18547
904.51	18646
904.627	18753
904.745	18696
904.863	18760
904.981	18513
905.098	18399
905.216	18376
905.334	18429
905.451	18334
905.569	18254
905.686	18422
905.803	18258
905.921	18133
906.038	18270
906.155	18190
906.272	18072
906.389	18095
906.506	17901
906.623	17923
906.74	17794
906.857	17863
906.974	17870
907.091	17980
907.208	17935
907.324	17874
907.441	17733
907.557	17695
907.674	17668
907.79	17486
907.907	17509
908.023	17554
908.139	17619
908.256	17570
908.372	17486
908.488	17459
908.604	17345
908.72	17220
908.836	17421
908.952	17216
909.068	17421
909.184	17490
909.3	17284
909.415	17402
909.531	17353
909.647	17045
909.762	17003
909.878	16999
909.993	17086
910.108	17010
910.224	16976
910.339	16869
910.454	16854
910.57	16877
910.685	16786
910.8	17045
910.915	16938
911.03	16824
911.145	16717
911.259	16584
911.374	16607
911.489	16580
911.604	16481
911.718	16440
911.833	16379
911.947	16242
912.062	16192
912.176	16367
912.291	16352
912.405	16287
912.519	16504
912.633	16550
912.748	16390
912.862	16409
912.976	16166
913.09	16158
913.204	16078
913.318	16055
913.431	16238
913.545	16200
913.659	16238
913.772	16207
913.886	16013
914	15892
914.113	16059
914.226	15956
914.34	16010
914.453	15789
914.566	16025
914.68	15842
914.793	15850
914.906	15701
915.019	15553
915.132	15515
915.245	15561
915.358	15599
915.47	15564
915.583	15641
915.696	15466
915.809	15625
915.921	15572
916.034	15500
916.146	15374
916.259	15466
916.371	15644
916.483	15530
916.595	15458
916.708	15340
916.82	15370
916.932	15294
917.044	15332
917.156	15302
917.268	15211
917.38	15218
917.491	15192
917.603	15173
917.715	15291
917.826	15275
917.938	15081
918.049	15036
918.161	15192
918.272	15252
918.384	15317
918.495	15051
918.606	15017
918.717	14891
918.828	15001
918.939	14975
919.05	14883
919.161	14857
919.272	14712
919.383	14819
919.494	14971
919.604	15085
919.715	14796
919.826	14826
919.936	14941
920.047	15013
920.157	14845
920.267	15104
920.378	14963
920.488	14876
920.598	15112
920.708	15127
920.818	15043
920.928	15013
921.038	15302
921.148	15142
921.258	14735
921.368	14731
921.477	14571
921.587	14594
921.697	14503
921.806	14621
921.916	14412
922.025	14271
922.134	14244
922.244	14263
922.353	14256
922.462	14240
922.571	14031
922.68	13947
922.789	13811
922.898	13864
923.007	13852
923.116	13970
923.224	13955
923.333	13940
923.442	13670
923.55	13674
923.659	13712
923.767	13837
923.876	13590
923.984	13685
924.092	13586
924.201	13700
924.309	13696
924.417	13658
924.525	13464
924.633	13609
924.741	14324
924.849	13358
924.956	13468
925.064	13373
925.172	13259
925.279	13236
925.387	13377
925.494	13247
925.602	13335
925.709	13324
925.816	13209
925.924	13187
926.031	13403
926.138	13198
926.245	13278
926.352	13152
926.459	13335
926.566	13278
926.673	13164
926.779	13019
926.886	13103
926.993	13008
927.099	12913
927.206	12894
927.312	12726
927.419	12890
927.525	12871
927.631	12863
927.737	12677
927.843	12688
927.95	12528
928.056	12654
928.162	12639
928.267	12654
928.373	13228
928.479	12692
928.585	12471
928.69	12620
928.796	12627
928.901	12563
929.007	12384
929.112	12566
929.218	12490
929.323	12471
929.428	12376
929.533	12464
929.638	12327
929.743	12334
929.848	12346
929.953	12388
930.058	12205
930.163	12053
930.267	11996
930.372	12209
930.477	11901
930.581	12216
930.685	12106
930.79	11863
930.894	12015
930.998	11950
931.103	12034
931.207	11649
931.311	11691
931.415	11547
931.519	11383
931.623	11223
