Data from test_V78500241_107.txt Node
Date: Fri Mar 25 15:10:36 CST 2022
User: usil
Spectrometer: V785-0024
Trigger mode: 0
Integration Time (sec): 4.000000E-1
Scans to average: 1
Nonlinearity correction enabled: false
Boxcar width: 0
Storing dark spectrum: false
XAxis mode: Wavelengths
Number of Pixels in Spectrum: 1024
>>>>>Begin Spectral Data<<<<<
801.071	28204
801.214	28139
801.356	28002
801.499	27930
801.641	27701
801.783	27785
801.926	27793
802.068	27629
802.211	27694
802.353	27599
802.496	27519
802.638	27298
802.78	27241
802.923	27199
803.065	27256
803.208	27222
803.35	27359
803.492	27363
803.635	27477
803.777	27241
803.919	27416
804.061	27732
804.204	27439
804.346	27283
804.488	27245
804.63	27348
804.773	27294
804.915	27279
805.057	27553
805.199	27355
805.341	27431
805.483	27492
805.626	27504
805.768	27473
805.91	27496
806.052	27610
806.194	27424
806.336	27694
806.478	27511
806.62	27595
806.762	27720
806.904	27675
807.046	27850
807.188	27800
807.33	27869
807.472	27880
807.614	27686
807.756	27759
807.898	27690
808.04	27656
808.182	27629
808.324	27610
808.465	27633
808.607	27705
808.749	27842
808.891	27994
809.033	28215
809.174	27991
809.316	28139
809.458	28074
809.6	28021
809.741	28010
809.883	27914
810.025	28215
810.166	28074
810.308	28185
810.45	28112
810.591	28162
810.733	27937
810.875	27838
811.016	27812
811.158	27797
811.299	28017
811.441	27888
811.582	27972
811.724	27743
811.865	27785
812.007	27846
812.148	27850
812.29	27945
812.431	28051
812.573	28200
812.714	28234
812.855	28440
812.997	28538
813.138	28573
813.279	28417
813.421	28325
813.562	28322
813.703	28333
813.845	28078
813.986	27857
814.127	27637
814.268	27599
814.41	27534
814.551	27526
814.692	27526
814.833	27416
814.974	27424
815.115	27564
815.256	27268
815.397	27195
815.539	27397
815.68	27119
815.821	27184
815.962	27329
816.103	27252
816.244	26963
816.385	26918
816.526	26979
816.666	26815
816.807	26625
816.948	26678
817.089	26765
817.23	26758
817.371	26697
817.512	26765
817.653	26598
817.793	26533
817.934	26682
818.075	26644
818.216	26594
818.356	26583
818.497	26602
818.638	26355
818.778	26290
818.919	26404
819.06	26328
819.2	26473
819.341	26564
819.481	26579
819.622	26705
819.762	26944
819.903	26914
820.043	26571
820.184	26545
820.324	26613
820.465	26670
820.605	26651
820.746	26575
820.886	26564
821.026	26613
821.167	26617
821.307	26621
821.447	26606
821.588	26453
821.728	26385
821.868	26096
822.008	26081
822.149	26031
822.289	26035
822.429	25712
822.569	25685
822.709	25731
822.849	25544
822.99	25544
823.13	25438
823.27	25293
823.41	25259
823.55	25278
823.69	25293
823.83	25198
823.97	25213
824.11	25137
824.25	25099
824.389	25099
824.529	25152
824.669	25042
824.809	25072
824.949	25171
825.089	25148
825.228	24989
825.368	24890
825.508	24897
825.648	24814
825.787	24939
825.927	24966
826.067	24871
826.206	24954
826.346	24935
826.485	24943
826.625	24856
826.765	24901
826.904	24833
827.044	24764
827.183	24642
827.323	24597
827.462	24631
827.601	24475
827.741	24563
827.88	24646
828.02	24323
828.159	24494
828.298	24540
828.437	24475
828.577	24464
828.716	24448
828.855	24323
828.994	24258
829.134	24266
829.273	24205
829.412	24140
829.551	24209
829.69	24281
829.829	24239
829.968	24258
830.107	24296
830.246	24167
830.385	24159
830.524	24011
830.663	23874
830.802	23897
830.941	23813
831.08	23710
831.219	23843
831.357	23863
831.496	24076
831.635	23786
831.774	23733
831.913	23741
832.051	23619
832.19	23493
832.329	23604
832.467	23383
832.606	23501
832.744	23539
832.883	23356
833.022	23455
833.16	23376
833.299	23417
833.437	23512
833.576	23497
833.714	23516
833.852	23543
833.991	23543
834.129	23608
834.267	23471
834.406	23459
834.544	23512
834.682	23433
834.821	23364
834.959	23634
835.097	23311
835.235	23459
835.373	23356
835.511	23410
835.65	23231
835.788	23334
835.926	23181
836.064	22995
836.202	23075
836.34	23292
836.478	23197
836.615	23140
836.753	23280
836.891	23387
837.029	23337
837.167	23166
837.305	23216
837.443	23159
837.58	23083
837.718	23235
837.856	23124
837.993	23064
838.131	23067
838.269	22976
838.406	22957
838.544	22919
838.681	22694
838.819	22596
838.956	22542
839.094	22565
839.231	22557
839.369	22641
839.506	22866
839.643	22801
839.781	22603
839.918	22318
840.055	22523
840.193	22531
840.33	22382
840.467	22405
840.604	22459
840.742	22725
840.879	22371
841.016	22204
841.153	22242
841.29	22565
841.427	22360
841.564	22402
841.701	22287
841.838	22360
841.975	22139
842.112	22295
842.249	22131
842.385	22150
842.522	22375
842.659	22219
842.796	22109
842.933	22154
843.069	22032
843.206	22120
843.343	22147
843.479	22109
843.616	22124
843.752	21873
843.889	21895
844.025	22074
844.162	21838
844.298	21953
844.435	21812
844.571	21808
844.708	21941
844.844	22059
844.98	22017
845.117	21888
845.253	21694
845.389	21759
845.525	21831
845.661	21633
845.798	21576
845.934	21698
846.07	21557
846.206	21583
846.342	21701
846.478	21614
846.614	21382
846.75	21306
846.886	21344
847.022	21511
847.158	21412
847.294	21325
847.429	21382
847.565	21211
847.701	21557
847.837	21142
847.972	21043
848.108	21089
848.244	21127
848.379	20902
848.515	20918
848.65	20883
848.786	20811
848.921	20937
849.057	20952
849.192	20952
849.328	21020
849.463	20929
849.598	20830
849.734	20746
849.869	20754
850.004	20594
850.14	20689
850.275	20579
850.41	20499
850.545	20629
850.68	20636
850.815	20621
850.95	20621
851.085	20705
851.22	20746
851.355	20663
851.49	20552
851.625	20438
851.76	20606
851.895	20461
852.03	20514
852.165	20655
852.299	20602
852.434	20746
852.569	20568
852.703	20568
852.838	20655
852.973	20705
853.107	20648
853.242	20404
853.376	20484
853.511	20374
853.645	20400
853.78	20564
853.914	20404
854.048	20358
854.183	20393
854.317	20415
854.451	20720
854.585	20457
854.72	20267
854.854	20549
854.988	20298
855.122	20351
855.256	20282
855.39	20454
855.524	20400
855.658	20419
855.792	20537
855.926	20454
856.06	20434
856.194	20552
856.327	20328
856.461	20423
856.595	20336
856.729	20488
856.862	20606
856.996	20476
857.13	20571
857.263	20473
857.397	20511
857.53	20427
857.664	20343
857.797	20457
857.931	20507
858.064	20427
858.197	20434
858.331	20389
858.464	20309
858.597	20252
858.731	20396
858.864	20370
858.997	20286
859.13	20381
859.263	20256
859.396	20450
859.529	20206
859.662	20324
859.795	20202
859.928	20278
860.061	20408
860.194	20530
860.327	20343
860.46	20351
860.592	20450
860.725	20476
860.858	20461
860.99	20290
861.123	20290
861.256	20161
861.388	20282
861.521	20861
861.653	20176
861.786	20320
861.918	20248
862.05	20336
862.183	20309
862.315	20370
862.447	20366
862.58	20393
862.712	20027
862.844	20020
862.976	20237
863.108	20153
863.24	20575
863.372	19913
863.504	20016
863.636	20024
863.768	20043
863.9	20096
864.032	19940
864.164	19970
864.296	20149
864.428	20111
864.559	20248
864.691	20176
864.823	20142
864.954	19974
865.086	19902
865.217	20115
865.349	19974
865.48	19803
865.612	19955
865.743	20054
865.875	19917
866.006	19898
866.137	19917
866.269	19963
866.4	19959
866.531	19906
866.662	19978
866.793	19780
866.924	19845
867.055	19947
867.186	19913
867.317	19917
867.448	19833
867.579	19887
867.71	19833
867.841	19807
867.972	19913
868.103	19799
868.233	19890
868.364	19898
868.495	19947
868.625	20050
868.756	20145
868.886	20058
869.017	20157
869.147	20176
869.278	20119
869.408	20199
869.539	20069
869.669	20126
869.799	20240
869.929	20282
870.06	20126
870.19	20317
870.32	20336
870.45	20385
870.58	20461
870.71	20587
870.84	20617
870.97	20400
871.1	20389
871.23	20613
871.36	20587
871.489	20632
871.619	20663
871.749	20777
871.879	20781
872.008	20899
872.138	20697
872.267	20598
872.397	20613
872.526	20579
872.656	20522
872.785	20598
872.915	20724
873.044	20727
873.173	20769
873.303	20765
873.432	20910
873.561	20807
873.69	20693
873.819	20762
873.948	20948
874.077	20792
874.206	20731
874.335	20659
874.464	20857
874.593	21108
874.722	20967
874.851	21032
874.979	20960
875.108	21165
875.237	21032
875.365	20899
875.494	20857
875.623	21047
875.751	20990
875.88	20925
876.008	21176
876.136	21211
876.265	21340
876.393	21511
876.521	21549
876.65	21412
876.778	21382
876.906	21279
877.034	21260
877.162	21275
877.29	21275
877.418	21332
877.546	21237
877.674	21272
877.802	21306
877.93	21321
878.058	21241
878.185	21241
878.313	21275
878.441	21336
878.568	21184
878.696	21367
878.824	21435
878.951	21469
879.079	21485
879.206	21564
879.333	21519
879.461	21329
879.588	21447
879.715	21450
879.842	21637
879.97	21389
880.097	21176
880.224	21100
880.351	21230
880.478	21226
880.605	21173
880.732	21096
880.859	21363
880.986	21241
881.112	21249
881.239	21017
881.366	20941
881.493	20845
881.619	20750
881.746	20674
881.872	20777
881.999	20629
882.125	20712
882.252	20876
882.378	20811
882.505	20891
882.631	20644
882.757	20503
882.883	20651
883.01	20518
883.136	20480
883.262	20400
883.388	20278
883.514	20442
883.64	20549
883.766	20476
883.892	20248
884.018	20301
884.143	20469
884.269	20625
884.395	20206
884.52	20134
884.646	20092
884.772	19989
884.897	20008
885.023	20225
885.148	20240
885.274	20256
885.399	20149
885.524	20134
885.65	20214
885.775	20122
885.9	20050
886.025	20210
886.15	20301
886.275	20103
886.4	19940
886.525	20168
886.65	20020
886.775	19986
886.9	20271
887.025	20313
887.149	20103
887.274	19811
887.399	19906
887.523	19890
887.648	19784
887.773	19772
887.897	19947
888.021	19932
888.146	19864
888.27	19925
888.395	20012
888.519	19978
888.643	19860
888.767	19879
888.891	19765
889.015	19624
889.139	19647
889.263	19670
889.387	19826
889.511	19883
889.635	19799
889.759	19597
889.883	19529
890.006	19719
890.13	19700
890.254	19624
890.377	19689
890.501	19430
890.624	19441
890.748	19472
890.871	19301
890.995	19293
891.118	19156
891.241	19179
891.364	19263
891.488	19445
891.611	19225
891.734	19263
891.857	19244
891.98	19331
892.103	19316
892.226	19270
892.349	19251
892.471	19072
892.594	19251
892.717	19266
892.839	19198
892.962	19221
893.085	19453
893.207	19065
893.33	19095
893.452	19141
893.575	19266
893.697	19183
893.819	19331
893.941	19422
894.064	19358
894.186	19133
894.308	19061
894.43	19396
894.552	19278
894.674	19301
894.796	19015
894.918	19297
895.04	19088
895.161	19259
895.283	19221
895.405	19031
895.526	19171
895.648	19152
895.769	19255
895.891	19187
896.012	19164
896.134	19160
896.255	19221
896.376	19114
896.498	19209
896.619	19255
896.74	19270
896.861	19278
896.982	19495
897.103	19712
897.224	19556
897.345	19499
897.466	19358
897.587	19514
897.708	19628
897.828	19556
897.949	19396
898.07	19362
898.19	19339
898.311	19563
898.431	19438
898.552	19556
898.672	19480
898.792	19559
898.913	19453
899.033	19282
899.153	19175
899.273	19046
899.393	19118
899.513	19160
899.633	19126
899.753	19110
899.873	19156
899.993	19072
900.113	19076
900.232	19187
900.352	19099
900.472	19122
900.591	19019
900.711	18935
900.83	18993
900.95	19114
901.069	19053
901.189	18916
901.308	18639
901.427	18464
901.546	18467
901.665	18623
901.784	18559
901.904	18525
902.023	18334
902.141	18098
902.26	18026
902.379	18152
902.498	18136
902.617	18007
902.735	18106
902.854	18148
902.973	17999
903.091	17813
903.21	17741
903.328	17824
903.446	17638
903.565	17634
903.683	17585
903.801	17497
903.919	17535
904.038	17467
904.156	17269
904.274	17433
904.392	17311
904.51	17204
904.627	17330
904.745	17360
904.863	17360
904.981	17166
905.098	16957
905.216	16987
905.334	17060
905.451	16961
905.569	17003
905.686	17071
905.803	16881
905.921	16759
906.038	16923
906.155	16793
906.272	16729
906.389	16736
906.506	16550
906.623	16500
906.74	16531
906.857	16390
906.974	16512
907.091	16622
907.208	16683
907.324	16421
907.441	16382
907.557	16276
907.674	16215
907.79	16219
907.907	16215
908.023	16325
908.139	16238
908.256	16192
908.372	16154
908.488	16230
908.604	15975
908.72	15918
908.836	15979
908.952	15857
909.068	15953
909.184	16021
909.3	15838
909.415	15911
909.531	15956
909.647	15736
909.762	15663
909.878	15614
909.993	15637
910.108	15572
910.224	15663
910.339	15717
910.454	15496
910.57	15496
910.685	15397
910.8	15667
910.915	15572
911.03	15408
911.145	15287
911.259	15233
911.374	15188
911.489	15070
911.604	15104
911.718	14967
911.833	14921
911.947	14891
912.062	14701
912.176	14895
912.291	14986
912.405	14960
912.519	15161
912.633	15131
912.748	14975
912.862	14800
912.976	14697
913.09	14621
913.204	14807
913.318	14754
913.431	14914
913.545	14933
913.659	14819
913.772	14754
913.886	14659
914	14590
914.113	14712
914.226	14670
914.34	14769
914.453	14537
914.566	14594
914.68	14473
914.793	14545
914.906	14336
915.019	14221
915.132	14180
915.245	14358
915.358	14218
915.47	14336
915.583	14259
915.696	14271
915.809	14431
915.921	14374
916.034	14115
916.146	14111
916.259	14062
916.371	14244
916.483	14267
916.595	14008
916.708	14046
916.82	14123
916.932	14084
917.044	14092
917.156	14020
917.268	14039
917.38	13974
917.491	13928
917.603	14069
917.715	14001
917.826	14084
917.938	13868
918.049	13723
918.161	13982
918.272	14062
918.384	13955
918.495	13963
918.606	13628
918.717	13609
918.828	13784
918.939	13696
919.05	13651
919.161	13689
919.272	13506
919.383	13521
919.494	13731
919.604	13860
919.715	13655
919.826	13559
919.936	13662
920.047	13666
920.157	13601
920.267	13909
920.378	13658
920.488	13601
920.598	13757
920.708	14050
920.818	13807
920.928	13685
921.038	13959
921.148	13818
921.258	13620
921.368	13434
921.477	13499
921.587	13403
921.697	13308
921.806	13384
921.916	13312
922.025	13095
922.134	13088
922.244	13012
922.353	13110
922.462	12859
922.571	12848
922.68	12703
922.789	12677
922.898	12616
923.007	12654
923.116	12700
923.224	12654
923.333	12555
923.442	12597
923.55	12448
923.659	12612
923.767	12551
923.876	12441
923.984	12536
924.092	12433
924.201	12414
924.309	12448
924.417	12441
924.525	12289
924.633	12479
924.741	13129
924.849	12178
924.956	12304
925.064	12194
925.172	12095
925.279	12102
925.387	12224
925.494	12243
925.602	12327
925.709	12216
925.816	12114
925.924	12129
926.031	12148
926.138	12117
926.245	12171
926.352	11977
926.459	12152
926.566	12251
926.673	11992
926.779	11893
926.886	11870
926.993	11882
927.099	11691
927.206	11665
927.312	11695
927.419	11691
927.525	11840
927.631	11775
927.737	11668
927.843	11630
927.95	11459
928.056	11497
928.162	11562
928.267	11611
928.373	12194
928.479	11733
928.585	11376
928.69	11543
928.796	11535
928.901	11444
929.007	11364
929.112	11467
929.218	11417
929.323	11337
929.428	11246
929.533	11455
929.638	11250
929.743	11315
929.848	11258
929.953	11242
930.058	11109
930.163	11018
930.267	11056
930.372	11231
930.477	10972
930.581	11284
930.685	11041
930.79	10873
930.894	10976
930.998	10877
931.103	10946
931.207	10637
931.311	10538
931.415	10546
931.519	10371
931.623	10246
