Data from test_V78500241_545.txt Node
Date: Fri Mar 25 15:13:39 CST 2022
User: usil
Spectrometer: V785-0024
Trigger mode: 0
Integration Time (sec): 4.000000E-1
Scans to average: 1
Nonlinearity correction enabled: false
Boxcar width: 0
Storing dark spectrum: false
XAxis mode: Wavelengths
Number of Pixels in Spectrum: 1024
>>>>>Begin Spectral Data<<<<<
801.071	27195
801.214	27017
801.356	26967
801.499	27036
801.641	26629
801.783	26823
801.926	26826
802.068	26842
802.211	26655
802.353	26511
802.496	26336
802.638	26313
802.78	26377
802.923	26366
803.065	26237
803.208	26305
803.35	26328
803.492	26267
803.635	26583
803.777	26431
803.919	26492
804.061	26811
804.204	26434
804.346	26324
804.488	26442
804.63	26473
804.773	26495
804.915	26442
805.057	26564
805.199	26552
805.341	26537
805.483	26632
805.626	26621
805.768	26473
805.91	26609
806.052	26659
806.194	26613
806.336	26796
806.478	26667
806.62	26533
806.762	26712
806.904	26910
807.046	27024
807.188	26998
807.33	26994
807.472	27047
807.614	26952
807.756	26994
807.898	26891
808.04	26872
808.182	26963
808.324	26891
808.465	26819
808.607	27062
808.749	27157
808.891	27165
809.033	27378
809.174	27294
809.316	27188
809.458	27214
809.6	27237
809.741	27378
809.883	27275
810.025	27515
810.166	27485
810.308	27393
810.45	27450
810.591	27534
810.733	27340
810.875	27230
811.016	27150
811.158	27024
811.299	27237
811.441	27378
811.582	27275
811.724	27032
811.865	27127
812.007	27241
812.148	27070
812.29	27173
812.431	27412
812.573	27477
812.714	27629
812.855	27781
812.997	27709
813.138	28017
813.279	27914
813.421	27827
813.562	27842
813.703	27492
813.845	27466
813.986	27146
814.127	26986
814.268	26880
814.41	26785
814.551	26800
814.692	26876
814.833	26864
814.974	26788
815.115	26819
815.256	26769
815.397	26564
815.539	26845
815.68	26648
815.821	26606
815.962	26648
816.103	26693
816.244	26507
816.385	26328
816.526	26419
816.666	26381
816.807	25982
816.948	26244
817.089	26328
817.23	26298
817.371	26206
817.512	26206
817.653	26138
817.793	26100
817.934	26168
818.075	26100
818.216	26248
818.356	26256
818.497	25974
818.638	26008
818.778	25906
818.919	25940
819.06	25955
819.2	26073
819.341	26092
819.481	25955
819.622	26294
819.762	26453
819.903	26336
820.043	26298
820.184	26176
820.324	26195
820.465	26324
820.605	26263
820.746	26358
820.886	26054
821.026	26248
821.167	26149
821.307	26237
821.447	26259
821.588	25947
821.728	25925
821.868	25780
822.008	25723
822.149	25533
822.289	25559
822.429	25506
822.569	25434
822.709	25346
822.849	25069
822.99	25148
823.13	25164
823.27	25187
823.41	24935
823.55	24722
823.69	25034
823.83	24852
823.97	24962
824.11	24608
824.25	24646
824.389	24688
824.529	24844
824.669	24707
824.809	24817
824.949	24859
825.089	24833
825.228	24639
825.368	24620
825.508	24551
825.648	24551
825.787	24593
825.927	24745
826.067	24426
826.206	24658
826.346	24719
826.485	24616
826.625	24711
826.765	24722
826.904	24608
827.044	24342
827.183	24289
827.323	24388
827.462	24422
827.601	24216
827.741	24243
827.88	24448
828.02	24251
828.159	24384
828.298	24414
828.437	24414
828.577	24262
828.716	24384
828.855	24190
828.994	24091
829.134	24152
829.273	24125
829.412	24026
829.551	23821
829.69	24018
829.829	24072
829.968	24003
830.107	24030
830.246	24159
830.385	23870
830.524	23958
830.663	23824
830.802	23756
830.941	23726
831.08	23699
831.219	23764
831.357	23764
831.496	23897
831.635	23634
831.774	23547
831.913	23436
832.051	23440
832.19	23406
832.329	23463
832.467	23383
832.606	23311
832.744	23299
832.883	23273
833.022	23269
833.16	23364
833.299	23414
833.437	23280
833.576	23406
833.714	23318
833.852	23505
833.991	23509
834.129	23543
834.267	23402
834.406	23299
834.544	23376
834.682	23490
834.821	23429
834.959	23455
835.097	23406
835.235	23463
835.373	23273
835.511	23330
835.65	23200
835.788	23204
835.926	23064
836.064	22999
836.202	23071
836.34	23056
836.478	23360
836.615	23204
836.753	23208
836.891	23337
837.029	23220
837.167	23170
837.305	23064
837.443	23083
837.58	23098
837.718	23250
837.856	23022
837.993	23060
838.131	23102
838.269	22980
838.406	22965
838.544	22873
838.681	22664
838.819	22584
838.956	22462
839.094	22554
839.231	22694
839.369	22809
839.506	22896
839.643	22820
839.781	22535
839.918	22489
840.055	22550
840.193	22588
840.33	22527
840.467	22440
840.604	22455
840.742	22622
840.879	22299
841.016	22299
841.153	22474
841.29	22497
841.427	22470
841.564	22337
841.701	22348
841.838	22459
841.975	22348
842.112	22367
842.249	22280
842.385	22284
842.522	22474
842.659	22238
842.796	22150
842.933	22154
843.069	22169
843.206	22284
843.343	22360
843.479	22158
843.616	22261
843.752	22063
843.889	22124
844.025	22166
844.162	22036
844.298	22154
844.435	21922
844.571	21930
844.708	22021
844.844	22124
844.98	22044
845.117	22143
845.253	21964
845.389	21762
845.525	21964
845.661	21892
845.798	21785
845.934	21774
846.07	21675
846.206	21762
846.342	21793
846.478	21755
846.614	21583
846.75	21374
846.886	21504
847.022	21515
847.158	21507
847.294	21538
847.429	21481
847.565	21405
847.701	21720
847.837	21264
847.972	21272
848.108	21211
848.244	21310
848.379	21085
848.515	21055
848.65	21032
848.786	21142
848.921	21169
849.057	21226
849.192	21180
849.328	21074
849.463	21192
849.598	20971
849.734	21024
849.869	20902
850.004	20941
850.14	20872
850.275	20887
850.41	20872
850.545	20697
850.68	20891
850.815	20788
850.95	20762
851.085	20986
851.22	20986
851.355	20724
851.49	20861
851.625	20735
851.76	20750
851.895	20640
852.03	20716
852.165	20838
852.299	20838
852.434	20804
852.569	20880
852.703	20887
852.838	20883
852.973	20864
853.107	21096
853.242	20800
853.376	20800
853.511	20644
853.645	20697
853.78	20708
853.914	20724
854.048	20621
854.183	20530
854.317	20648
854.451	20918
854.585	20667
854.72	20625
854.854	20659
854.988	20617
855.122	20769
855.256	20571
855.39	20667
855.524	20830
855.658	20625
855.792	20758
855.926	20765
856.06	20716
856.194	20697
856.327	20777
856.461	20590
856.595	20636
856.729	20575
856.862	20674
856.996	20754
857.13	20636
857.263	20693
857.397	20758
857.53	20644
857.664	20682
857.797	20777
857.931	20735
858.064	20758
858.197	20788
858.331	20590
858.464	20556
858.597	20518
858.731	20636
858.864	20511
858.997	20636
859.13	20629
859.263	20621
859.396	20750
859.529	20659
859.662	20731
859.795	20640
859.928	20678
860.061	20823
860.194	20823
860.327	20651
860.46	20632
860.592	20716
860.725	20773
860.858	20765
860.99	20670
861.123	20541
861.256	20617
861.388	20644
861.521	21272
861.653	20617
861.786	20564
861.918	20530
862.05	20648
862.183	20636
862.315	20678
862.447	20640
862.58	20552
862.712	20431
862.844	20252
862.976	20488
863.108	20434
863.24	20659
863.372	20301
863.504	20282
863.636	20298
863.768	20347
863.9	20408
864.032	20393
864.164	20370
864.296	20347
864.428	20484
864.559	20522
864.691	20442
864.823	20355
864.954	20412
865.086	20358
865.217	20336
865.349	20214
865.48	20358
865.612	20396
865.743	20358
865.875	20240
866.006	20256
866.137	20195
866.269	20301
866.4	20244
866.531	20172
866.662	20168
866.793	20221
866.924	20134
867.055	20343
867.186	20370
867.317	20073
867.448	20176
867.579	20130
867.71	20210
867.841	20240
867.972	20362
868.103	20145
868.233	20210
868.364	20134
868.495	20362
868.625	20454
868.756	20469
868.886	20518
869.017	20533
869.147	20434
869.278	20632
869.408	20541
869.539	20404
869.669	20587
869.799	20526
869.929	20609
870.06	20609
870.19	20731
870.32	20636
870.45	20743
870.58	20830
870.71	20948
870.84	21032
870.97	20819
871.1	20811
871.23	20937
871.36	20933
871.489	20891
871.619	20902
871.749	21089
871.879	21058
872.008	21192
872.138	21017
872.267	20872
872.397	20921
872.526	20815
872.656	20941
872.785	20994
872.915	21096
873.044	21127
873.173	21055
873.303	21173
873.432	21142
873.561	21298
873.69	21207
873.819	21135
873.948	21294
874.077	21131
874.206	21184
874.335	21100
874.464	21207
874.593	21268
874.722	21275
874.851	21260
874.979	21431
875.108	21435
875.237	21329
875.365	21211
875.494	21275
875.623	21336
875.751	21268
875.88	21355
876.008	21408
876.136	21564
876.265	21732
876.393	21903
876.521	21819
876.65	21808
876.778	21686
876.906	21686
877.034	21610
877.162	21652
877.29	21637
877.418	21656
877.546	21660
877.674	21778
877.802	21682
877.93	21732
878.058	21720
878.185	21637
878.313	21633
878.441	21835
878.568	21428
878.696	21629
878.824	21717
878.951	21713
879.079	21827
879.206	21876
879.333	21945
879.461	21682
879.588	21762
879.715	21899
879.842	21956
879.97	21660
880.097	21496
880.224	21447
880.351	21587
880.478	21530
880.605	21462
880.732	21511
880.859	21789
880.986	21367
881.112	21504
881.239	21359
881.366	21154
881.493	21051
881.619	21157
881.746	21089
881.872	21146
881.999	21100
882.125	21116
882.252	21055
882.378	21116
882.505	21256
882.631	21017
882.757	20906
882.883	20792
883.01	20834
883.136	20640
883.262	20640
883.388	20651
883.514	20762
883.64	20792
883.766	20720
883.892	20549
884.018	20495
884.143	20758
884.269	20944
884.395	20480
884.52	20461
884.646	20427
884.772	20431
884.897	20256
885.023	20488
885.148	20514
885.274	20594
885.399	20621
885.524	20434
885.65	20476
885.775	20404
885.9	20434
886.025	20533
886.15	20469
886.275	20400
886.4	20457
886.525	20374
886.65	20294
886.775	20347
886.9	20541
887.025	20632
887.149	20434
887.274	20267
887.399	20240
887.523	20271
887.648	20225
887.773	20210
887.897	20237
888.021	20278
888.146	20103
888.27	20275
888.395	20263
888.519	20320
888.643	20142
888.767	20298
888.891	20145
889.015	20031
889.139	20069
889.263	20035
889.387	20084
889.511	20214
889.635	20126
889.759	19875
889.883	19986
890.006	20077
890.13	20122
890.254	19986
890.377	19970
890.501	19772
890.624	19784
890.748	19902
890.871	19727
890.995	19563
891.118	19559
891.241	19647
891.364	19624
891.488	19655
891.611	19548
891.734	19590
891.857	19605
891.98	19609
892.103	19791
892.226	19613
892.349	19502
892.471	19407
892.594	19518
892.717	19620
892.839	19609
892.962	19529
893.085	19521
893.207	19582
893.33	19400
893.452	19365
893.575	19510
893.697	19468
893.819	19582
893.941	19613
894.064	19674
894.186	19502
894.308	19426
894.43	19533
894.552	19715
894.674	19559
894.796	19388
894.918	19460
895.04	19438
895.161	19590
895.283	19571
895.405	19529
895.526	19499
895.648	19571
895.769	19563
895.891	19552
896.012	19700
896.134	19628
896.255	19426
896.376	19472
896.498	19586
896.619	19499
896.74	19597
896.861	19533
896.982	19906
897.103	19955
897.224	19776
897.345	19814
897.466	19651
897.587	19761
897.708	19860
897.828	19776
897.949	19715
898.07	19643
898.19	19742
898.311	19883
898.431	19578
898.552	19742
898.672	19830
898.792	19719
898.913	19719
899.033	19677
899.153	19696
899.273	19411
899.393	19483
899.513	19544
899.633	19495
899.753	19696
899.873	19460
899.993	19495
900.113	19441
900.232	19476
900.352	19415
900.472	19331
900.591	19255
900.711	19415
900.83	19320
900.95	19403
901.069	19362
901.189	19240
901.308	19122
901.427	18859
901.546	18878
901.665	18996
901.784	18932
901.904	18802
902.023	18593
902.141	18460
902.26	18506
902.379	18395
902.498	18422
902.617	18277
902.735	18475
902.854	18254
902.973	18224
903.091	18019
903.21	18232
903.328	18171
903.446	17999
903.565	17851
903.683	17897
903.801	17672
903.919	17771
904.038	17916
904.156	17687
904.274	17737
904.392	17657
904.51	17623
904.627	17657
904.745	17623
904.863	17733
904.981	17467
905.098	17265
905.216	17284
905.334	17417
905.451	17341
905.569	17337
905.686	17421
905.803	17269
905.921	17197
906.038	17254
906.155	17151
906.272	17121
906.389	17018
906.506	16965
906.623	16987
906.74	16854
906.857	16721
906.974	16778
907.091	16900
907.208	16949
907.324	16984
907.441	16805
907.557	16634
907.674	16580
907.79	16558
907.907	16577
908.023	16634
908.139	16512
908.256	16573
908.372	16519
908.488	16531
908.604	16344
908.72	16261
908.836	16344
908.952	16280
909.068	16318
909.184	16409
909.3	16344
909.415	16394
909.531	16344
909.647	16090
909.762	16013
909.878	16124
909.993	16048
910.108	16055
910.224	15972
910.339	15994
910.454	15911
910.57	15804
910.685	15713
910.8	16036
910.915	16044
911.03	15857
911.145	15629
911.259	15641
911.374	15644
911.489	15530
911.604	15481
911.718	15336
911.833	15458
911.947	15355
912.062	15142
912.176	15336
912.291	15325
912.405	15359
912.519	15587
912.633	15564
912.748	15370
912.862	15374
912.976	15279
913.09	15176
913.204	15108
913.318	15237
913.431	15268
913.545	15291
913.659	15268
913.772	15256
913.886	14956
914	15039
914.113	15062
914.226	15173
914.34	15104
914.453	14963
914.566	15036
914.68	14857
914.793	14842
914.906	14689
915.019	14602
915.132	14613
915.245	14610
915.358	14667
915.47	14636
915.583	14583
915.696	14697
915.809	14739
915.921	14826
916.034	14583
916.146	14499
916.259	14488
916.371	14708
916.483	14514
916.595	14484
916.708	14438
916.82	14427
916.932	14457
917.044	14484
917.156	14434
917.268	14271
917.38	14290
917.491	14259
917.603	14431
917.715	14351
917.826	14389
917.938	14225
918.049	14005
918.161	14248
918.272	14438
918.384	14362
918.495	14256
918.606	14073
918.717	13967
918.828	14149
918.939	14153
919.05	13986
919.161	14012
919.272	13909
919.383	13917
919.494	14024
919.604	14320
919.715	14050
919.826	13898
919.936	13986
920.047	14138
920.157	14024
920.267	14252
920.378	14081
920.488	13917
920.598	14252
920.708	14301
920.818	14180
920.928	14191
921.038	14336
921.148	14271
921.258	14035
921.368	13894
921.477	13841
921.587	13753
921.697	13651
921.806	13708
921.916	13605
922.025	13491
922.134	13472
922.244	13369
922.353	13445
922.462	13324
922.571	13244
922.68	13118
922.789	13114
922.898	13137
923.007	13088
923.116	13152
923.224	13053
923.333	13027
923.442	12951
923.55	12954
923.659	12966
923.767	12993
923.876	12886
923.984	12985
924.092	12821
924.201	12882
924.309	12795
924.417	12837
924.525	12753
924.633	12814
924.741	13495
924.849	12582
924.956	12654
925.064	12627
925.172	12330
925.279	12532
925.387	12639
925.494	12673
925.602	12620
925.709	12654
925.816	12418
925.924	12456
926.031	12639
926.138	12494
926.245	12585
926.352	12410
926.459	12513
926.566	12570
926.673	12414
926.779	12304
926.886	12353
926.993	12167
927.099	12129
927.206	12053
927.312	12045
927.419	12064
927.525	12140
927.631	12148
927.737	11965
927.843	11969
927.95	11912
928.056	11954
928.162	11931
928.267	12007
928.373	12559
928.479	11992
928.585	11695
928.69	11904
928.796	11920
928.901	11859
929.007	11707
929.112	11813
929.218	11851
929.323	11649
929.428	11661
929.533	11821
929.638	11535
929.743	11634
929.848	11604
929.953	11566
930.058	11444
930.163	11372
930.267	11292
930.372	11486
930.477	11387
930.581	11509
930.685	11417
930.79	11265
930.894	11284
930.998	11220
931.103	11417
931.207	11083
931.311	11056
931.415	10904
931.519	10653
931.623	10592
