Data from test_V78500241_2380.txt Node
Date: Fri Mar 25 15:26:25 CST 2022
User: usil
Spectrometer: V785-0024
Trigger mode: 0
Integration Time (sec): 4.000000E-1
Scans to average: 1
Nonlinearity correction enabled: false
Boxcar width: 0
Storing dark spectrum: false
XAxis mode: Wavelengths
Number of Pixels in Spectrum: 1024
>>>>>Begin Spectral Data<<<<<
801.071	27435
801.214	27317
801.356	27058
801.499	26944
801.641	26807
801.783	26868
801.926	26857
802.068	26811
802.211	26765
802.353	26746
802.496	26408
802.638	26480
802.78	26511
802.923	26446
803.065	26434
803.208	26412
803.35	26488
803.492	26541
803.635	26640
803.777	26488
803.919	26659
804.061	26990
804.204	26765
804.346	26659
804.488	26362
804.63	26823
804.773	26568
804.915	26621
805.057	26727
805.199	26697
805.341	26720
805.483	26895
805.626	26804
805.768	26670
805.91	26762
806.052	26644
806.194	26689
806.336	26914
806.478	26861
806.62	26754
806.762	26937
806.904	27013
807.046	27252
807.188	27104
807.33	27104
807.472	27367
807.614	27077
807.756	27085
807.898	27070
808.04	26940
808.182	26937
808.324	27157
808.465	27036
808.607	27104
808.749	27405
808.891	27458
809.033	27504
809.174	27348
809.316	27332
809.458	27344
809.6	27340
809.741	27332
809.883	27466
810.025	27587
810.166	27561
810.308	27606
810.45	27583
810.591	27534
810.733	27378
810.875	27332
811.016	27214
811.158	27116
811.299	27477
811.441	27443
811.582	27431
811.724	27287
811.865	27237
812.007	27306
812.148	27336
812.29	27272
812.431	27542
812.573	27526
812.714	27679
812.855	27846
812.997	27956
813.138	27998
813.279	28013
813.421	27899
813.562	27869
813.703	27583
813.845	27431
813.986	27279
814.127	27085
814.268	26849
814.41	27051
814.551	27017
814.692	27176
814.833	26880
814.974	27093
815.115	27077
815.256	26845
815.397	26872
815.539	26960
815.68	26750
815.821	26849
815.962	26655
816.103	26834
816.244	26526
816.385	26549
816.526	26533
816.666	26450
816.807	26267
816.948	26290
817.089	26408
817.23	26290
817.371	26282
817.512	26252
817.653	26294
817.793	26164
817.934	26142
818.075	26263
818.216	26233
818.356	26191
818.497	26237
818.638	25951
818.778	25997
818.919	25871
819.06	26149
819.2	26187
819.341	26317
819.481	26355
819.622	26385
819.762	26651
819.903	26648
820.043	26431
820.184	26442
820.324	26431
820.465	26419
820.605	26298
820.746	26415
820.886	26218
821.026	26294
821.167	26343
821.307	26355
821.447	26267
821.588	26157
821.728	26096
821.868	25807
822.008	25776
822.149	25826
822.289	25715
822.429	25403
822.569	25445
822.709	25487
822.849	25373
822.99	25343
823.13	25171
823.27	25240
823.41	25099
823.55	24867
823.69	25046
823.83	24943
823.97	24939
824.11	24844
824.25	24791
824.389	24867
824.529	24943
824.669	24935
824.809	25023
824.949	24897
825.089	24886
825.228	24863
825.368	24650
825.508	24757
825.648	24722
825.787	24848
825.927	24825
826.067	24688
826.206	24559
826.346	24848
826.485	24798
826.625	24677
826.765	24894
826.904	24753
827.044	24597
827.183	24517
827.323	24445
827.462	24593
827.601	24513
827.741	24388
827.88	24418
828.02	24388
828.159	24399
828.298	24563
828.437	24460
828.577	24369
828.716	24566
828.855	24304
828.994	24220
829.134	24144
829.273	24216
829.412	24133
829.551	24045
829.69	24148
829.829	24167
829.968	24289
830.107	24220
830.246	24152
830.385	24140
830.524	23950
830.663	24087
830.802	23977
830.941	23802
831.08	23794
831.219	23874
831.357	23733
831.496	24018
831.635	23756
831.774	23707
831.913	23558
832.051	23634
832.19	23600
832.329	23543
832.467	23482
832.606	23391
832.744	23398
832.883	23307
833.022	23455
833.16	23376
833.299	23395
833.437	23436
833.576	23589
833.714	23535
833.852	23520
833.991	23547
834.129	23547
834.267	23562
834.406	23570
834.544	23551
834.682	23493
834.821	23490
834.959	23722
835.097	23440
835.235	23543
835.373	23463
835.511	23524
835.65	23322
835.788	23353
835.926	23269
836.064	23204
836.202	23155
836.34	23353
836.478	23376
836.615	23280
836.753	23398
836.891	23501
837.029	23258
837.167	23250
837.305	23261
837.443	23200
837.58	23124
837.718	23356
837.856	23223
837.993	23124
838.131	23223
838.269	22999
838.406	23086
838.544	23064
838.681	22908
838.819	22725
838.956	22706
839.094	22755
839.231	22835
839.369	22949
839.506	23022
839.643	22881
839.781	22618
839.918	22664
840.055	22710
840.193	22706
840.33	22512
840.467	22599
840.604	22675
840.742	22824
840.879	22432
841.016	22478
841.153	22516
841.29	22664
841.427	22550
841.564	22596
841.701	22691
841.838	22641
841.975	22485
842.112	22382
842.249	22295
842.385	22478
842.522	22557
842.659	22443
842.796	22276
842.933	22310
843.069	22367
843.206	22325
843.343	22474
843.479	22333
843.616	22375
843.752	22082
843.889	22192
844.025	22314
844.162	22017
844.298	22166
844.435	22116
844.571	22135
844.708	22223
844.844	22299
844.98	22143
845.117	22234
845.253	22063
845.389	22036
845.525	21991
845.661	22017
845.798	21869
845.934	21972
846.07	21800
846.206	21911
846.342	21960
846.478	21816
846.614	21705
846.75	21561
846.886	21606
847.022	21629
847.158	21595
847.294	21580
847.429	21614
847.565	21534
847.701	21892
847.837	21367
847.972	21325
848.108	21393
848.244	21363
848.379	21230
848.515	21165
848.65	21249
848.786	21241
848.921	21268
849.057	21340
849.192	21302
849.328	21188
849.463	21226
849.598	21108
849.734	21005
849.869	21062
850.004	20986
850.14	21009
850.275	20982
850.41	20857
850.545	20861
850.68	20960
850.815	20796
850.95	20937
851.085	21157
851.22	21024
851.355	21009
851.49	20952
851.625	21032
851.76	20868
851.895	20944
852.03	20804
852.165	20944
852.299	20918
852.434	20918
852.569	20876
852.703	20941
852.838	21058
852.973	21108
853.107	21081
853.242	20906
853.376	20830
853.511	20716
853.645	20769
853.78	20857
853.914	20887
854.048	20636
854.183	20743
854.317	20872
854.451	20868
854.585	20727
854.72	20724
854.854	20834
854.988	20651
855.122	20743
855.256	20670
855.39	20674
855.524	20800
855.658	20731
855.792	20883
855.926	20708
856.06	20838
856.194	20792
856.327	20716
856.461	20746
856.595	20796
856.729	20724
856.862	20929
856.996	20887
857.13	20807
857.263	20944
857.397	20834
857.53	20815
857.664	20845
857.797	20872
857.931	20883
858.064	20796
858.197	20853
858.331	20708
858.464	20750
858.597	20648
858.731	20796
858.864	20773
858.997	20746
859.13	20849
859.263	20861
859.396	20880
859.529	20686
859.662	20674
859.795	20663
859.928	20765
860.061	20902
860.194	21039
860.327	20769
860.46	20682
860.592	20929
860.725	20971
860.858	20986
860.99	20750
861.123	20735
861.256	20686
861.388	20804
861.521	21420
861.653	20754
861.786	20629
861.918	20678
862.05	20708
862.183	20701
862.315	20819
862.447	20781
862.58	20655
862.712	20503
862.844	20427
862.976	20571
863.108	20511
863.24	20891
863.372	20434
863.504	20511
863.636	20465
863.768	20476
863.9	20408
864.032	20484
864.164	20507
864.296	20568
864.428	20632
864.559	20583
864.691	20537
864.823	20537
864.954	20537
865.086	20473
865.217	20431
865.349	20339
865.48	20427
865.612	20396
865.743	20446
865.875	20590
866.006	20271
866.137	20461
866.269	20362
866.4	20362
866.531	20347
866.662	20309
866.793	20320
866.924	20362
867.055	20366
867.186	20290
867.317	20290
867.448	20237
867.579	20210
867.71	20172
867.841	20294
867.972	20438
868.103	20427
868.233	20324
868.364	20358
868.495	20549
868.625	20518
868.756	20708
868.886	20484
869.017	20461
869.147	20731
869.278	20670
869.408	20636
869.539	20549
869.669	20686
869.799	20587
869.929	20663
870.06	20807
870.19	20796
870.32	20864
870.45	20819
870.58	20929
870.71	21119
870.84	21043
870.97	20906
871.1	20963
871.23	21176
871.36	21154
871.489	21001
871.619	21077
871.749	21169
871.879	21237
872.008	21260
872.138	21131
872.267	21116
872.397	21028
872.526	21096
872.656	20982
872.785	21081
872.915	21180
873.044	21302
873.173	21195
873.303	21260
873.432	21268
873.561	21359
873.69	21279
873.819	21203
873.948	21310
874.077	21146
874.206	21131
874.335	21161
874.464	21287
874.593	21545
874.722	21466
874.851	21405
874.979	21485
875.108	21477
875.237	21370
875.365	21405
875.494	21439
875.623	21568
875.751	21367
875.88	21545
876.008	21610
876.136	21641
876.265	21915
876.393	21994
876.521	21922
876.65	21873
876.778	21770
876.906	21747
877.034	21747
877.162	21797
877.29	21690
877.418	21793
877.546	21800
877.674	21823
877.802	21789
877.93	21732
878.058	21732
878.185	21644
878.313	21762
878.441	21785
878.568	21583
878.696	21675
878.824	21838
878.951	21915
879.079	22006
879.206	21960
879.333	22002
879.461	21823
879.588	21808
879.715	21876
879.842	22101
879.97	21823
880.097	21610
880.224	21633
880.351	21561
880.478	21591
880.605	21538
880.732	21625
880.859	21930
880.986	21599
881.112	21751
881.239	21359
881.366	21306
881.493	21325
881.619	21108
881.746	21329
881.872	21199
881.999	21138
882.125	21150
882.252	21218
882.378	21165
882.505	21329
882.631	21089
882.757	20933
882.883	21024
883.01	20838
883.136	20845
883.262	20826
883.388	20602
883.514	20941
883.64	20868
883.766	20929
883.892	20594
884.018	20731
884.143	20826
884.269	20967
884.395	20602
884.52	20530
884.646	20503
884.772	20526
884.897	20488
885.023	20541
885.148	20556
885.274	20636
885.399	20511
885.524	20556
885.65	20560
885.775	20587
885.9	20374
886.025	20587
886.15	20701
886.275	20537
886.4	20522
886.525	20438
886.65	20526
886.775	20530
886.9	20514
887.025	20678
887.149	20541
887.274	20347
887.399	20282
887.523	20366
887.648	20320
887.773	20206
887.897	20336
888.021	20313
888.146	20199
888.27	20332
888.395	20408
888.519	20423
888.643	20415
888.767	20362
888.891	20164
889.015	20081
889.139	20191
889.263	20065
889.387	20248
889.511	20427
889.635	20298
889.759	20138
889.883	20111
890.006	20077
890.13	20221
890.254	20081
890.377	20062
890.501	19940
890.624	19830
890.748	19932
890.871	19742
890.995	19666
891.118	19658
891.241	19830
891.364	19662
891.488	19833
891.611	19620
891.734	19677
891.857	19807
891.98	19643
892.103	19776
892.226	19628
892.349	19643
892.471	19559
892.594	19655
892.717	19662
892.839	19594
892.962	19525
893.085	19753
893.207	19719
893.33	19445
893.452	19666
893.575	19529
893.697	19605
893.819	19769
893.941	19871
894.064	19818
894.186	19708
894.308	19457
894.43	19624
894.552	19719
894.674	19666
894.796	19518
894.918	19655
895.04	19685
895.161	19616
895.283	19693
895.405	19487
895.526	19643
895.648	19696
895.769	19601
895.891	19689
896.012	19662
896.134	19719
896.255	19639
896.376	19662
896.498	19582
896.619	19651
896.74	19597
896.861	19643
896.982	20012
897.103	20115
897.224	19951
897.345	19898
897.466	19750
897.587	19890
897.708	20100
897.828	19890
897.949	19753
898.07	19769
898.19	19803
898.311	19993
898.431	19795
898.552	19799
898.672	19940
898.792	19936
898.913	19814
899.033	19750
899.153	19624
899.273	19552
899.393	19613
899.513	19578
899.633	19594
899.753	19742
899.873	19422
899.993	19651
900.113	19601
900.232	19624
900.352	19537
900.472	19499
900.591	19384
900.711	19343
900.83	19362
900.95	19449
901.069	19514
901.189	19331
901.308	19107
901.427	19000
901.546	19069
901.665	18989
901.784	19069
901.904	18798
902.023	18764
902.141	18559
902.26	18437
902.379	18574
902.498	18555
902.617	18528
902.735	18536
902.854	18525
902.973	18399
903.091	18308
903.21	18155
903.328	18129
903.446	18144
903.565	17923
903.683	18026
903.801	17885
903.919	17958
904.038	17977
904.156	17786
904.274	17824
904.392	17836
904.51	17733
904.627	17695
904.745	17821
904.863	17824
904.981	17562
905.098	17505
905.216	17467
905.334	17459
905.451	17486
905.569	17429
905.686	17421
905.803	17349
905.921	17246
906.038	17326
906.155	17227
906.272	17147
906.389	17060
906.506	17029
906.623	16934
906.74	16942
906.857	16824
906.974	16896
907.091	17128
907.208	16980
907.324	17022
907.441	16889
907.557	16793
907.674	16698
907.79	16554
907.907	16637
908.023	16752
908.139	16729
908.256	16603
908.372	16569
908.488	16691
908.604	16375
908.72	16455
908.836	16413
908.952	16417
909.068	16360
909.184	16493
909.3	16512
909.415	16512
909.531	16341
909.647	16207
909.762	16173
909.878	16105
909.993	16063
910.108	16078
910.224	16162
910.339	16162
910.454	16013
910.57	15934
910.685	15964
910.8	16196
910.915	16051
911.03	15903
911.145	15705
911.259	15751
911.374	15922
911.489	15686
911.604	15500
911.718	15477
911.833	15424
911.947	15416
912.062	15245
912.176	15511
912.291	15462
912.405	15386
912.519	15580
912.633	15690
912.748	15488
912.862	15496
912.976	15306
913.09	15195
913.204	15298
913.318	15256
913.431	15272
913.545	15401
913.659	15496
913.772	15355
913.886	15192
914	15135
914.113	15180
914.226	15154
914.34	15161
914.453	15127
914.566	15218
914.68	14906
914.793	14845
914.906	14739
915.019	14617
915.132	14674
915.245	14731
915.358	14796
915.47	14693
915.583	14701
915.696	14697
915.809	14914
915.921	14853
916.034	14777
916.146	14689
916.259	14537
916.371	14712
916.483	14670
916.595	14571
916.708	14533
916.82	14556
916.932	14473
917.044	14476
917.156	14480
917.268	14385
917.38	14396
917.491	14457
917.603	14442
917.715	14431
917.826	14511
917.938	14396
918.049	14248
918.161	14339
918.272	14415
918.384	14488
918.495	14351
918.606	14161
918.717	14180
918.828	14199
918.939	14138
919.05	14012
919.161	14119
919.272	14027
919.383	14005
919.494	14187
919.604	14290
919.715	14149
919.826	14031
919.936	14111
920.047	14153
920.157	14134
920.267	14313
920.378	14164
920.488	14020
920.598	14343
920.708	14434
920.818	14305
920.928	14237
921.038	14351
921.148	14385
921.258	14039
921.368	13986
921.477	13860
921.587	13837
921.697	13685
921.806	13974
921.916	13719
922.025	13674
922.134	13628
922.244	13483
922.353	13601
922.462	13438
922.571	13320
922.68	13183
922.789	13118
922.898	13194
923.007	13118
923.116	13168
923.224	13175
923.333	13129
923.442	13084
923.55	12970
923.659	13069
923.767	13038
923.876	12856
923.984	13042
924.092	12844
924.201	12905
924.309	12875
924.417	12894
924.525	12970
924.633	12924
924.741	13666
924.849	12642
924.956	12916
925.064	12460
925.172	12483
925.279	12620
925.387	12627
925.494	12646
925.602	12677
925.709	12650
925.816	12521
925.924	12559
926.031	12662
926.138	12578
926.245	12578
926.352	12445
926.459	12604
926.566	12585
926.673	12429
926.779	12418
926.886	12334
926.993	12262
927.099	12232
927.206	12095
927.312	12144
927.419	12277
927.525	12209
927.631	12175
927.737	12136
927.843	12091
927.95	11927
928.056	12007
928.162	12034
928.267	12026
928.373	12654
928.479	12072
928.585	11912
928.69	11927
928.796	12003
928.901	11920
929.007	11745
929.112	11866
929.218	11805
929.323	11794
929.428	11714
929.533	11859
929.638	11714
929.743	11756
929.848	11680
929.953	11737
930.058	11596
930.163	11429
930.267	11467
930.372	11562
930.477	11402
930.581	11577
930.685	11421
930.79	11311
930.894	11288
930.998	11292
931.103	11425
931.207	11064
931.311	11014
931.415	10930
931.519	10771
931.623	10736
