Data from test_V78500241_1205.txt Node
Date: Fri Mar 25 15:18:14 CST 2022
User: usil
Spectrometer: V785-0024
Trigger mode: 0
Integration Time (sec): 4.000000E-1
Scans to average: 1
Nonlinearity correction enabled: false
Boxcar width: 0
Storing dark spectrum: false
XAxis mode: Wavelengths
Number of Pixels in Spectrum: 1024
>>>>>Begin Spectral Data<<<<<
801.071	28109
801.214	28169
801.356	27911
801.499	27888
801.641	27797
801.783	27656
801.926	27720
802.068	27717
802.211	27603
802.353	27690
802.496	27519
802.638	27488
802.78	27397
802.923	27367
803.065	27382
803.208	27382
803.35	27530
803.492	27469
803.635	27675
803.777	27462
803.919	27713
804.061	28051
804.204	27751
804.346	27724
804.488	27473
804.63	27553
804.773	27595
804.915	27660
805.057	27759
805.199	27561
805.341	27751
805.483	27736
805.626	27755
805.768	27641
805.91	27705
806.052	27793
806.194	27713
806.336	27949
806.478	27736
806.62	27797
806.762	28013
806.904	28013
807.046	28276
807.188	28272
807.33	28295
807.472	28169
807.614	28078
807.756	28090
807.898	27956
808.04	27998
808.182	27968
808.324	28044
808.465	28139
808.607	28169
808.749	28375
808.891	28455
809.033	28554
809.174	28481
809.316	28348
809.458	28413
809.6	28504
809.741	28432
809.883	28466
810.025	28626
810.166	28683
810.308	28630
810.45	28611
810.591	28577
810.733	28554
810.875	28401
811.016	28272
811.158	28280
811.299	28489
811.441	28664
811.582	28546
811.724	28440
811.865	28291
812.007	28394
812.148	28462
812.29	28443
812.431	28622
812.573	28805
812.714	28839
812.855	28858
812.997	29174
813.138	29064
813.279	29105
813.421	28987
813.562	28809
813.703	28877
813.845	28519
813.986	28329
814.127	28200
814.268	28143
814.41	28120
814.551	28101
814.692	28105
814.833	28124
814.974	27979
815.115	28188
815.256	27994
815.397	27994
815.539	27991
815.68	27842
815.821	27778
815.962	27968
816.103	27983
816.244	27941
816.385	27759
816.526	27679
816.666	27492
816.807	27412
816.948	27386
817.089	27515
817.23	27507
817.371	27660
817.512	27329
817.653	27454
817.793	27469
817.934	27530
818.075	27507
818.216	27610
818.356	27405
818.497	27294
818.638	27294
818.778	27226
818.919	27287
819.06	27245
819.2	27325
819.341	27530
819.481	27427
819.622	27622
819.762	27892
819.903	27622
820.043	27637
820.184	27694
820.324	27504
820.465	27717
820.605	27557
820.746	27450
820.886	27237
821.026	27492
821.167	27500
821.307	27610
821.447	27408
821.588	27355
821.728	27138
821.868	27142
822.008	26982
822.149	27051
822.289	26868
822.429	26583
822.569	26556
822.709	26598
822.849	26381
822.99	26457
823.13	26419
823.27	26278
823.41	26195
823.55	26069
823.69	26275
823.83	26180
823.97	26221
824.11	26122
824.25	26096
824.389	26046
824.529	26218
824.669	26157
824.809	26183
824.949	26119
825.089	26195
825.228	26115
825.368	25951
825.508	26001
825.648	26008
825.787	25940
825.927	26039
826.067	25902
826.206	26005
826.346	26065
826.485	26008
826.625	25932
826.765	25906
826.904	26046
827.044	25677
827.183	25769
827.323	25715
827.462	25765
827.601	25609
827.741	25479
827.88	25734
828.02	25563
828.159	25681
828.298	25632
828.437	25868
828.577	25685
828.716	25856
828.855	25578
828.994	25457
829.134	25354
829.273	25396
829.412	25324
829.551	25324
829.69	25381
829.829	25441
829.968	25384
830.107	25575
830.246	25384
830.385	25194
830.524	25209
830.663	25129
830.802	25012
830.941	24920
831.08	24901
831.219	25107
831.357	25012
831.496	25240
831.635	25034
831.774	24939
831.913	24829
832.051	24821
832.19	24787
832.329	24844
832.467	24703
832.606	24593
832.744	24547
832.883	24498
833.022	24620
833.16	24635
833.299	24753
833.437	24700
833.576	24722
833.714	24658
833.852	24795
833.991	24806
834.129	24859
834.267	24726
834.406	24738
834.544	24798
834.682	24783
834.821	24734
834.959	24894
835.097	24707
835.235	24817
835.373	24726
835.511	24772
835.65	24593
835.788	24585
835.926	24574
836.064	24342
836.202	24479
836.34	24623
836.478	24738
836.615	24639
836.753	24559
836.891	24639
837.029	24635
837.167	24513
837.305	24593
837.443	24589
837.58	24410
837.718	24490
837.856	24429
837.993	24403
838.131	24464
838.269	24330
838.406	24372
838.544	24235
838.681	24110
838.819	24076
838.956	23817
839.094	23836
839.231	23965
839.369	24110
839.506	24308
839.643	24060
839.781	23824
839.918	23798
840.055	23988
840.193	23897
840.33	23821
840.467	23817
840.604	23916
840.742	23885
840.879	23665
841.016	23718
841.153	23726
841.29	23969
841.427	23790
841.564	23737
841.701	23737
841.838	23684
841.975	23687
842.112	23646
842.249	23589
842.385	23672
842.522	23710
842.659	23524
842.796	23474
842.933	23596
843.069	23649
843.206	23497
843.343	23760
843.479	23482
843.616	23596
843.752	23284
843.889	23448
844.025	23433
844.162	23318
844.298	23429
844.435	23273
844.571	23208
844.708	23398
844.844	23448
844.98	23429
845.117	23318
845.253	23326
845.389	23208
845.525	23220
845.661	23364
845.798	23098
845.934	23094
846.07	23029
846.206	22995
846.342	23117
846.478	23067
846.614	22809
846.75	22717
846.886	22786
847.022	22793
847.158	22812
847.294	22713
847.429	22820
847.565	22736
847.701	22889
847.837	22565
847.972	22409
848.108	22550
848.244	22634
848.379	22405
848.515	22394
848.65	22219
848.786	22363
848.921	22352
849.057	22402
849.192	22470
849.328	22375
849.463	22421
849.598	22386
849.734	22204
849.869	22280
850.004	22147
850.14	22181
850.275	22112
850.41	22006
850.545	22147
850.68	22120
850.815	22139
850.95	22036
851.085	22295
851.22	22322
851.355	22158
851.49	22147
851.625	22150
851.76	22143
851.895	22025
852.03	22101
852.165	22204
852.299	22223
852.434	22177
852.569	22154
852.703	22082
852.838	22325
852.973	22211
853.107	22325
853.242	22173
853.376	21956
853.511	21926
853.645	21964
853.78	22185
853.914	21975
854.048	21964
854.183	21926
854.317	22010
854.451	22181
854.585	22044
854.72	21994
854.854	21972
854.988	22032
855.122	21941
855.256	21842
855.39	21964
855.524	22207
855.658	22044
855.792	22013
855.926	21899
856.06	22112
856.194	22048
856.327	21949
856.461	21899
856.595	22010
856.729	21930
856.862	22017
856.996	22029
857.13	21994
857.263	22063
857.397	22059
857.53	21827
857.664	22051
857.797	22025
857.931	22188
858.064	21937
858.197	21895
858.331	21937
858.464	21892
858.597	21774
858.731	21930
858.864	21975
858.997	21850
859.13	22006
859.263	21972
859.396	21983
859.529	21979
859.662	21911
859.795	21846
859.928	21987
860.061	22097
860.194	22131
860.327	22044
860.46	21842
860.592	22021
860.725	22154
860.858	22105
860.99	21983
861.123	21850
861.256	21876
861.388	22006
861.521	22805
861.653	21808
861.786	21884
861.918	21804
862.05	21873
862.183	21846
862.315	21991
862.447	21899
862.58	21918
862.712	21625
862.844	21728
862.976	21720
863.108	21751
863.24	22143
863.372	21682
863.504	21709
863.636	21686
863.768	21663
863.9	21671
864.032	21717
864.164	21564
864.296	21614
864.428	21785
864.559	21797
864.691	21766
864.823	21831
864.954	21686
865.086	21599
865.217	21694
865.349	21496
865.48	21526
865.612	21545
865.743	21633
865.875	21523
866.006	21534
866.137	21500
866.269	21447
866.4	21492
866.531	21530
866.662	21382
866.793	21412
866.924	21500
867.055	21443
867.186	21435
867.317	21431
867.448	21454
867.579	21477
867.71	21431
867.841	21405
867.972	21435
868.103	21511
868.233	21488
868.364	21534
868.495	21530
868.625	21682
868.756	21747
868.886	21652
869.017	21679
869.147	21804
869.278	21816
869.408	21656
869.539	21595
869.669	21755
869.799	21751
869.929	21846
870.06	21880
870.19	22021
870.32	21968
870.45	22029
870.58	22158
870.71	22101
870.84	22215
870.97	22128
871.1	22112
871.23	22226
871.36	22337
871.489	22128
871.619	22207
871.749	22230
871.879	22337
872.008	22481
872.138	22322
872.267	22409
872.397	22238
872.526	22097
872.656	22074
872.785	22181
872.915	22223
873.044	22367
873.173	22276
873.303	22314
873.432	22360
873.561	22421
873.69	22500
873.819	22185
873.948	22512
874.077	22344
874.206	22325
874.335	22375
874.464	22519
874.593	22523
874.722	22512
874.851	22569
874.979	22580
875.108	22485
875.237	22478
875.365	22360
875.494	22478
875.623	22577
875.751	22542
875.88	22561
876.008	22630
876.136	22725
876.265	22908
876.393	23113
876.521	23003
876.65	22965
876.778	22934
876.906	22866
877.034	22965
877.162	22915
877.29	22843
877.418	23010
877.546	22900
877.674	22869
877.802	22908
877.93	22877
878.058	22869
878.185	22641
878.313	22713
878.441	22812
878.568	22687
878.696	22771
878.824	22797
878.951	22873
879.079	23056
879.206	23098
879.333	22968
879.461	22831
879.588	22877
879.715	22984
879.842	23223
879.97	22942
880.097	22717
880.224	22634
880.351	22660
880.478	22736
880.605	22653
880.732	22645
880.859	22942
880.986	22603
881.112	22672
881.239	22618
881.366	22462
881.493	22356
881.619	22310
881.746	22337
881.872	22265
881.999	22135
882.125	22150
882.252	22287
882.378	22287
882.505	22322
882.631	22074
882.757	22010
882.883	22097
883.01	21880
883.136	21857
883.262	21835
883.388	21831
883.514	21876
883.64	21922
883.766	21983
883.892	21720
884.018	21804
884.143	21884
884.269	21949
884.395	21641
884.52	21606
884.646	21530
884.772	21580
884.897	21515
885.023	21485
885.148	21751
885.274	21667
885.399	21690
885.524	21660
885.65	21641
885.775	21656
885.9	21591
886.025	21561
886.15	21759
886.275	21698
886.4	21443
886.525	21545
886.65	21572
886.775	21492
886.9	21652
887.025	21934
887.149	21660
887.274	21397
887.399	21378
887.523	21340
887.648	21359
887.773	21199
887.897	21564
888.021	21443
888.146	21329
888.27	21477
888.395	21340
888.519	21344
888.643	21363
888.767	21416
888.891	21233
889.015	21230
889.139	21241
889.263	21165
889.387	21321
889.511	21374
889.635	21283
889.759	21157
889.883	21180
890.006	21127
890.13	21256
890.254	21070
890.377	21096
890.501	20868
890.624	20876
890.748	20998
890.871	20739
890.995	20640
891.118	20629
891.241	20701
891.364	20708
891.488	20773
891.611	20720
891.734	20758
891.857	20682
891.98	20708
892.103	20746
892.226	20659
892.349	20590
892.471	20511
892.594	20609
892.717	20731
892.839	20549
892.962	20568
893.085	20617
893.207	20560
893.33	20545
893.452	20469
893.575	20575
893.697	20590
893.819	20705
893.941	20705
894.064	20663
894.186	20564
894.308	20545
894.43	20636
894.552	20716
894.674	20640
894.796	20457
894.918	20590
895.04	20518
895.161	20613
895.283	20507
895.405	20503
895.526	20590
895.648	20552
895.769	20609
895.891	20659
896.012	20632
896.134	20720
896.255	20674
896.376	20503
896.498	20476
896.619	20663
896.74	20663
896.861	20613
896.982	20872
897.103	21051
897.224	20899
897.345	20834
897.466	20792
897.587	20735
897.708	20895
897.828	20845
897.949	20682
898.07	20556
898.19	20781
898.311	20918
898.431	20667
898.552	20716
898.672	20777
898.792	20994
898.913	20762
899.033	20674
899.153	20629
899.273	20511
899.393	20457
899.513	20590
899.633	20590
899.753	20526
899.873	20495
899.993	20469
900.113	20507
900.232	20522
900.352	20461
900.472	20298
900.591	20199
900.711	20370
900.83	20309
900.95	20393
901.069	20317
901.189	20187
901.308	19967
901.427	19951
901.546	19887
901.665	19845
901.784	19875
901.904	19742
902.023	19601
902.141	19480
902.26	19331
902.379	19449
902.498	19419
902.617	19274
902.735	19373
902.854	19396
902.973	19301
903.091	18985
903.21	18996
903.328	19053
903.446	18951
903.565	18806
903.683	18837
903.801	18753
903.919	18817
904.038	18802
904.156	18627
904.274	18688
904.392	18532
904.51	18639
904.627	18536
904.745	18627
904.863	18639
904.981	18445
905.098	18296
905.216	18209
905.334	18281
905.451	18277
905.569	18167
905.686	18315
905.803	18270
905.921	18136
906.038	18178
906.155	18125
906.272	17969
906.389	17977
906.506	17870
906.623	17897
906.74	17855
906.857	17748
906.974	17707
907.091	17824
907.208	17927
907.324	17775
907.441	17657
907.557	17448
907.674	17509
907.79	17543
907.907	17539
908.023	17611
908.139	17509
908.256	17436
908.372	17455
908.488	17296
908.604	17273
908.72	17189
908.836	17185
908.952	17200
909.068	17288
909.184	17322
909.3	17330
909.415	17227
909.531	17307
909.647	16915
909.762	16957
909.878	16999
909.993	16824
910.108	16854
910.224	16991
910.339	16968
910.454	16801
910.57	16782
910.685	16634
910.8	17014
910.915	16866
911.03	16691
911.145	16577
911.259	16466
911.374	16519
911.489	16489
911.604	16382
911.718	16375
911.833	16242
911.947	16154
912.062	16219
912.176	16257
912.291	16249
912.405	16211
912.519	16379
912.633	16451
912.748	16318
912.862	16128
912.976	16048
913.09	16063
913.204	16048
913.318	16097
913.431	16207
913.545	16181
913.659	16131
913.772	16055
913.886	15960
914	15857
914.113	15945
914.226	15934
914.34	15800
914.453	15804
914.566	15907
914.68	15751
914.793	15698
914.906	15511
915.019	15515
915.132	15447
915.245	15515
915.358	15549
915.47	15576
915.583	15557
915.696	15401
915.809	15553
915.921	15572
916.034	15443
916.146	15454
916.259	15416
916.371	15469
916.483	15435
916.595	15321
916.708	15344
916.82	15355
916.932	15283
917.044	15161
917.156	15192
917.268	15157
917.38	15036
917.491	15104
917.603	15142
917.715	15169
917.826	15241
917.938	15066
918.049	14876
918.161	15131
918.272	15192
918.384	15291
918.495	15005
918.606	14853
918.717	14880
918.828	14861
918.939	14933
919.05	14815
919.161	14826
919.272	14674
919.383	14686
919.494	14834
919.604	15028
919.715	14785
919.826	14792
919.936	14807
920.047	14864
920.157	14891
920.267	14994
920.378	14796
920.488	14731
920.598	15039
920.708	14994
920.818	15001
920.928	14986
921.038	15089
921.148	15070
921.258	14716
921.368	14697
921.477	14518
921.587	14526
921.697	14450
921.806	14530
921.916	14377
922.025	14301
922.134	14202
922.244	14119
922.353	14256
922.462	14077
922.571	14005
922.68	13833
922.789	13883
922.898	13807
923.007	13925
923.116	13860
923.224	13883
923.333	13742
923.442	13586
923.55	13628
923.659	13734
923.767	13753
923.876	13597
923.984	13632
924.092	13540
924.201	13597
924.309	13594
924.417	13480
924.525	13510
924.633	13491
924.741	14240
924.849	13304
924.956	13343
925.064	13247
925.172	13221
925.279	13141
925.387	13247
925.494	13282
925.602	13384
925.709	13285
925.816	13042
925.924	13232
926.031	13221
926.138	13183
926.245	13091
926.352	13137
926.459	13228
926.566	13213
926.673	13046
926.779	12920
926.886	13038
926.993	12791
927.099	12768
927.206	12757
927.312	12757
927.419	12802
927.525	12764
927.631	12810
927.737	12673
927.843	12715
927.95	12494
928.056	12551
928.162	12597
928.267	12669
928.373	13137
928.479	12692
928.585	12422
928.69	12555
928.796	12517
928.901	12429
929.007	12346
929.112	12513
929.218	12308
929.323	12327
929.428	12251
929.533	12407
929.638	12311
929.743	12311
929.848	12285
929.953	12239
930.058	12175
930.163	12034
930.267	11999
930.372	12098
930.477	12007
930.581	12110
930.685	12007
930.79	11821
930.894	11908
930.998	11813
931.103	11988
931.207	11668
931.311	11474
931.415	11417
931.519	11204
931.623	11212
