Data from test_V78500241_1967.txt Node
Date: Fri Mar 25 15:23:33 CST 2022
User: usil
Spectrometer: V785-0024
Trigger mode: 0
Integration Time (sec): 4.000000E-1
Scans to average: 1
Nonlinearity correction enabled: false
Boxcar width: 0
Storing dark spectrum: false
XAxis mode: Wavelengths
Number of Pixels in Spectrum: 1024
>>>>>Begin Spectral Data<<<<<
801.071	27789
801.214	27724
801.356	27439
801.499	27492
801.641	27348
801.783	27302
801.926	27386
802.068	27275
802.211	27279
802.353	27123
802.496	26929
802.638	27085
802.78	26933
802.923	26921
803.065	26910
803.208	26880
803.35	26944
803.492	27009
803.635	27211
803.777	27047
803.919	27074
804.061	27458
804.204	27245
804.346	27039
804.488	27104
804.63	27207
804.773	27119
804.915	27135
805.057	27165
805.199	27127
805.341	27192
805.483	27230
805.626	27184
805.768	27226
805.91	27291
806.052	27420
806.194	27283
806.336	27416
806.478	27321
806.62	27313
806.762	27397
806.904	27545
807.046	27648
807.188	27686
807.33	27736
807.472	27682
807.614	27492
807.756	27736
807.898	27462
808.04	27367
808.182	27462
808.324	27572
808.465	27504
808.607	27751
808.749	27736
808.891	27907
809.033	28013
809.174	27865
809.316	27732
809.458	27838
809.6	27770
809.741	28067
809.883	27937
810.025	28257
810.166	28059
810.308	28192
810.45	28067
810.591	27941
810.733	27846
810.875	27873
811.016	27755
811.158	27876
811.299	27903
811.441	28059
811.582	27854
811.724	27941
811.865	27747
812.007	27835
812.148	27766
812.29	27956
812.431	28162
812.573	28166
812.714	28295
812.855	28382
812.997	28489
813.138	28531
813.279	28405
813.421	28405
813.562	28360
813.703	28299
813.845	28093
813.986	27819
814.127	27808
814.268	27606
814.41	27610
814.551	27622
814.692	27724
814.833	27378
814.974	27538
815.115	27660
815.256	27469
815.397	27443
815.539	27389
815.68	27310
815.821	27325
815.962	27344
816.103	27458
816.244	27264
816.385	27077
816.526	27089
816.666	26956
816.807	26735
816.948	27036
817.089	27009
817.23	26804
817.371	26864
817.512	26880
817.653	26872
817.793	26845
817.934	26769
818.075	26849
818.216	26838
818.356	26880
818.497	26819
818.638	26530
818.778	26537
818.919	26571
819.06	26609
819.2	26765
819.341	26838
819.481	26868
819.622	27100
819.762	27100
819.903	27070
820.043	26979
820.184	27001
820.324	26876
820.465	26975
820.605	26982
820.746	26990
820.886	26925
821.026	26963
821.167	26830
821.307	27017
821.447	26792
821.588	26819
821.728	26674
821.868	26552
822.008	26351
822.149	26385
822.289	26347
822.429	26039
822.569	26100
822.709	26024
822.849	25803
822.99	25868
823.13	25803
823.27	25811
823.41	25563
823.55	25571
823.69	25578
823.83	25693
823.97	25483
824.11	25415
824.25	25556
824.389	25335
824.529	25559
824.669	25552
824.809	25674
824.949	25616
825.089	25540
825.228	25540
825.368	25312
825.508	25297
825.648	25407
825.787	25255
825.927	25419
826.067	25350
826.206	25289
826.346	25415
826.485	25377
826.625	25373
826.765	25422
826.904	25411
827.044	25065
827.183	25019
827.323	25107
827.462	25187
827.601	25084
827.741	25012
827.88	25065
828.02	24981
828.159	25038
828.298	25065
828.437	25053
828.577	25019
828.716	24985
828.855	24924
828.994	24768
829.134	24738
829.273	24863
829.412	24749
829.551	24703
829.69	24878
829.829	24711
829.968	24726
830.107	24920
830.246	24791
830.385	24726
830.524	24707
830.663	24616
830.802	24452
830.941	24376
831.08	24323
831.219	24418
831.357	24525
831.496	24559
831.635	24369
831.774	24422
831.913	24308
832.051	24106
832.19	24121
832.329	24209
832.467	24064
832.606	23961
832.744	23961
832.883	24007
833.022	23988
833.16	24015
833.299	24106
833.437	24057
833.576	24133
833.714	24125
833.852	24117
833.991	24163
834.129	24258
834.267	24182
834.406	24072
834.544	24251
834.682	24133
834.821	24133
834.959	24235
835.097	24110
835.235	24087
835.373	23942
835.511	24041
835.65	24095
835.788	23901
835.926	23798
836.064	23661
836.202	23828
836.34	23908
836.478	24110
836.615	23931
836.753	23821
836.891	24167
837.029	23988
837.167	23904
837.305	23840
837.443	23809
837.58	23832
837.718	23977
837.856	23805
837.993	23745
838.131	23733
838.269	23615
838.406	23813
838.544	23707
838.681	23440
838.819	23467
838.956	23334
839.094	23265
839.231	23246
839.369	23406
839.506	23684
839.643	23516
839.781	23204
839.918	23292
840.055	23288
840.193	23052
840.33	23155
840.467	23181
840.604	23185
840.742	23326
840.879	23083
841.016	23014
841.153	22923
841.29	23166
841.427	23258
841.564	23132
841.701	23136
841.838	23109
841.975	23121
842.112	23086
842.249	22972
842.385	22915
842.522	23121
842.659	22953
842.796	23102
842.933	22877
843.069	23014
843.206	23025
843.343	23075
843.479	22991
843.616	22877
843.752	22748
843.889	22637
844.025	22892
844.162	22725
844.298	22748
844.435	22763
844.571	22687
844.708	22634
844.844	22828
844.98	22812
845.117	22774
845.253	22622
845.389	22599
845.525	22694
845.661	22774
845.798	22504
845.934	22531
846.07	22344
846.206	22516
846.342	22596
846.478	22303
846.614	22306
846.75	22173
846.886	22188
847.022	22386
847.158	22120
847.294	22173
847.429	22150
847.565	22185
847.701	22382
847.837	21865
847.972	21831
848.108	21987
848.244	22002
848.379	21789
848.515	21739
848.65	21720
848.786	21816
848.921	21884
849.057	21941
849.192	21873
849.328	21793
849.463	21698
849.598	21663
849.734	21717
849.869	21667
850.004	21568
850.14	21637
850.275	21656
850.41	21397
850.545	21458
850.68	21564
850.815	21595
850.95	21458
851.085	21644
851.22	21686
851.355	21572
851.49	21511
851.625	21603
851.76	21428
851.895	21424
852.03	21340
852.165	21561
852.299	21466
852.434	21667
852.569	21485
852.703	21530
852.838	21564
852.973	21720
853.107	21599
853.242	21473
853.376	21397
853.511	21214
853.645	21355
853.78	21572
853.914	21469
854.048	21279
854.183	21359
854.317	21325
854.451	21500
854.585	21393
854.72	21416
854.854	21435
854.988	21317
855.122	21306
855.256	21279
855.39	21397
855.524	21435
855.658	21458
855.792	21359
855.926	21435
856.06	21431
856.194	21469
856.327	21313
856.461	21260
856.595	21416
856.729	21450
856.862	21462
856.996	21370
857.13	21515
857.263	21416
857.397	21507
857.53	21386
857.664	21466
857.797	21252
857.931	21450
858.064	21389
858.197	21450
858.331	21351
858.464	21279
858.597	21268
858.731	21378
858.864	21374
858.997	21173
859.13	21363
859.263	21397
859.396	21450
859.529	21351
859.662	21378
859.795	21256
859.928	21340
860.061	21439
860.194	21511
860.327	21416
860.46	21378
860.592	21477
860.725	21439
860.858	21416
860.99	21500
861.123	21218
861.256	21340
861.388	21378
861.521	22070
861.653	21291
861.786	21127
861.918	21085
862.05	21256
862.183	21393
862.315	21344
862.447	21329
862.58	21291
862.712	21043
862.844	20899
862.976	21127
863.108	21252
863.24	21526
863.372	21001
863.504	21051
863.636	21093
863.768	21058
863.9	21017
864.032	20895
864.164	21074
864.296	21043
864.428	21176
864.559	21157
864.691	21188
864.823	21089
864.954	21123
865.086	21066
865.217	21074
865.349	20876
865.48	20944
865.612	21077
865.743	21081
865.875	20956
866.006	20891
866.137	21077
866.269	20994
866.4	20880
866.531	20853
866.662	20819
866.793	20853
866.924	20887
867.055	20861
867.186	20944
867.317	20861
867.448	20792
867.579	20857
867.71	20746
867.841	20861
867.972	20792
868.103	20838
868.233	20986
868.364	20914
868.495	20994
868.625	21104
868.756	21291
868.886	21066
869.017	21077
869.147	21150
869.278	21138
869.408	21096
869.539	21108
869.669	21123
869.799	21199
869.929	21218
870.06	21173
870.19	21576
870.32	21450
870.45	21412
870.58	21469
870.71	21675
870.84	21610
870.97	21462
871.1	21568
871.23	21751
871.36	21732
871.489	21595
871.619	21728
871.749	21679
871.879	21816
872.008	21747
872.138	21770
872.267	21644
872.397	21599
872.526	21549
872.656	21663
872.785	21610
872.915	21789
873.044	21865
873.173	21797
873.303	21869
873.432	21903
873.561	21854
873.69	21888
873.819	21660
873.948	21876
874.077	21770
874.206	21690
874.335	21751
874.464	21831
874.593	22010
874.722	21884
874.851	21991
874.979	21918
875.108	22017
875.237	21975
875.365	21911
875.494	22032
875.623	21975
875.751	22002
875.88	22143
876.008	22238
876.136	22238
876.265	22485
876.393	22451
876.521	22508
876.65	22421
876.778	22276
876.906	22409
877.034	22360
877.162	22276
877.29	22215
877.418	22356
877.546	22398
877.674	22200
877.802	22371
877.93	22325
878.058	22226
878.185	22177
878.313	22371
878.441	22185
878.568	22055
878.696	22154
878.824	22337
878.951	22242
879.079	22497
879.206	22694
879.333	22500
879.461	22318
879.588	22409
879.715	22497
879.842	22538
879.97	22356
880.097	22299
880.224	22044
880.351	22242
880.478	22070
880.605	22105
880.732	22143
880.859	22474
880.986	22131
881.112	22257
881.239	21998
881.366	21911
881.493	21797
881.619	21816
881.746	21747
881.872	21709
881.999	21667
882.125	21595
882.252	21671
882.378	21774
882.505	21800
882.631	21625
882.757	21435
882.883	21515
883.01	21348
883.136	21481
883.262	21264
883.388	21287
883.514	21317
883.64	21435
883.766	21336
883.892	21169
884.018	21173
884.143	21321
884.269	21420
884.395	21195
884.52	20971
884.646	21074
884.772	20941
884.897	21043
885.023	21017
885.148	21169
885.274	21127
885.399	21074
885.524	21032
885.65	21176
885.775	21180
885.9	21024
886.025	21279
886.15	21077
886.275	20921
886.4	20883
886.525	21138
886.65	21005
886.775	20956
886.9	21104
887.025	21310
887.149	21020
887.274	20891
887.399	20963
887.523	20830
887.648	20678
887.773	20796
887.897	20948
888.021	20849
888.146	20735
888.27	20910
888.395	20906
888.519	20807
888.643	20872
888.767	20910
888.891	20739
889.015	20659
889.139	20667
889.263	20670
889.387	20651
889.511	20811
889.635	20765
889.759	20640
889.883	20583
890.006	20705
890.13	20686
890.254	20507
890.377	20537
890.501	20351
890.624	20385
890.748	20396
890.871	20244
890.995	20221
891.118	20138
891.241	20161
891.364	20256
891.488	20366
891.611	20187
891.734	20187
891.857	20180
891.98	20043
892.103	20168
892.226	20237
892.349	20180
892.471	20031
892.594	20176
892.717	20145
892.839	20046
892.962	20081
893.085	20081
893.207	20062
893.33	19951
893.452	20035
893.575	20191
893.697	20065
893.819	20191
893.941	20381
894.064	20195
894.186	20142
894.308	20031
894.43	20168
894.552	20218
894.674	20142
894.796	19978
894.918	20145
895.04	20111
895.161	20107
895.283	20157
895.405	20024
895.526	20062
895.648	20134
895.769	20168
895.891	20206
896.012	20161
896.134	20199
896.255	20046
896.376	20005
896.498	20100
896.619	20145
896.74	19993
896.861	20206
896.982	20393
897.103	20560
897.224	20309
897.345	20199
897.466	20187
897.587	20248
897.708	20377
897.828	20290
897.949	20248
898.07	20191
898.19	20157
898.311	20442
898.431	20248
898.552	20252
898.672	20389
898.792	20328
898.913	20393
899.033	20351
899.153	20115
899.273	19921
899.393	20130
899.513	19936
899.633	20081
899.753	19951
899.873	20035
899.993	20172
900.113	19974
900.232	19982
900.352	19974
900.472	19909
900.591	19803
900.711	19852
900.83	19666
900.95	19902
901.069	19921
901.189	19704
901.308	19548
901.427	19403
901.546	19422
901.665	19514
901.784	19392
901.904	19282
902.023	19236
902.141	18973
902.26	19000
902.379	19000
902.498	18996
902.617	18966
902.735	18954
902.854	18871
902.973	18814
903.091	18623
903.21	18528
903.328	18574
903.446	18467
903.565	18471
903.683	18410
903.801	18292
903.919	18483
904.038	18338
904.156	18159
904.274	18243
904.392	18205
904.51	18186
904.627	18178
904.745	18311
904.863	18273
904.981	18057
905.098	17920
905.216	17874
905.334	17885
905.451	17893
905.569	17775
905.686	17893
905.803	17786
905.921	17604
906.038	17710
906.155	17661
906.272	17501
906.389	17471
906.506	17410
906.623	17406
906.74	17421
906.857	17303
906.974	17341
907.091	17337
907.208	17455
907.324	17376
907.441	17155
907.557	17109
907.674	17086
907.79	17102
907.907	17105
908.023	17231
908.139	17151
908.256	17022
908.372	17041
908.488	16873
908.604	16831
908.72	16763
908.836	16892
908.952	16713
909.068	16896
909.184	16767
909.3	16835
909.415	16839
909.531	16752
909.647	16565
909.762	16542
909.878	16531
909.993	16565
910.108	16436
910.224	16478
910.339	16451
910.454	16432
910.57	16318
910.685	16280
910.8	16512
910.915	16546
911.03	16284
911.145	16131
911.259	16166
911.374	16116
911.489	16109
911.604	16025
911.718	15831
911.833	15899
911.947	15751
912.062	15603
912.176	15835
912.291	15835
912.405	15873
912.519	16067
912.633	16090
912.748	15934
912.862	15724
912.976	15663
913.09	15622
913.204	15671
913.318	15739
913.431	15736
913.545	15747
913.659	15751
913.772	15648
913.886	15568
914	15431
914.113	15603
914.226	15553
914.34	15580
914.453	15367
914.566	15523
914.68	15420
914.793	15321
914.906	15233
915.019	15108
915.132	15009
915.245	15066
915.358	15146
915.47	14967
915.583	15039
915.696	15070
915.809	15127
915.921	15161
916.034	15013
916.146	14933
916.259	14899
916.371	15066
916.483	15081
916.595	14937
916.708	14925
916.82	14933
916.932	14876
917.044	14960
917.156	14826
917.268	14785
917.38	14815
917.491	14670
917.603	14857
917.715	14724
917.826	14876
917.938	14648
918.049	14651
918.161	14667
918.272	14834
918.384	14868
918.495	14705
918.606	14469
918.717	14446
918.828	14533
918.939	14568
919.05	14415
919.161	14419
919.272	14271
919.383	14214
919.494	14511
919.604	14667
919.715	14503
919.826	14343
919.936	14469
920.047	14507
920.157	14408
920.267	14655
920.378	14492
920.488	14499
920.598	14568
920.708	14667
920.818	14564
920.928	14617
921.038	14750
921.148	14659
921.258	14415
921.368	14252
921.477	14313
921.587	14218
921.697	14077
921.806	14259
921.916	14031
922.025	13883
922.134	13826
922.244	13845
922.353	13868
922.462	13719
922.571	13605
922.68	13430
922.789	13525
922.898	13609
923.007	13441
923.116	13499
923.224	13499
923.333	13381
923.442	13285
923.55	13285
923.659	13266
923.767	13350
923.876	13156
923.984	13324
924.092	13225
924.201	13217
924.309	13187
924.417	13217
924.525	13137
924.633	13141
924.741	13875
924.849	12970
924.956	13152
925.064	12954
925.172	12916
925.279	12856
925.387	12867
925.494	12920
925.602	13038
925.709	12935
925.816	12871
925.924	12821
926.031	13046
926.138	12913
926.245	12837
926.352	12738
926.459	12947
926.566	12764
926.673	12833
926.779	12703
926.886	12612
926.993	12566
927.099	12437
927.206	12456
927.312	12422
927.419	12578
927.525	12414
927.631	12422
927.737	12380
927.843	12350
927.95	12205
928.056	12304
928.162	12277
928.267	12315
928.373	12966
928.479	12403
928.585	12133
928.69	12232
928.796	12380
928.901	12243
929.007	12045
929.112	12110
929.218	12098
929.323	12049
929.428	11969
929.533	12167
929.638	11908
929.743	11946
929.848	11927
929.953	11958
930.058	11840
930.163	11733
930.267	11680
930.372	11889
930.477	11577
930.581	11889
930.685	11733
930.79	11604
930.894	11642
930.998	11577
931.103	11646
931.207	11414
931.311	11318
931.415	11216
931.519	11064
931.623	10949
