Data from test_V78500241_1695.txt Node
Date: Fri Mar 25 15:21:39 CST 2022
User: usil
Spectrometer: V785-0024
Trigger mode: 0
Integration Time (sec): 4.000000E-1
Scans to average: 1
Nonlinearity correction enabled: false
Boxcar width: 0
Storing dark spectrum: false
XAxis mode: Wavelengths
Number of Pixels in Spectrum: 1024
>>>>>Begin Spectral Data<<<<<
801.071	28188
801.214	27960
801.356	27785
801.499	27682
801.641	27603
801.783	27610
801.926	27618
802.068	27629
802.211	27500
802.353	27450
802.496	27294
802.638	27230
802.78	27264
802.923	27176
803.065	27116
803.208	27218
803.35	27260
803.492	27325
803.635	27424
803.777	27306
803.919	27496
804.061	27762
804.204	27462
804.346	27420
804.488	27424
804.63	27435
804.773	27405
804.915	27427
805.057	27488
805.199	27523
805.341	27644
805.483	27671
805.626	27530
805.768	27485
805.91	27583
806.052	27530
806.194	27625
806.336	27937
806.478	27618
806.62	27663
806.762	27694
806.904	27739
807.046	27975
807.188	28010
807.33	28059
807.472	28124
807.614	27926
807.756	27991
807.898	27899
808.04	27781
808.182	27842
808.324	27762
808.465	27895
808.607	28112
808.749	28226
808.891	28348
809.033	28314
809.174	28162
809.316	28181
809.458	28059
809.6	28200
809.741	28394
809.883	28443
810.025	28542
810.166	28577
810.308	28519
810.45	28527
810.591	28459
810.733	28341
810.875	28272
811.016	28131
811.158	28226
811.299	28314
811.441	28428
811.582	28291
811.724	28341
811.865	28204
812.007	28249
812.148	28322
812.29	28223
812.431	28386
812.573	28599
812.714	28748
812.855	28653
812.997	28824
813.138	29094
813.279	28831
813.421	28873
813.562	28752
813.703	28535
813.845	28592
813.986	28139
814.127	28006
814.268	28067
814.41	27930
814.551	27930
814.692	28086
814.833	27865
814.974	28063
815.115	27956
815.256	27816
815.397	27861
815.539	27823
815.68	27800
815.821	27705
815.962	27778
816.103	27679
816.244	27595
816.385	27481
816.526	27454
816.666	27412
816.807	27230
816.948	27195
817.089	27291
817.23	27222
817.371	27245
817.512	27298
817.653	27291
817.793	27138
817.934	27348
818.075	27336
818.216	27370
818.356	27287
818.497	27039
818.638	26975
818.778	26975
818.919	27047
819.06	27017
819.2	27169
819.341	27279
819.481	27089
819.622	27397
819.762	27595
819.903	27462
820.043	27431
820.184	27351
820.324	27367
820.465	27272
820.605	27458
820.746	27458
820.886	27287
821.026	27272
821.167	27161
821.307	27252
821.447	27332
821.588	27222
821.728	26952
821.868	26921
822.008	26750
822.149	26762
822.289	26743
822.429	26377
822.569	26351
822.709	26484
822.849	26298
822.99	26199
823.13	26229
823.27	26073
823.41	26012
823.55	25982
823.69	26081
823.83	26103
823.97	25830
824.11	25860
824.25	25894
824.389	25879
824.529	25921
824.669	25909
824.809	25944
824.949	25947
825.089	25830
825.228	25864
825.368	25769
825.508	25715
825.648	25681
825.787	25860
825.927	25693
826.067	25696
826.206	25559
826.346	25822
826.485	25727
826.625	25795
826.765	25708
826.904	25780
827.044	25533
827.183	25605
827.323	25472
827.462	25556
827.601	25434
827.741	25346
827.88	25506
828.02	25236
828.159	25392
828.298	25479
828.437	25400
828.577	25426
828.716	25628
828.855	25365
828.994	25168
829.134	25110
829.273	25160
829.412	25103
829.551	25133
829.69	25168
829.829	25076
829.968	25179
830.107	25255
830.246	25050
830.385	25031
830.524	25133
830.663	25023
830.802	24966
830.941	24738
831.08	24665
831.219	24798
831.357	24764
831.496	25023
831.635	24863
831.774	24795
831.913	24642
832.051	24551
832.19	24589
832.329	24502
832.467	24559
832.606	24334
832.744	24407
832.883	24429
833.022	24395
833.16	24566
833.299	24445
833.437	24566
833.576	24479
833.714	24391
833.852	24505
833.991	24521
834.129	24597
834.267	24574
834.406	24505
834.544	24536
834.682	24589
834.821	24505
834.959	24608
835.097	24498
835.235	24540
835.373	24357
835.511	24612
835.65	24365
835.788	24388
835.926	24315
836.064	24178
836.202	24197
836.34	24319
836.478	24342
836.615	24456
836.753	24384
836.891	24426
837.029	24422
837.167	24395
837.305	24285
837.443	24159
837.58	24102
837.718	24136
837.856	24205
837.993	24038
838.131	24133
838.269	24030
838.406	24194
838.544	24083
838.681	23771
838.819	23745
838.956	23802
839.094	23649
839.231	23516
839.369	23790
839.506	24083
839.643	23859
839.781	23672
839.918	23672
840.055	23570
840.193	23592
840.33	23547
840.467	23630
840.604	23630
840.742	23703
840.879	23482
841.016	23463
841.153	23395
841.29	23680
841.427	23539
841.564	23619
841.701	23516
841.838	23490
841.975	23433
842.112	23478
842.249	23448
842.385	23376
842.522	23539
842.659	23429
842.796	23204
842.933	23303
843.069	23265
843.206	23265
843.343	23368
843.479	23421
843.616	23337
843.752	23166
843.889	23037
844.025	23269
844.162	23018
844.298	23128
844.435	23075
844.571	23052
844.708	23147
844.844	23258
844.98	23174
845.117	23170
845.253	23010
845.389	23010
845.525	22968
845.661	22953
845.798	22812
845.934	22763
846.07	22778
846.206	22869
846.342	22968
846.478	22850
846.614	22611
846.75	22527
846.886	22577
847.022	22649
847.158	22664
847.294	22535
847.429	22580
847.565	22512
847.701	22744
847.837	22314
847.972	22253
848.108	22443
848.244	22284
848.379	22177
848.515	22147
848.65	22025
848.786	22101
848.921	22207
849.057	22192
849.192	22188
849.328	22150
849.463	22181
849.598	22048
849.734	21991
849.869	22006
850.004	21865
850.14	21918
850.275	21953
850.41	21827
850.545	21892
850.68	21850
850.815	22055
850.95	21876
851.085	22070
851.22	22040
851.355	21964
851.49	21895
851.625	21861
851.76	21842
851.895	21751
852.03	21770
852.165	21899
852.299	21915
852.434	21960
852.569	21937
852.703	21865
852.838	21953
852.973	22078
853.107	22070
853.242	21945
853.376	21694
853.511	21694
853.645	21713
853.78	21789
853.914	21660
854.048	21686
854.183	21652
854.317	21724
854.451	21949
854.585	21698
854.72	21713
854.854	21823
854.988	21641
855.122	21663
855.256	21519
855.39	21724
855.524	21800
855.658	21857
855.792	21675
855.926	21778
856.06	21823
856.194	21766
856.327	21789
856.461	21633
856.595	21652
856.729	21724
856.862	21899
856.996	21762
857.13	21800
857.263	21823
857.397	21770
857.53	21686
857.664	21835
857.797	21800
857.931	21812
858.064	21736
858.197	21945
858.331	21736
858.464	21641
858.597	21637
858.731	21675
858.864	21717
858.997	21728
859.13	21770
859.263	21713
859.396	21835
859.529	21633
859.662	21656
859.795	21618
859.928	21500
860.061	21808
860.194	21873
860.327	21713
860.46	21595
860.592	21892
860.725	21865
860.858	21892
860.99	21709
861.123	21648
861.256	21682
861.388	21705
861.521	22382
861.653	21572
861.786	21549
861.918	21488
862.05	21561
862.183	21675
862.315	21599
862.447	21701
862.58	21583
862.712	21450
862.844	21435
862.976	21416
863.108	21515
863.24	21869
863.372	21336
863.504	21439
863.636	21397
863.768	21325
863.9	21351
864.032	21275
864.164	21492
864.296	21447
864.428	21515
864.559	21583
864.691	21595
864.823	21542
864.954	21469
865.086	21462
865.217	21386
865.349	21275
865.48	21306
865.612	21351
865.743	21332
865.875	21344
866.006	21188
866.137	21317
866.269	21367
866.4	21165
866.531	21302
866.662	21298
866.793	21272
866.924	21165
867.055	21359
867.186	21378
867.317	21241
867.448	21199
867.579	21268
867.71	21157
867.841	21264
867.972	21260
868.103	21287
868.233	21199
868.364	21306
868.495	21374
868.625	21447
868.756	21450
868.886	21496
869.017	21454
869.147	21625
869.278	21663
869.408	21450
869.539	21519
869.669	21595
869.799	21526
869.929	21736
870.06	21618
870.19	21774
870.32	21732
870.45	21892
870.58	21865
870.71	22006
870.84	21964
870.97	21835
871.1	21888
871.23	22006
871.36	22044
871.489	21960
871.619	22029
871.749	22112
871.879	21994
872.008	22109
872.138	21983
872.267	22101
872.397	21975
872.526	21816
872.656	21907
872.785	21918
872.915	22093
873.044	22131
873.173	22093
873.303	22051
873.432	22097
873.561	22139
873.69	22143
873.819	22173
873.948	22314
874.077	22097
874.206	22128
874.335	22093
874.464	22120
874.593	22310
874.722	22181
874.851	22181
874.979	22234
875.108	22413
875.237	22306
875.365	22223
875.494	22261
875.623	22344
875.751	22238
875.88	22246
876.008	22417
876.136	22569
876.265	22767
876.393	22809
876.521	22843
876.65	22869
876.778	22691
876.906	22630
877.034	22588
877.162	22736
877.29	22733
877.418	22755
877.546	22637
877.674	22584
877.802	22561
877.93	22603
878.058	22557
878.185	22546
878.313	22554
878.441	22694
878.568	22580
878.696	22668
878.824	22683
878.951	22687
879.079	22809
879.206	23143
879.333	22831
879.461	22649
879.588	22854
879.715	22744
879.842	22942
879.97	22660
880.097	22519
880.224	22382
880.351	22493
880.478	22500
880.605	22565
880.732	22466
880.859	22740
880.986	22413
881.112	22424
881.239	22356
881.366	22173
881.493	22166
881.619	22082
881.746	22124
881.872	22036
881.999	22090
882.125	21960
882.252	22010
882.378	22143
882.505	22048
882.631	21888
882.757	21747
882.883	21873
883.01	21755
883.136	21701
883.262	21583
883.388	21625
883.514	21831
883.64	21732
883.766	21644
883.892	21477
884.018	21469
884.143	21675
884.269	21660
884.395	21435
884.52	21428
884.646	21344
884.772	21332
884.897	21416
885.023	21386
885.148	21393
885.274	21469
885.399	21523
885.524	21397
885.65	21348
885.775	21325
885.9	21317
886.025	21500
886.15	21450
886.275	21294
886.4	21272
886.525	21348
886.65	21382
886.775	21298
886.9	21386
887.025	21637
887.149	21374
887.274	21161
887.399	21199
887.523	21146
887.648	21116
887.773	21096
887.897	21127
888.021	21245
888.146	21013
888.27	21180
888.395	21230
888.519	21055
888.643	21192
888.767	21233
888.891	21112
889.015	21085
889.139	20948
889.263	20899
889.387	20979
889.511	21188
889.635	20998
889.759	20910
889.883	21028
890.006	20982
890.13	21066
890.254	20762
890.377	20830
890.501	20651
890.624	20735
890.748	20686
890.871	20552
890.995	20438
891.118	20492
891.241	20434
891.364	20613
891.488	20651
891.611	20537
891.734	20514
891.857	20514
891.98	20556
892.103	20427
892.226	20492
892.349	20423
892.471	20336
892.594	20393
892.717	20454
892.839	20377
892.962	20332
893.085	20473
893.207	20324
893.33	20301
893.452	20343
893.575	20469
893.697	20252
893.819	20526
893.941	20606
894.064	20457
894.186	20339
894.308	20237
894.43	20571
894.552	20450
894.674	20583
894.796	20298
894.918	20366
895.04	20400
895.161	20419
895.283	20351
895.405	20339
895.526	20320
895.648	20294
895.769	20309
895.891	20339
896.012	20575
896.134	20473
896.255	20374
896.376	20389
896.498	20454
896.619	20473
896.74	20374
896.861	20431
896.982	20697
897.103	20868
897.224	20686
897.345	20552
897.466	20552
897.587	20583
897.708	20735
897.828	20625
897.949	20514
898.07	20484
898.19	20602
898.311	20769
898.431	20575
898.552	20617
898.672	20602
898.792	20636
898.913	20674
899.033	20492
899.153	20351
899.273	20301
899.393	20355
899.513	20480
899.633	20233
899.753	20381
899.873	20206
899.993	20305
900.113	20309
900.232	20301
900.352	20237
900.472	20180
900.591	20073
900.711	20050
900.83	20050
900.95	20126
901.069	20161
901.189	20016
901.308	19723
901.427	19643
901.546	19723
901.665	19624
901.784	19784
901.904	19548
902.023	19411
902.141	19312
902.26	19244
902.379	19358
902.498	19118
902.617	19198
902.735	19263
902.854	19065
902.973	19213
903.091	18882
903.21	18947
903.328	18833
903.446	18806
903.565	18665
903.683	18616
903.801	18665
903.919	18631
904.038	18745
904.156	18486
904.274	18521
904.392	18395
904.51	18445
904.627	18365
904.745	18521
904.863	18513
904.981	18270
905.098	18083
905.216	18098
905.334	18079
905.451	18152
905.569	18167
905.686	18152
905.803	18057
905.921	17901
906.038	18057
906.155	17923
906.272	17703
906.389	17794
906.506	17657
906.623	17649
906.74	17703
906.857	17630
906.974	17687
907.091	17707
907.208	17779
907.324	17638
907.441	17554
907.557	17345
907.674	17421
907.79	17212
907.907	17349
908.023	17402
908.139	17307
908.256	17212
908.372	17239
908.488	17258
908.604	17124
908.72	16984
908.836	17090
908.952	16942
909.068	17166
909.184	17250
909.3	17200
909.415	17200
909.531	17041
909.647	16755
909.762	16797
909.878	16717
909.993	16908
910.108	16778
910.224	16664
910.339	16763
910.454	16618
910.57	16599
910.685	16519
910.8	16698
910.915	16805
911.03	16611
911.145	16367
911.259	16424
911.374	16318
911.489	16253
911.604	16230
911.718	16112
911.833	16128
911.947	15991
912.062	15838
912.176	16101
912.291	16101
912.405	16150
912.519	16276
912.633	16333
912.748	16173
912.862	16185
912.976	15888
913.09	15861
913.204	15865
913.318	15880
913.431	16051
913.545	16074
913.659	15998
913.772	15865
913.886	15827
914	15766
914.113	15652
914.226	15865
914.34	15861
914.453	15652
914.566	15770
914.68	15587
914.793	15519
914.906	15332
915.019	15272
915.132	15275
915.245	15283
915.358	15416
915.47	15310
915.583	15306
915.696	15302
915.809	15378
915.921	15443
916.034	15302
916.146	15389
916.259	15264
916.371	15283
916.483	15237
916.595	15127
916.708	15119
916.82	15116
916.932	15089
917.044	15055
917.156	15123
917.268	14948
917.38	14952
917.491	14929
917.603	15070
917.715	14998
917.826	15020
917.938	14914
918.049	14826
918.161	14979
918.272	14986
918.384	14967
918.495	14990
918.606	14796
918.717	14674
918.828	14762
918.939	14762
919.05	14712
919.161	14708
919.272	14610
919.383	14545
919.494	14743
919.604	14868
919.715	14724
919.826	14613
919.936	14648
920.047	14735
920.157	14693
920.267	14845
920.378	14678
920.488	14724
920.598	14933
920.708	15001
920.818	14830
920.928	14872
921.038	14979
921.148	14948
921.258	14545
921.368	14526
921.477	14358
921.587	14355
921.697	14370
921.806	14309
921.916	14332
922.025	14172
922.134	14043
922.244	13970
922.353	14103
922.462	13947
922.571	13830
922.68	13670
922.789	13658
922.898	13639
923.007	13586
923.116	13807
923.224	13715
923.333	13708
923.442	13552
923.55	13559
923.659	13582
923.767	13586
923.876	13403
923.984	13540
924.092	13415
924.201	13415
924.309	13415
924.417	13464
924.525	13362
924.633	13312
924.741	14115
924.849	13175
924.956	13308
925.064	13149
925.172	13084
925.279	13023
925.387	13103
925.494	13126
925.602	13152
925.709	13152
925.816	13008
925.924	13065
926.031	13217
926.138	12981
926.245	13069
926.352	12905
926.459	13042
926.566	13031
926.673	13015
926.779	12829
926.886	12844
926.993	12662
927.099	12616
927.206	12677
927.312	12589
927.419	12749
927.525	12658
927.631	12696
927.737	12498
927.843	12525
927.95	12437
928.056	12513
928.162	12456
928.267	12452
928.373	13042
928.479	12582
928.585	12277
928.69	12483
928.796	12471
928.901	12304
929.007	12205
929.112	12350
929.218	12308
929.323	12232
929.428	12197
929.533	12346
929.638	12144
929.743	12152
929.848	12155
929.953	12136
930.058	12175
930.163	11859
930.267	11927
930.372	11999
930.477	11828
930.581	12041
930.685	11920
930.79	11756
930.894	11798
930.998	11802
931.103	11878
931.207	11509
931.311	11410
931.415	11368
931.519	11109
931.623	11121
