Data from test_V78500241_2820.txt Node
Date: Fri Mar 25 15:29:29 CST 2022
User: usil
Spectrometer: V785-0024
Trigger mode: 0
Integration Time (sec): 4.000000E-1
Scans to average: 1
Nonlinearity correction enabled: false
Boxcar width: 0
Storing dark spectrum: false
XAxis mode: Wavelengths
Number of Pixels in Spectrum: 1024
>>>>>Begin Spectral Data<<<<<
801.071	27252
801.214	27241
801.356	27074
801.499	26967
801.641	26754
801.783	26712
801.926	26838
802.068	26823
802.211	26743
802.353	26606
802.496	26568
802.638	26381
802.78	26385
802.923	26374
803.065	26320
803.208	26469
803.35	26385
803.492	26393
803.635	26590
803.777	26393
803.919	26514
804.061	26902
804.204	26746
804.346	26522
804.488	26575
804.63	26552
804.773	26453
804.915	26659
805.057	26571
805.199	26568
805.341	26579
805.483	26708
805.626	26632
805.768	26625
805.91	26598
806.052	26716
806.194	26678
806.336	26899
806.478	26621
806.62	26788
806.762	26902
806.904	26956
807.046	27237
807.188	27036
807.33	26998
807.472	27116
807.614	26914
807.756	27032
807.898	27036
808.04	26861
808.182	27001
808.324	26960
808.465	27085
808.607	27256
808.749	27176
808.891	27401
809.033	27492
809.174	27348
809.316	27321
809.458	27351
809.6	27241
809.741	27313
809.883	27424
810.025	27549
810.166	27545
810.308	27511
810.45	27427
810.591	27469
810.733	27249
810.875	27173
811.016	27119
811.158	27222
811.299	27427
811.441	27504
811.582	27599
811.724	27332
811.865	27336
812.007	27264
812.148	27199
812.29	27112
812.431	27302
812.573	27583
812.714	27652
812.855	27751
812.997	27831
813.138	27945
813.279	27873
813.421	27736
813.562	27728
813.703	27485
813.845	27477
813.986	27230
814.127	26986
814.268	26792
814.41	26925
814.551	26845
814.692	27138
814.833	26796
814.974	26864
815.115	26944
815.256	26788
815.397	26883
815.539	26785
815.68	26743
815.821	26556
815.962	26781
816.103	26674
816.244	26522
816.385	26518
816.526	26465
816.666	26298
816.807	26142
816.948	26237
817.089	26381
817.23	26229
817.371	26107
817.512	26298
817.653	26195
817.793	26081
817.934	26142
818.075	26336
818.216	26168
818.356	26126
818.497	26050
818.638	25902
818.778	25898
818.919	26043
819.06	26039
819.2	26130
819.341	26115
819.481	26180
819.622	26290
819.762	26492
819.903	26301
820.043	26370
820.184	26263
820.324	26290
820.465	26419
820.605	26366
820.746	26355
820.886	26180
821.026	26221
821.167	26233
821.307	26191
821.447	26142
821.588	26130
821.728	25966
821.868	25864
822.008	25753
822.149	25597
822.289	25445
822.429	25346
822.569	25339
822.709	25358
822.849	25228
822.99	25046
823.13	25114
823.27	25084
823.41	25069
823.55	24764
823.69	24973
823.83	25023
823.97	24863
824.11	24779
824.25	24814
824.389	24700
824.529	24795
824.669	24905
824.809	24825
824.949	24901
825.089	24768
825.228	24833
825.368	24494
825.508	24536
825.648	24696
825.787	24639
825.927	24719
826.067	24681
826.206	24574
826.346	24555
826.485	24703
826.625	24502
826.765	24764
826.904	24665
827.044	24437
827.183	24448
827.323	24304
827.462	24342
827.601	24292
827.741	24353
827.88	24353
828.02	24197
828.159	24209
828.298	24285
828.437	24452
828.577	24315
828.716	24494
828.855	24174
828.994	23984
829.134	24011
829.273	24076
829.412	24095
829.551	23996
829.69	24064
829.829	24098
829.968	24159
830.107	24102
830.246	24072
830.385	23973
830.524	23901
830.663	24007
830.802	23752
830.941	23691
831.08	23471
831.219	23745
831.357	23699
831.496	23866
831.635	23585
831.774	23551
831.913	23531
832.051	23596
832.19	23551
832.329	23444
832.467	23280
832.606	23280
832.744	23216
832.883	23406
833.022	23220
833.16	23307
833.299	23493
833.437	23345
833.576	23402
833.714	23326
833.852	23429
833.991	23425
834.129	23501
834.267	23414
834.406	23383
834.544	23387
834.682	23299
834.821	23239
834.959	23608
835.097	23391
835.235	23425
835.373	23299
835.511	23383
835.65	23200
835.788	23311
835.926	23113
836.064	22995
836.202	23124
836.34	23322
836.478	23223
836.615	23212
836.753	23197
836.891	23258
837.029	23242
837.167	23162
837.305	23223
837.443	23041
837.58	22980
837.718	23090
837.856	23052
837.993	22968
838.131	23140
838.269	22805
838.406	22896
838.544	22858
838.681	22759
838.819	22721
838.956	22584
839.094	22645
839.231	22645
839.369	22809
839.506	22980
839.643	22729
839.781	22584
839.918	22367
840.055	22607
840.193	22489
840.33	22447
840.467	22451
840.604	22535
840.742	22668
840.879	22295
841.016	22466
841.153	22329
841.29	22637
841.427	22474
841.564	22512
841.701	22516
841.838	22417
841.975	22356
842.112	22462
842.249	22329
842.385	22242
842.522	22436
842.659	22329
842.796	22154
842.933	22322
843.069	22246
843.206	22177
843.343	22333
843.479	22185
843.616	22226
843.752	21994
843.889	22048
844.025	22086
844.162	22044
844.298	22051
844.435	22013
844.571	21945
844.708	22097
844.844	22173
844.98	22139
845.117	22207
845.253	21926
845.389	21884
845.525	21842
845.661	21804
845.798	21709
845.934	21774
846.07	21720
846.206	21667
846.342	21747
846.478	21739
846.614	21545
846.75	21462
846.886	21458
847.022	21622
847.158	21530
847.294	21511
847.429	21469
847.565	21420
847.701	21690
847.837	21245
847.972	21146
848.108	21291
848.244	21260
848.379	21123
848.515	20952
848.65	20941
848.786	21108
848.921	21028
849.057	21165
849.192	21074
849.328	20956
849.463	20990
849.598	21005
849.734	21039
849.869	20796
850.004	20807
850.14	20819
850.275	20876
850.41	20830
850.545	20674
850.68	20667
850.815	20864
850.95	20819
851.085	20967
851.22	20937
851.355	20823
851.49	20929
851.625	20963
851.76	20834
851.895	20845
852.03	20880
852.165	20807
852.299	20971
852.434	20853
852.569	20929
852.703	20925
852.838	20929
852.973	20899
853.107	20982
853.242	20785
853.376	20720
853.511	20629
853.645	20617
853.78	20849
853.914	20674
854.048	20640
854.183	20583
854.317	20644
854.451	20925
854.585	20701
854.72	20705
854.854	20788
854.988	20739
855.122	20697
855.256	20602
855.39	20720
855.524	20632
855.658	20750
855.792	20697
855.926	20655
856.06	20598
856.194	20720
856.327	20678
856.461	20579
856.595	20636
856.729	20594
856.862	20902
856.996	20750
857.13	20826
857.263	20716
857.397	20754
857.53	20644
857.664	20689
857.797	20686
857.931	20705
858.064	20735
858.197	20861
858.331	20625
858.464	20663
858.597	20545
858.731	20743
858.864	20640
858.997	20651
859.13	20743
859.263	20705
859.396	20853
859.529	20701
859.662	20636
859.795	20575
859.928	20674
860.061	20823
860.194	20967
860.327	20750
860.46	20655
860.592	20788
860.725	20727
860.858	20807
860.99	20564
861.123	20587
861.256	20640
861.388	20629
861.521	21317
861.653	20518
861.786	20469
861.918	20514
862.05	20560
862.183	20632
862.315	20609
862.447	20708
862.58	20568
862.712	20438
862.844	20362
862.976	20495
863.108	20518
863.24	20800
863.372	20229
863.504	20343
863.636	20389
863.768	20427
863.9	20309
864.032	20427
864.164	20358
864.296	20370
864.428	20541
864.559	20507
864.691	20476
864.823	20507
864.954	20404
865.086	20301
865.217	20358
865.349	20298
865.48	20263
865.612	20210
865.743	20446
865.875	20313
866.006	20286
866.137	20161
866.269	20427
866.4	20385
866.531	20149
866.662	20191
866.793	20252
866.924	20229
867.055	20366
867.186	20267
867.317	20187
867.448	20157
867.579	20180
867.71	20145
867.841	20134
867.972	20214
868.103	20221
868.233	20233
868.364	20206
868.495	20339
868.625	20431
868.756	20568
868.886	20377
869.017	20461
869.147	20499
869.278	20590
869.408	20332
869.539	20415
869.669	20526
869.799	20556
869.929	20571
870.06	20564
870.19	20686
870.32	20819
870.45	20815
870.58	20838
870.71	21032
870.84	20952
870.97	20895
871.1	20906
871.23	21096
871.36	20967
871.489	20933
871.619	20994
871.749	21058
871.879	20994
872.008	21180
872.138	21028
872.267	21104
872.397	21013
872.526	20853
872.656	20975
872.785	20910
872.915	21051
873.044	21165
873.173	21089
873.303	21199
873.432	21146
873.561	21169
873.69	21233
873.819	20998
873.948	21188
874.077	21135
874.206	21116
874.335	21074
874.464	21306
874.593	21359
874.722	21237
874.851	21386
874.979	21466
875.108	21355
875.237	21374
875.365	21199
875.494	21340
875.623	21469
875.751	21344
875.88	21329
876.008	21534
876.136	21523
876.265	21682
876.393	21800
876.521	21759
876.65	21873
876.778	21663
876.906	21766
877.034	21781
877.162	21713
877.29	21656
877.418	21720
877.546	21770
877.674	21732
877.802	21751
877.93	21774
878.058	21625
878.185	21549
878.313	21580
878.441	21644
878.568	21545
878.696	21583
878.824	21686
878.951	21770
879.079	21884
879.206	21926
879.333	21785
879.461	21762
879.588	21800
879.715	21903
879.842	21968
879.97	21781
880.097	21583
880.224	21485
880.351	21618
880.478	21530
880.605	21454
880.732	21412
880.859	21720
880.986	21477
881.112	21458
881.239	21310
881.366	21291
881.493	21100
881.619	21173
881.746	21104
881.872	21127
881.999	21070
882.125	21096
882.252	21184
882.378	21051
882.505	21074
882.631	20902
882.757	20823
882.883	20864
883.01	20731
883.136	20708
883.262	20712
883.388	20663
883.514	20762
883.64	20891
883.766	20777
883.892	20484
884.018	20659
884.143	20750
884.269	20826
884.395	20617
884.52	20473
884.646	20377
884.772	20446
884.897	20396
885.023	20541
885.148	20636
885.274	20545
885.399	20579
885.524	20362
885.65	20423
885.775	20522
885.9	20366
886.025	20598
886.15	20404
886.275	20431
886.4	20221
886.525	20393
886.65	20332
886.775	20362
886.9	20480
887.025	20613
887.149	20450
887.274	20347
887.399	20214
887.523	20092
887.648	20180
887.773	20103
887.897	20305
888.021	20339
888.146	20138
888.27	20305
888.395	20313
888.519	20275
888.643	20248
888.767	20267
888.891	20183
889.015	19925
889.139	20115
889.263	20031
889.387	20153
889.511	20248
889.635	20035
889.759	19997
889.883	19986
890.006	20096
890.13	20115
890.254	19883
890.377	20027
890.501	19788
890.624	19776
890.748	19803
890.871	19807
890.995	19613
891.118	19647
891.241	19575
891.364	19727
891.488	19666
891.611	19670
891.734	19605
891.857	19662
891.98	19704
892.103	19529
892.226	19708
892.349	19601
892.471	19362
892.594	19480
892.717	19487
892.839	19491
892.962	19384
893.085	19540
893.207	19655
893.33	19464
893.452	19445
893.575	19605
893.697	19556
893.819	19559
893.941	19700
894.064	19594
894.186	19518
894.308	19327
894.43	19594
894.552	19575
894.674	19601
894.796	19457
894.918	19403
895.04	19567
895.161	19616
895.283	19537
895.405	19480
895.526	19571
895.648	19495
895.769	19491
895.891	19460
896.012	19567
896.134	19529
896.255	19613
896.376	19449
896.498	19567
896.619	19567
896.74	19529
896.861	19563
896.982	19803
897.103	19894
897.224	19689
897.345	19666
897.466	19696
897.587	19715
897.708	19830
897.828	19712
897.949	19715
898.07	19632
898.19	19594
898.311	19894
898.431	19613
898.552	19742
898.672	19826
898.792	19849
898.913	19852
899.033	19559
899.153	19689
899.273	19468
899.393	19476
899.513	19609
899.633	19502
899.753	19468
899.873	19457
899.993	19552
900.113	19403
900.232	19430
900.352	19373
900.472	19369
900.591	19331
900.711	19346
900.83	19244
900.95	19358
901.069	19400
901.189	19266
901.308	18932
901.427	18966
901.546	19008
901.665	18939
901.784	18943
901.904	18745
902.023	18730
902.141	18528
902.26	18441
902.379	18517
902.498	18289
902.617	18422
902.735	18384
902.854	18429
902.973	18369
903.091	18091
903.21	18163
903.328	18053
903.446	17927
903.565	17824
903.683	17946
903.801	17729
903.919	17901
904.038	17923
904.156	17752
904.274	17756
904.392	17703
904.51	17707
904.627	17779
904.745	17653
904.863	17741
904.981	17486
905.098	17288
905.216	17410
905.334	17429
905.451	17345
905.569	17326
905.686	17379
905.803	17345
905.921	17174
906.038	17353
906.155	17174
906.272	17079
906.389	17121
906.506	16999
906.623	16915
906.74	16961
906.857	16752
906.974	16820
907.091	17052
907.208	16980
907.324	16809
907.441	16725
907.557	16580
907.674	16618
907.79	16615
907.907	16542
908.023	16672
908.139	16752
908.256	16542
908.372	16424
908.488	16405
908.604	16424
908.72	16268
908.836	16306
908.952	16363
909.068	16314
909.184	16413
909.3	16291
909.415	16295
909.531	16310
909.647	16036
909.762	16013
909.878	16097
909.993	15994
910.108	15991
910.224	15926
910.339	16002
910.454	15911
910.57	15823
910.685	15854
910.8	16032
910.915	15915
911.03	15797
911.145	15705
911.259	15713
911.374	15591
911.489	15561
911.604	15580
911.718	15443
911.833	15428
911.947	15370
912.062	15233
912.176	15526
912.291	15511
912.405	15561
912.519	15549
912.633	15603
912.748	15458
912.862	15443
912.976	15264
913.09	15119
913.204	15192
913.318	15272
913.431	15329
913.545	15294
913.659	15249
913.772	15180
913.886	15097
914	15024
914.113	15058
914.226	15165
914.34	15077
914.453	14895
914.566	14990
914.68	14895
914.793	14861
914.906	14708
915.019	14716
915.132	14625
915.245	14651
915.358	14731
915.47	14568
915.583	14632
915.696	14693
915.809	14754
915.921	14739
916.034	14617
916.146	14488
916.259	14560
916.371	14541
916.483	14587
916.595	14533
916.708	14522
916.82	14488
916.932	14419
917.044	14434
917.156	14351
917.268	14377
917.38	14366
917.491	14343
917.603	14294
917.715	14412
917.826	14366
917.938	14195
918.049	14294
918.161	14275
918.272	14400
918.384	14347
918.495	14309
918.606	14157
918.717	13970
918.828	14088
918.939	14168
919.05	14031
919.161	14054
919.272	13826
919.383	13928
919.494	14088
919.604	14301
919.715	14081
919.826	14039
919.936	13978
920.047	14191
920.157	13940
920.267	14271
920.378	14088
920.488	13978
920.598	14229
920.708	14381
920.818	14271
920.928	14153
921.038	14351
921.148	14248
921.258	13887
921.368	13955
921.477	13784
921.587	13803
921.697	13643
921.806	13864
921.916	13639
922.025	13491
922.134	13434
922.244	13430
922.353	13506
922.462	13392
922.571	13202
922.68	13156
922.789	13088
922.898	13187
923.007	13015
923.116	13187
923.224	13069
923.333	13118
923.442	12958
923.55	12878
923.659	12962
923.767	13023
923.876	12875
923.984	12905
924.092	12890
924.201	12791
924.309	12852
924.417	12890
924.525	12776
924.633	12760
924.741	13529
924.849	12532
924.956	12612
925.064	12486
925.172	12460
925.279	12547
925.387	12475
925.494	12452
925.602	12627
925.709	12623
925.816	12399
925.924	12555
926.031	12585
926.138	12483
926.245	12608
926.352	12437
926.459	12574
926.566	12547
926.673	12414
926.779	12350
926.886	12258
926.993	12201
927.099	12098
927.206	12049
927.312	12064
927.419	12152
927.525	12136
927.631	12152
927.737	12015
927.843	11942
927.95	11908
928.056	11969
928.162	11999
928.267	11946
928.373	12551
928.479	12019
928.585	11707
928.69	11836
928.796	11950
928.901	11828
929.007	11691
929.112	11729
929.218	11760
929.323	11760
929.428	11657
929.533	11771
929.638	11547
929.743	11570
929.848	11646
929.953	11665
930.058	11570
930.163	11318
930.267	11425
930.372	11471
930.477	11379
930.581	11653
930.685	11486
930.79	11318
930.894	11269
930.998	11239
931.103	11353
931.207	11006
931.311	10930
931.415	10877
931.519	10710
931.623	10668
