Data from test_V78500241_2569.txt Node
Date: Fri Mar 25 15:27:44 CST 2022
User: usil
Spectrometer: V785-0024
Trigger mode: 0
Integration Time (sec): 4.000000E-1
Scans to average: 1
Nonlinearity correction enabled: false
Boxcar width: 0
Storing dark spectrum: false
XAxis mode: Wavelengths
Number of Pixels in Spectrum: 1024
>>>>>Begin Spectral Data<<<<<
801.071	27378
801.214	27252
801.356	26940
801.499	27047
801.641	26708
801.783	26910
801.926	27062
802.068	26868
802.211	26807
802.353	26689
802.496	26545
802.638	26434
802.78	26423
802.923	26347
803.065	26305
803.208	26389
803.35	26556
803.492	26632
803.635	26568
803.777	26492
803.919	26720
804.061	26902
804.204	26762
804.346	26495
804.488	26488
804.63	26625
804.773	26629
804.915	26629
805.057	26773
805.199	26655
805.341	26735
805.483	26750
805.626	26815
805.768	26724
805.91	26868
806.052	26693
806.194	26667
806.336	26819
806.478	26891
806.62	26689
806.762	26948
806.904	27020
807.046	27283
807.188	27302
807.33	27070
807.472	27214
807.614	27176
807.756	27230
807.898	27214
808.04	26838
808.182	26940
808.324	27157
808.465	27062
808.607	27127
808.749	27272
808.891	27462
809.033	27576
809.174	27340
809.316	27291
809.458	27344
809.6	27393
809.741	27348
809.883	27519
810.025	27644
810.166	27614
810.308	27656
810.45	27622
810.591	27447
810.733	27344
810.875	27321
811.016	27355
811.158	27230
811.299	27420
811.441	27523
811.582	27435
811.724	27515
811.865	27294
812.007	27340
812.148	27157
812.29	27359
812.431	27462
812.573	27553
812.714	27827
812.855	27850
812.997	27861
813.138	28124
813.279	27838
813.421	27762
813.562	27732
813.703	27667
813.845	27408
813.986	27241
814.127	27116
814.268	27131
814.41	26948
814.551	26956
814.692	27043
814.833	26857
814.974	27017
815.115	27058
815.256	26906
815.397	26849
815.539	26811
815.68	26838
815.821	26648
815.962	26823
816.103	26708
816.244	26659
816.385	26644
816.526	26571
816.666	26526
816.807	26290
816.948	26286
817.089	26393
817.23	26370
817.371	26358
817.512	26142
817.653	26267
817.793	26126
817.934	26313
818.075	26294
818.216	26229
818.356	26240
818.497	26088
818.638	25940
818.778	25970
818.919	26103
819.06	26161
819.2	26153
819.341	26317
819.481	26298
819.622	26366
819.762	26533
819.903	26484
820.043	26492
820.184	26339
820.324	26355
820.465	26457
820.605	26294
820.746	26202
820.886	26225
821.026	26237
821.167	26282
821.307	26400
821.447	26301
821.588	26183
821.728	26031
821.868	25906
822.008	25704
822.149	25704
822.289	25723
822.429	25544
822.569	25415
822.709	25514
822.849	25354
822.99	25225
823.13	25270
823.27	25133
823.41	25061
823.55	24977
823.69	24973
823.83	25141
823.97	24977
824.11	24905
824.25	24859
824.389	24829
824.529	25053
824.669	24863
824.809	25004
824.949	24791
825.089	24920
825.228	25038
825.368	24707
825.508	24798
825.648	24642
825.787	24722
825.927	24844
826.067	24814
826.206	24749
826.346	24924
826.485	24730
826.625	24722
826.765	24909
826.904	24776
827.044	24646
827.183	24532
827.323	24467
827.462	24528
827.601	24460
827.741	24407
827.88	24555
828.02	24376
828.159	24505
828.298	24490
828.437	24528
828.577	24475
828.716	24536
828.855	24441
828.994	24182
829.134	24243
829.273	24239
829.412	24197
829.551	24159
829.69	24224
829.829	24117
829.968	24144
830.107	24292
830.246	24133
830.385	24186
830.524	24167
830.663	24117
830.802	23935
830.941	23817
831.08	23802
831.219	23958
831.357	23836
831.496	23965
831.635	23866
831.774	23794
831.913	23794
832.051	23539
832.19	23615
832.329	23520
832.467	23501
832.606	23376
832.744	23368
832.883	23604
833.022	23482
833.16	23402
833.299	23539
833.437	23501
833.576	23535
833.714	23543
833.852	23570
833.991	23505
834.129	23608
834.267	23703
834.406	23649
834.544	23463
834.682	23623
834.821	23471
834.959	23653
835.097	23444
835.235	23615
835.373	23471
835.511	23600
835.65	23440
835.788	23452
835.926	23204
836.064	23303
836.202	23174
836.34	23429
836.478	23436
836.615	23303
836.753	23391
836.891	23478
837.029	23372
837.167	23288
837.305	23296
837.443	23242
837.58	23292
837.718	23410
837.856	23395
837.993	23159
838.131	23330
838.269	23155
838.406	23102
838.544	23067
838.681	22957
838.819	22854
838.956	22656
839.094	22702
839.231	22755
839.369	22949
839.506	23193
839.643	23113
839.781	22740
839.918	22660
840.055	22786
840.193	22698
840.33	22626
840.467	22618
840.604	22774
840.742	22965
840.879	22630
841.016	22694
841.153	22440
841.29	22691
841.427	22561
841.564	22679
841.701	22710
841.838	22592
841.975	22584
842.112	22755
842.249	22592
842.385	22592
842.522	22675
842.659	22474
842.796	22329
842.933	22413
843.069	22352
843.206	22314
843.343	22500
843.479	22314
843.616	22417
843.752	22348
843.889	22249
844.025	22413
844.162	22128
844.298	22173
844.435	22124
844.571	22177
844.708	22246
844.844	22329
844.98	22276
845.117	22348
845.253	22051
845.389	22074
845.525	22093
845.661	22036
845.798	21930
845.934	21975
846.07	21876
846.206	21846
846.342	22051
846.478	22013
846.614	21827
846.75	21564
846.886	21728
847.022	21667
847.158	21648
847.294	21694
847.429	21751
847.565	21682
847.701	21956
847.837	21477
847.972	21447
848.108	21534
848.244	21469
848.379	21275
848.515	21279
848.65	21252
848.786	21226
848.921	21256
849.057	21363
849.192	21298
849.328	21203
849.463	21199
849.598	21199
849.734	21093
849.869	21070
850.004	21020
850.14	21176
850.275	21020
850.41	21001
850.545	21036
850.68	21043
850.815	21085
850.95	21009
851.085	21241
851.22	21154
851.355	21036
851.49	21058
851.625	21028
851.76	21001
851.895	20963
852.03	20918
852.165	20994
852.299	21100
852.434	21047
852.569	21043
852.703	21039
852.838	21184
852.973	21093
853.107	21176
853.242	20925
853.376	20834
853.511	20750
853.645	20864
853.78	20960
853.914	20941
854.048	20781
854.183	20804
854.317	20921
854.451	21085
854.585	20918
854.72	20826
854.854	21032
854.988	20777
855.122	20910
855.256	20727
855.39	20796
855.524	20845
855.658	20819
855.792	20880
855.926	20902
856.06	20876
856.194	20921
856.327	20773
856.461	20785
856.595	20800
856.729	20830
856.862	20956
856.996	20834
857.13	20895
857.263	21089
857.397	21055
857.53	20887
857.664	20918
857.797	20963
857.931	20906
858.064	20883
858.197	20937
858.331	20937
858.464	20712
858.597	20655
858.731	20838
858.864	20849
858.997	20746
859.13	20830
859.263	20781
859.396	20910
859.529	20689
859.662	20762
859.795	20819
859.928	20880
860.061	21074
860.194	20944
860.327	20906
860.46	20918
860.592	20944
860.725	21013
860.858	21001
860.99	20842
861.123	20758
861.256	20750
861.388	20921
861.521	21572
861.653	20689
861.786	20735
861.918	20720
862.05	20712
862.183	20868
862.315	20762
862.447	20811
862.58	20785
862.712	20659
862.844	20552
862.976	20625
863.108	20587
863.24	20975
863.372	20492
863.504	20522
863.636	20503
863.768	20556
863.9	20587
864.032	20499
864.164	20621
864.296	20571
864.428	20632
864.559	20560
864.691	20689
864.823	20575
864.954	20541
865.086	20549
865.217	20545
865.349	20351
865.48	20473
865.612	20419
865.743	20568
865.875	20511
866.006	20442
866.137	20514
866.269	20404
866.4	20484
866.531	20419
866.662	20408
866.793	20412
866.924	20503
867.055	20484
867.186	20427
867.317	20431
867.448	20347
867.579	20400
867.71	20396
867.841	20328
867.972	20450
868.103	20511
868.233	20427
868.364	20381
868.495	20545
868.625	20598
868.756	20769
868.886	20503
869.017	20587
869.147	20750
869.278	20838
869.408	20796
869.539	20651
869.669	20750
869.799	20644
869.929	20724
870.06	20807
870.19	20921
870.32	20918
870.45	21051
870.58	21055
870.71	21218
870.84	21138
870.97	21039
871.1	21112
871.23	21249
871.36	21287
871.489	21138
871.619	21184
871.749	21173
871.879	21180
872.008	21363
872.138	21279
872.267	21332
872.397	21146
872.526	21116
872.656	21154
872.785	21157
872.915	21218
873.044	21374
873.173	21203
873.303	21317
873.432	21298
873.561	21268
873.69	21435
873.819	21249
873.948	21291
874.077	21408
874.206	21195
874.335	21310
874.464	21401
874.593	21462
874.722	21431
874.851	21572
874.979	21538
875.108	21507
875.237	21428
875.365	21370
875.494	21431
875.623	21473
875.751	21538
875.88	21496
876.008	21679
876.136	21698
876.265	21854
876.393	22112
876.521	22006
876.65	21937
876.778	21895
876.906	21694
877.034	21774
877.162	21785
877.29	21884
877.418	21850
877.546	21861
877.674	21915
877.802	21915
877.93	21854
878.058	21816
878.185	21751
878.313	21781
878.441	21903
878.568	21713
878.696	21819
878.824	21918
878.951	21994
879.079	21983
879.206	22147
879.333	22067
879.461	21816
879.588	21922
879.715	22032
879.842	22166
879.97	21911
880.097	21663
880.224	21713
880.351	21823
880.478	21789
880.605	21637
880.732	21713
880.859	21823
880.986	21679
881.112	21724
881.239	21603
881.366	21435
881.493	21294
881.619	21222
881.746	21313
881.872	21256
881.999	21207
882.125	21116
882.252	21184
882.378	21176
882.505	21428
882.631	21100
882.757	20986
882.883	20998
883.01	20918
883.136	21009
883.262	20773
883.388	20830
883.514	20891
883.64	20982
883.766	20998
883.892	20739
884.018	20800
884.143	20979
884.269	21028
884.395	20785
884.52	20659
884.646	20682
884.772	20568
884.897	20526
885.023	20545
885.148	20731
885.274	20712
885.399	20678
885.524	20674
885.65	20602
885.775	20621
885.9	20545
886.025	20670
886.15	20663
886.275	20613
886.4	20552
886.525	20537
886.65	20590
886.775	20579
886.9	20735
887.025	20826
887.149	20514
887.274	20355
887.399	20339
887.523	20434
887.648	20309
887.773	20431
887.897	20412
888.021	20412
888.146	20351
888.27	20438
888.395	20526
888.519	20415
888.643	20408
888.767	20461
888.891	20278
889.015	20298
889.139	20275
889.263	20290
889.387	20419
889.511	20377
889.635	20248
889.759	20282
889.883	20172
890.006	20244
890.13	20225
890.254	20145
890.377	20134
890.501	20016
890.624	20001
890.748	20035
890.871	19932
890.995	19727
891.118	19746
891.241	19864
891.364	19795
891.488	19841
891.611	19791
891.734	19719
891.857	19753
891.98	19860
892.103	19826
892.226	19765
892.349	19742
892.471	19632
892.594	19708
892.717	19738
892.839	19594
892.962	19780
893.085	19753
893.207	19616
893.33	19563
893.452	19567
893.575	19712
893.697	19772
893.819	19776
893.941	19913
894.064	19780
894.186	19708
894.308	19666
894.43	19734
894.552	19814
894.674	19830
894.796	19571
894.918	19601
895.04	19689
895.161	19750
895.283	19776
895.405	19674
895.526	19662
895.648	19658
895.769	19628
895.891	19708
896.012	19689
896.134	19700
896.255	19742
896.376	19628
896.498	19674
896.619	19548
896.74	19647
896.861	19811
896.982	19993
897.103	20157
897.224	20001
897.345	19826
897.466	19902
897.587	19875
897.708	20031
897.828	19974
897.949	19780
898.07	19784
898.19	19894
898.311	19982
898.431	19932
898.552	19864
898.672	19947
898.792	19997
898.913	19883
899.033	19814
899.153	19685
899.273	19647
899.393	19639
899.513	19742
899.633	19502
899.753	19647
899.873	19559
899.993	19723
900.113	19605
900.232	19635
900.352	19548
900.472	19449
900.591	19594
900.711	19624
900.83	19350
900.95	19594
901.069	19506
901.189	19354
901.308	19168
901.427	19057
901.546	19080
901.665	18951
901.784	19042
901.904	18935
902.023	18802
902.141	18578
902.26	18715
902.379	18681
902.498	18589
902.617	18498
902.735	18551
902.854	18544
902.973	18494
903.091	18342
903.21	18136
903.328	18254
903.446	18152
903.565	18022
903.683	18152
903.801	17866
903.919	18003
904.038	17939
904.156	17756
904.274	17779
904.392	17790
904.51	17832
904.627	17901
904.745	17817
904.863	17790
904.981	17661
905.098	17547
905.216	17501
905.334	17516
905.451	17444
905.569	17368
905.686	17512
905.803	17505
905.921	17341
906.038	17417
906.155	17227
906.272	17174
906.389	17200
906.506	17025
906.623	16999
906.74	17025
906.857	16927
906.974	16934
907.091	17166
907.208	17124
907.324	17014
907.441	16976
907.557	16793
907.674	16797
907.79	16793
907.907	16774
908.023	16759
908.139	16694
908.256	16717
908.372	16588
908.488	16577
908.604	16447
908.72	16508
908.836	16443
908.952	16398
909.068	16565
909.184	16580
909.3	16500
909.415	16470
909.531	16508
909.647	16196
909.762	16234
909.878	16131
909.993	16261
910.108	16086
910.224	16204
910.339	16131
910.454	16063
910.57	15983
910.685	15800
910.8	16211
910.915	16147
911.03	15937
911.145	15835
911.259	15800
911.374	15838
911.489	15660
911.604	15667
911.718	15542
911.833	15515
911.947	15557
912.062	15420
912.176	15580
912.291	15564
912.405	15587
912.519	15759
912.633	15739
912.748	15496
912.862	15534
912.976	15412
913.09	15211
913.204	15416
913.318	15359
913.431	15370
913.545	15431
913.659	15408
913.772	15237
913.886	15218
914	15150
914.113	15291
914.226	15241
914.34	15260
914.453	15032
914.566	15173
914.68	15081
914.793	15055
914.906	14941
915.019	14762
915.132	14777
915.245	14800
915.358	14754
915.47	14804
915.583	14819
915.696	14823
915.809	14910
915.921	14895
916.034	14758
916.146	14640
916.259	14743
916.371	14785
916.483	14762
916.595	14571
916.708	14587
916.82	14598
916.932	14587
917.044	14598
917.156	14507
917.268	14431
917.38	14328
917.491	14434
917.603	14396
917.715	14587
917.826	14537
917.938	14408
918.049	14313
918.161	14412
918.272	14533
918.384	14526
918.495	14461
918.606	14244
918.717	14161
918.828	14210
918.939	14202
919.05	14062
919.161	14138
919.272	14005
919.383	14096
919.494	14218
919.604	14442
919.715	14172
919.826	14077
919.936	14233
920.047	14355
920.157	14126
920.267	14358
920.378	14214
920.488	14195
920.598	14301
920.708	14434
920.818	14404
920.928	14256
921.038	14495
921.148	14412
921.258	14092
921.368	13997
921.477	13871
921.587	13928
921.697	13814
921.806	13913
921.916	13761
922.025	13666
922.134	13632
922.244	13537
922.353	13605
922.462	13487
922.571	13468
922.68	13263
922.789	13206
922.898	13263
923.007	13149
923.116	13270
923.224	13194
923.333	13187
923.442	13149
923.55	13091
923.659	13050
923.767	13034
923.876	12875
923.984	13038
924.092	12947
924.201	12985
924.309	13000
924.417	12954
924.525	12787
924.633	12882
924.741	13837
924.849	12700
924.956	12840
925.064	12662
925.172	12528
925.279	12620
925.387	12673
925.494	12700
925.602	12798
925.709	12692
925.816	12551
925.924	12585
926.031	12620
926.138	12517
926.245	12563
926.352	12460
926.459	12559
926.566	12673
926.673	12479
926.779	12490
926.886	12334
926.993	12258
927.099	12159
927.206	12186
927.312	12159
927.419	12262
927.525	12178
927.631	12239
927.737	12140
927.843	12087
927.95	12015
928.056	12011
928.162	12121
928.267	12038
928.373	12566
928.479	12140
928.585	11870
928.69	12053
928.796	12049
928.901	11950
929.007	11790
929.112	11885
929.218	11939
929.323	11821
929.428	11733
929.533	11942
929.638	11775
929.743	11786
929.848	11756
929.953	11783
930.058	11680
930.163	11554
930.267	11570
930.372	11630
930.477	11471
930.581	11699
930.685	11509
930.79	11364
930.894	11448
930.998	11307
931.103	11493
931.207	11162
931.311	11052
931.415	10923
931.519	10812
931.623	10668
