Data from test_V78500241_2000.txt Node
Date: Fri Mar 25 15:23:47 CST 2022
User: usil
Spectrometer: V785-0024
Trigger mode: 0
Integration Time (sec): 4.000000E-1
Scans to average: 1
Nonlinearity correction enabled: false
Boxcar width: 0
Storing dark spectrum: false
XAxis mode: Wavelengths
Number of Pixels in Spectrum: 1024
>>>>>Begin Spectral Data<<<<<
801.071	27892
801.214	27804
801.356	27625
801.499	27466
801.641	27370
801.783	27427
801.926	27427
802.068	27443
802.211	27367
802.353	27268
802.496	27055
802.638	26948
802.78	27028
802.923	26963
803.065	26990
803.208	26921
803.35	27127
803.492	27112
803.635	27291
803.777	27123
803.919	27344
804.061	27671
804.204	27317
804.346	27306
804.488	27222
804.63	27195
804.773	27119
804.915	27268
805.057	27310
805.199	27161
805.341	27431
805.483	27439
805.626	27397
805.768	27256
805.91	27427
806.052	27321
806.194	27374
806.336	27610
806.478	27397
806.62	27272
806.762	27500
806.904	27644
807.046	27911
807.188	27846
807.33	27941
807.472	27827
807.614	27755
807.756	27827
807.898	27751
808.04	27549
808.182	27701
808.324	27671
808.465	27819
808.607	27930
808.749	28067
808.891	28082
809.033	28272
809.174	28139
809.316	27994
809.458	28044
809.6	27994
809.741	28166
809.883	28158
810.025	28306
810.166	28405
810.308	28306
810.45	28150
810.591	28246
810.733	28013
810.875	28006
811.016	27918
811.158	27983
811.299	28010
811.441	28215
811.582	28401
811.724	28021
811.865	27998
812.007	28017
812.148	28002
812.29	28017
812.431	28124
812.573	28154
812.714	28504
812.855	28451
812.997	28622
813.138	28831
813.279	28748
813.421	28447
813.562	28668
813.703	28462
813.845	28238
813.986	27922
814.127	27648
814.268	27652
814.41	27808
814.551	27599
814.692	27724
814.833	27637
814.974	27618
815.115	27698
815.256	27599
815.397	27545
815.539	27519
815.68	27420
815.821	27389
815.962	27534
816.103	27473
816.244	27260
816.385	27317
816.526	27096
816.666	27135
816.807	27005
816.948	27093
817.089	27093
817.23	27009
817.371	26990
817.512	26982
817.653	26876
817.793	26963
817.934	26979
818.075	26895
818.216	26929
818.356	26807
818.497	26994
818.638	26887
818.778	26686
818.919	26674
819.06	26693
819.2	26857
819.341	27043
819.481	26823
819.622	27142
819.762	27355
819.903	27207
820.043	27260
820.184	27108
820.324	27203
820.465	27089
820.605	27036
820.746	27058
820.886	27051
821.026	27047
821.167	26876
821.307	27116
821.447	27131
821.588	26887
821.728	26674
821.868	26556
822.008	26389
822.149	26461
822.289	26453
822.429	26210
822.569	26183
822.709	26286
822.849	25936
822.99	25860
823.13	25879
823.27	25883
823.41	25799
823.55	25799
823.69	25883
823.83	25803
823.97	25689
824.11	25613
824.25	25537
824.389	25677
824.529	25769
824.669	25552
824.809	25693
824.949	25791
825.089	25723
825.228	25681
825.368	25434
825.508	25495
825.648	25548
825.787	25426
825.927	25438
826.067	25419
826.206	25369
826.346	25499
826.485	25495
826.625	25403
826.765	25537
826.904	25582
827.044	25175
827.183	25240
827.323	25339
827.462	25263
827.601	25206
827.741	25110
827.88	25206
828.02	25042
828.159	25198
828.298	25232
828.437	25270
828.577	25168
828.716	25209
828.855	25118
828.994	25000
829.134	24886
829.273	24909
829.412	24939
829.551	24837
829.69	24821
829.829	24791
829.968	25103
830.107	24954
830.246	24890
830.385	24768
830.524	24795
830.663	24821
830.802	24627
830.941	24513
831.08	24452
831.219	24509
831.357	24559
831.496	24642
831.635	24570
831.774	24490
831.913	24353
832.051	24273
832.19	24224
832.329	24342
832.467	24205
832.606	24174
832.744	24251
832.883	24273
833.022	24201
833.16	24190
833.299	24254
833.437	24213
833.576	24304
833.714	24323
833.852	24273
833.991	24289
834.129	24376
834.267	24243
834.406	24254
834.544	24117
834.682	24277
834.821	24209
834.959	24460
835.097	24205
835.235	24174
835.373	24224
835.511	24174
835.65	24136
835.788	24076
835.926	23874
836.064	23889
836.202	23954
836.34	24136
836.478	24091
836.615	24049
836.753	24171
836.891	24152
837.029	24148
837.167	24060
837.305	24053
837.443	24041
837.58	23843
837.718	24041
837.856	23996
837.993	23855
838.131	23954
838.269	23710
838.406	23771
838.544	23779
838.681	23668
838.819	23611
838.956	23421
839.094	23364
839.231	23573
839.369	23436
839.506	23821
839.643	23661
839.781	23417
839.918	23398
840.055	23307
840.193	23406
840.33	23360
840.467	23299
840.604	23341
840.742	23334
840.879	23132
841.016	23239
841.153	23113
841.29	23334
841.427	23364
841.564	23436
841.701	23311
841.838	23212
841.975	23094
842.112	23193
842.249	23048
842.385	22904
842.522	23227
842.659	23162
842.796	23025
842.933	22995
843.069	23064
843.206	22930
843.343	23124
843.479	23033
843.616	23041
843.752	22797
843.889	22957
844.025	22927
844.162	22793
844.298	22946
844.435	22809
844.571	22809
844.708	22896
844.844	23033
844.98	22972
845.117	22801
845.253	22793
845.389	22679
845.525	22710
845.661	22664
845.798	22607
845.934	22672
846.07	22417
846.206	22561
846.342	22588
846.478	22588
846.614	22246
846.75	22356
846.886	22322
847.022	22337
847.158	22272
847.294	22226
847.429	22440
847.565	22261
847.701	22531
847.837	22120
847.972	21998
848.108	22131
848.244	22097
848.379	21861
848.515	21869
848.65	21835
848.786	21926
848.921	21949
849.057	21842
849.192	21926
849.328	21922
849.463	21861
849.598	21766
849.734	21800
849.869	21785
850.004	21724
850.14	21682
850.275	21717
850.41	21622
850.545	21625
850.68	21603
850.815	21656
850.95	21705
851.085	21808
851.22	21759
851.355	21648
851.49	21564
851.625	21599
851.76	21614
851.895	21561
852.03	21576
852.165	21599
852.299	21652
852.434	21823
852.569	21713
852.703	21622
852.838	21743
852.973	21770
853.107	21819
853.242	21618
853.376	21507
853.511	21378
853.645	21450
853.78	21500
853.914	21488
854.048	21458
854.183	21515
854.317	21549
854.451	21747
854.585	21466
854.72	21488
854.854	21545
854.988	21378
855.122	21492
855.256	21435
855.39	21492
855.524	21450
855.658	21542
855.792	21583
855.926	21397
856.06	21412
856.194	21469
856.327	21504
856.461	21389
856.595	21424
856.729	21530
856.862	21606
856.996	21534
857.13	21568
857.263	21568
857.397	21511
857.53	21401
857.664	21504
857.797	21469
857.931	21542
858.064	21488
858.197	21622
858.331	21507
858.464	21511
858.597	21382
858.731	21496
858.864	21500
858.997	21515
859.13	21500
859.263	21435
859.396	21530
859.529	21481
859.662	21488
859.795	21462
859.928	21553
860.061	21591
860.194	21633
860.327	21526
860.46	21450
860.592	21462
860.725	21580
860.858	21629
860.99	21519
861.123	21431
861.256	21401
861.388	21492
861.521	22188
861.653	21249
861.786	21298
861.918	21272
862.05	21142
862.183	21443
862.315	21443
862.447	21466
862.58	21348
862.712	21146
862.844	21237
862.976	21222
863.108	21192
863.24	21652
863.372	21135
863.504	21268
863.636	21180
863.768	21233
863.9	21112
864.032	21024
864.164	21161
864.296	21039
864.428	21325
864.559	21127
864.691	21359
864.823	21104
864.954	21093
865.086	21123
865.217	21070
865.349	20944
865.48	21081
865.612	21077
865.743	21100
865.875	21058
866.006	21093
866.137	20998
866.269	21039
866.4	20986
866.531	21020
866.662	21043
866.793	20925
866.924	20918
867.055	21024
867.186	20937
867.317	20845
867.448	20823
867.579	21123
867.71	21039
867.841	20921
867.972	20861
868.103	21005
868.233	20967
868.364	21001
868.495	21123
868.625	21275
868.756	21275
868.886	21180
869.017	21325
869.147	21321
869.278	21355
869.408	21192
869.539	21260
869.669	21408
869.799	21310
869.929	21450
870.06	21389
870.19	21481
870.32	21545
870.45	21686
870.58	21553
870.71	21732
870.84	21720
870.97	21599
871.1	21667
871.23	21785
871.36	21728
871.489	21736
871.619	21903
871.749	21785
871.879	21842
872.008	21816
872.138	21850
872.267	21846
872.397	21789
872.526	21614
872.656	21751
872.785	21477
872.915	21945
873.044	21888
873.173	21895
873.303	21823
873.432	21854
873.561	21968
873.69	21861
873.819	21915
873.948	21941
874.077	21842
874.206	21797
874.335	21911
874.464	21873
874.593	22143
874.722	22097
874.851	22063
874.979	21987
875.108	22067
875.237	22021
875.365	21800
875.494	22021
875.623	22093
875.751	22048
875.88	22078
876.008	22166
876.136	22238
876.265	22436
876.393	22626
876.521	22470
876.65	22557
876.778	22459
876.906	22432
877.034	22447
877.162	22489
877.29	22462
877.418	22447
877.546	22375
877.674	22531
877.802	22417
877.93	22310
878.058	22432
878.185	22223
878.313	22322
878.441	22481
878.568	22268
878.696	22371
878.824	22348
878.951	22573
879.079	22588
879.206	22630
879.333	22516
879.461	22519
879.588	22519
879.715	22550
879.842	22755
879.97	22413
880.097	22303
880.224	22306
880.351	22272
880.478	22211
880.605	22299
880.732	22287
880.859	22432
880.986	22276
881.112	22314
881.239	22207
881.366	21930
881.493	22029
881.619	21816
881.746	21827
881.872	21861
881.999	21770
882.125	21827
882.252	21835
882.378	21781
882.505	21854
882.631	21705
882.757	21568
882.883	21568
883.01	21614
883.136	21568
883.262	21397
883.388	21424
883.514	21576
883.64	21515
883.766	21355
883.892	21287
884.018	21344
884.143	21439
884.269	21553
884.395	21199
884.52	21138
884.646	21230
884.772	21180
884.897	21017
885.023	21252
885.148	21272
885.274	21306
885.399	21135
885.524	21169
885.65	21135
885.775	21127
885.9	21150
886.025	21306
886.15	21203
886.275	21043
886.4	20948
886.525	21138
886.65	21081
886.775	21127
886.9	21294
887.025	21332
887.149	21207
887.274	20864
887.399	20979
887.523	20918
887.648	20876
887.773	20845
887.897	21013
888.021	20967
888.146	20853
888.27	21100
888.395	20895
888.519	20914
888.643	20944
888.767	20868
888.891	20823
889.015	20697
889.139	20834
889.263	20644
889.387	20902
889.511	20891
889.635	20937
889.759	20727
889.883	20804
890.006	20826
890.13	20842
890.254	20689
890.377	20568
890.501	20503
890.624	20400
890.748	20537
890.871	20305
890.995	20332
891.118	20187
891.241	20385
891.364	20290
891.488	20374
891.611	20339
891.734	20309
891.857	20267
891.98	20336
892.103	20370
892.226	20259
892.349	20210
892.471	20077
892.594	20248
892.717	20271
892.839	20107
892.962	20259
893.085	20358
893.207	20309
893.33	20161
893.452	20024
893.575	20267
893.697	20164
893.819	20305
893.941	20366
894.064	20366
894.186	20202
894.308	20138
894.43	20271
894.552	20351
894.674	20396
894.796	20069
894.918	20282
895.04	20092
895.161	20225
895.283	20267
895.405	20081
895.526	20126
895.648	20202
895.769	20130
895.891	20180
896.012	20244
896.134	20271
896.255	20259
896.376	20126
896.498	20149
896.619	20278
896.74	20218
896.861	20225
896.982	20556
897.103	20678
897.224	20511
897.345	20442
897.466	20533
897.587	20305
897.708	20499
897.828	20434
897.949	20400
898.07	20248
898.19	20347
898.311	20511
898.431	20450
898.552	20317
898.672	20442
898.792	20613
898.913	20408
899.033	20324
899.153	20233
899.273	20054
899.393	20161
899.513	20172
899.633	20157
899.753	20176
899.873	20039
899.993	20138
900.113	20031
900.232	20096
900.352	19940
900.472	19955
900.591	19913
900.711	19982
900.83	19993
900.95	20027
901.069	20039
901.189	19826
901.308	19559
901.427	19502
901.546	19460
901.665	19578
901.784	19655
901.904	19308
902.023	19285
902.141	19133
902.26	19137
902.379	19152
902.498	19004
902.617	18985
902.735	19050
902.854	19012
902.973	18951
903.091	18696
903.21	18612
903.328	18673
903.446	18551
903.565	18506
903.683	18528
903.801	18369
903.919	18464
904.038	18498
904.156	18304
904.274	18342
904.392	18152
904.51	18289
904.627	18258
904.745	18292
904.863	18323
904.981	18098
905.098	17897
905.216	17821
905.334	17961
905.451	17935
905.569	17824
905.686	17999
905.803	17843
905.921	17764
906.038	17794
906.155	17767
906.272	17699
906.389	17665
906.506	17452
906.623	17471
906.74	17535
906.857	17349
906.974	17334
907.091	17570
907.208	17535
907.324	17417
907.441	17330
907.557	17258
907.674	17273
907.79	17018
907.907	17094
908.023	17170
908.139	17220
908.256	17079
908.372	17025
908.488	16987
908.604	16908
908.72	16858
908.836	16885
908.952	16858
909.068	17052
909.184	17018
909.3	16927
909.415	16915
909.531	16843
909.647	16713
909.762	16618
909.878	16588
909.993	16717
910.108	16554
910.224	16504
910.339	16588
910.454	16508
910.57	16519
910.685	16367
910.8	16580
910.915	16493
911.03	16394
911.145	16223
911.259	16234
911.374	16169
911.489	16131
911.604	16120
911.718	15934
911.833	15876
911.947	15857
912.062	15785
912.176	15846
912.291	15808
912.405	15915
912.519	16101
912.633	16074
912.748	16010
912.862	15842
912.976	15770
913.09	15690
913.204	15660
913.318	15819
913.431	15812
913.545	15808
913.659	15892
913.772	15766
913.886	15629
914	15580
914.113	15572
914.226	15701
914.34	15576
914.453	15424
914.566	15580
914.68	15386
914.793	15431
914.906	15275
915.019	15135
915.132	15055
915.245	15138
915.358	15146
915.47	15211
915.583	15104
915.696	15154
915.809	15310
915.921	15332
916.034	15135
916.146	15089
916.259	14971
916.371	15119
916.483	15127
916.595	15039
916.708	15028
916.82	14960
916.932	14887
917.044	14971
917.156	14914
917.268	14861
917.38	14834
917.491	14758
917.603	14739
917.715	14853
917.826	14861
917.938	14845
918.049	14602
918.161	14781
918.272	14842
918.384	14918
918.495	14686
918.606	14602
918.717	14537
918.828	14568
918.939	14716
919.05	14469
919.161	14621
919.272	14355
919.383	14465
919.494	14545
919.604	14781
919.715	14507
919.826	14499
919.936	14484
920.047	14632
920.157	14564
920.267	14701
920.378	14526
920.488	14598
920.598	14655
920.708	14864
920.818	14689
920.928	14651
921.038	14864
921.148	14807
921.258	14400
921.368	14438
921.477	14351
921.587	14172
921.697	14115
921.806	14282
921.916	14046
922.025	14027
922.134	13875
922.244	13989
922.353	13997
922.462	13826
922.571	13746
922.68	13601
922.789	13544
922.898	13582
923.007	13518
923.116	13677
923.224	13483
923.333	13510
923.442	13400
923.55	13346
923.659	13422
923.767	13483
923.876	13381
923.984	13460
924.092	13289
924.201	13373
924.309	13308
924.417	13419
924.525	13202
924.633	13247
924.741	13959
924.849	13015
924.956	13187
925.064	12985
925.172	12913
925.279	12970
925.387	12996
925.494	13012
925.602	13004
925.709	13053
925.816	12897
925.924	12825
926.031	13080
926.138	12951
926.245	12909
926.352	12821
926.459	12943
926.566	12901
926.673	12932
926.779	12757
926.886	12673
926.993	12578
927.099	12578
927.206	12479
927.312	12452
927.419	12593
927.525	12551
927.631	12604
927.737	12486
927.843	12384
927.95	12247
928.056	12399
928.162	12342
928.267	12338
928.373	12985
928.479	12426
928.585	12159
928.69	12342
928.796	12334
928.901	12262
929.007	12087
929.112	12216
929.218	12117
929.323	12133
929.428	11992
929.533	12232
929.638	12140
929.743	11984
929.848	12057
929.953	11969
930.058	11889
930.163	11714
930.267	11779
930.372	11920
930.477	11661
930.581	11950
930.685	11832
930.79	11695
930.894	11642
930.998	11684
931.103	11707
931.207	11402
931.311	11258
931.415	11349
931.519	11048
931.623	11037
