Data from test_V78500241_2817.txt Node
Date: Fri Mar 25 15:29:28 CST 2022
User: usil
Spectrometer: V785-0024
Trigger mode: 0
Integration Time (sec): 4.000000E-1
Scans to average: 1
Nonlinearity correction enabled: false
Boxcar width: 0
Storing dark spectrum: false
XAxis mode: Wavelengths
Number of Pixels in Spectrum: 1024
>>>>>Begin Spectral Data<<<<<
801.071	27268
801.214	27180
801.356	26880
801.499	26842
801.641	26807
801.783	26670
801.926	26895
802.068	26762
802.211	26674
802.353	26606
802.496	26495
802.638	26381
802.78	26434
802.923	26278
803.065	26214
803.208	26328
803.35	26396
803.492	26488
803.635	26465
803.777	26374
803.919	26507
804.061	26815
804.204	26629
804.346	26545
804.488	26404
804.63	26533
804.773	26541
804.915	26568
805.057	26560
805.199	26427
805.341	26602
805.483	26587
805.626	26537
805.768	26465
805.91	26507
806.052	26678
806.194	26541
806.336	26834
806.478	26705
806.62	26526
806.762	26842
806.904	26864
807.046	27169
807.188	27180
807.33	27096
807.472	27085
807.614	26960
807.756	27062
807.898	26857
808.04	26758
808.182	26716
808.324	26887
808.465	27039
808.607	26971
808.749	27222
808.891	27389
809.033	27431
809.174	27302
809.316	27256
809.458	27336
809.6	27096
809.741	27310
809.883	27439
810.025	27583
810.166	27534
810.308	27591
810.45	27545
810.591	27447
810.733	27332
810.875	27192
811.016	27184
811.158	27203
811.299	27378
811.441	27488
811.582	27454
811.724	27150
811.865	27157
812.007	27214
812.148	27207
812.29	27275
812.431	27412
812.573	27469
812.714	27637
812.855	27747
812.997	27846
813.138	27888
813.279	27842
813.421	27759
813.562	27568
813.703	27587
813.845	27416
813.986	27051
814.127	26960
814.268	26887
814.41	26868
814.551	26906
814.692	26990
814.833	26769
814.974	26758
815.115	26937
815.256	26743
815.397	26823
815.539	26712
815.68	26674
815.821	26670
815.962	26826
816.103	26716
816.244	26492
816.385	26507
816.526	26309
816.666	26218
816.807	26240
816.948	26237
817.089	26317
817.23	26248
817.371	26142
817.512	26088
817.653	26069
817.793	26073
817.934	26077
818.075	26149
818.216	26130
818.356	26027
818.497	26024
818.638	25906
818.778	25944
818.919	25932
819.06	25993
819.2	25986
819.341	26058
819.481	26081
819.622	26275
819.762	26511
819.903	26465
820.043	26396
820.184	26115
820.324	26298
820.465	26176
820.605	26339
820.746	26229
820.886	26077
821.026	26374
821.167	26180
821.307	26324
821.447	26107
821.588	26115
821.728	25887
821.868	25750
822.008	25586
822.149	25681
822.289	25582
822.429	25449
822.569	25354
822.709	25335
822.849	25217
822.99	25103
823.13	25053
823.27	25137
823.41	24909
823.55	24829
823.69	24996
823.83	24894
823.97	24909
824.11	24741
824.25	24650
824.389	24741
824.529	24703
824.669	24730
824.809	24890
824.949	24760
825.089	24783
825.228	24779
825.368	24513
825.508	24589
825.648	24574
825.787	24593
825.927	24703
826.067	24658
826.206	24559
826.346	24521
826.485	24715
826.625	24547
826.765	24787
826.904	24585
827.044	24380
827.183	24292
827.323	24235
827.462	24414
827.601	24388
827.741	24350
827.88	24216
828.02	24266
828.159	24140
828.298	24315
828.437	24437
828.577	24232
828.716	24357
828.855	24197
828.994	24011
829.134	24022
829.273	24041
829.412	23992
829.551	23977
829.69	24045
829.829	24083
829.968	24049
830.107	24079
830.246	24110
830.385	23984
830.524	23999
830.663	23843
830.802	23718
830.941	23642
831.08	23554
831.219	23741
831.357	23813
831.496	23741
831.635	23482
831.774	23570
831.913	23501
832.051	23356
832.19	23318
832.329	23486
832.467	23341
832.606	23330
832.744	23200
832.883	23288
833.022	23360
833.16	23330
833.299	23452
833.437	23341
833.576	23455
833.714	23459
833.852	23391
833.991	23326
834.129	23558
834.267	23387
834.406	23372
834.544	23387
834.682	23334
834.821	23322
834.959	23486
835.097	23391
835.235	23474
835.373	23296
835.511	23288
835.65	23261
835.788	23258
835.926	23193
836.064	23014
836.202	23083
836.34	23242
836.478	23326
836.615	23273
836.753	23220
836.891	23261
837.029	23231
837.167	23113
837.305	23056
837.443	23044
837.58	22961
837.718	22980
837.856	22980
837.993	23064
838.131	23056
838.269	22869
838.406	22968
838.544	22839
838.681	22672
838.819	22679
838.956	22500
839.094	22569
839.231	22596
839.369	22630
839.506	22828
839.643	22869
839.781	22508
839.918	22485
840.055	22481
840.193	22519
840.33	22481
840.467	22538
840.604	22421
840.742	22752
840.879	22371
841.016	22371
841.153	22394
841.29	22516
841.427	22531
841.564	22447
841.701	22295
841.838	22344
841.975	22318
842.112	22352
842.249	22337
842.385	22166
842.522	22508
842.659	22306
842.796	22147
842.933	22265
843.069	22173
843.206	22074
843.343	22223
843.479	22207
843.616	22166
843.752	22074
843.889	21915
844.025	22112
844.162	22002
844.298	22128
844.435	21850
844.571	21945
844.708	21941
844.844	22154
844.98	22013
845.117	22063
845.253	21941
845.389	21907
845.525	21873
845.661	21713
845.798	21690
845.934	21781
846.07	21629
846.206	21648
846.342	21812
846.478	21690
846.614	21401
846.75	21405
846.886	21488
847.022	21408
847.158	21389
847.294	21462
847.429	21469
847.565	21500
847.701	21576
847.837	21222
847.972	21150
848.108	21154
848.244	21203
848.379	21055
848.515	20998
848.65	21020
848.786	21074
848.921	20986
849.057	21165
849.192	21169
849.328	21051
849.463	21039
849.598	20902
849.734	21005
849.869	20849
850.004	20781
850.14	20731
850.275	20861
850.41	20800
850.545	20724
850.68	20746
850.815	20826
850.95	20845
851.085	21005
851.22	20838
851.355	20788
851.49	20830
851.625	20785
851.76	20796
851.895	20781
852.03	20800
852.165	20845
852.299	20773
852.434	20872
852.569	20883
852.703	20838
852.838	20807
852.973	20895
853.107	20861
853.242	20800
853.376	20663
853.511	20499
853.645	20518
853.78	20678
853.914	20708
854.048	20583
854.183	20587
854.317	20640
854.451	20796
854.585	20602
854.72	20575
854.854	20739
854.988	20609
855.122	20457
855.256	20518
855.39	20617
855.524	20716
855.658	20667
855.792	20640
855.926	20682
856.06	20621
856.194	20750
856.327	20640
856.461	20682
856.595	20541
856.729	20651
856.862	20815
856.996	20678
857.13	20640
857.263	20689
857.397	20849
857.53	20697
857.664	20678
857.797	20674
857.931	20785
858.064	20724
858.197	20853
858.331	20560
858.464	20503
858.597	20450
858.731	20446
858.864	20625
858.997	20530
859.13	20663
859.263	20758
859.396	20663
859.529	20651
859.662	20575
859.795	20640
859.928	20625
860.061	20746
860.194	20739
860.327	20625
860.46	20640
860.592	20807
860.725	20693
860.858	20648
860.99	20564
861.123	20541
861.256	20629
861.388	20606
861.521	21169
861.653	20552
861.786	20514
861.918	20423
862.05	20511
862.183	20518
862.315	20644
862.447	20625
862.58	20526
862.712	20396
862.844	20313
862.976	20343
863.108	20347
863.24	20739
863.372	20290
863.504	20332
863.636	20191
863.768	20431
863.9	20305
864.032	20286
864.164	20351
864.296	20225
864.428	20450
864.559	20412
864.691	20385
864.823	20275
864.954	20298
865.086	20317
865.217	20202
865.349	20130
865.48	20252
865.612	20206
865.743	20461
865.875	20282
866.006	20332
866.137	20214
866.269	20298
866.4	20130
866.531	20195
866.662	20164
866.793	20168
866.924	20157
867.055	20355
867.186	20271
867.317	20138
867.448	20138
867.579	20187
867.71	20031
867.841	20180
867.972	20195
868.103	20195
868.233	20187
868.364	20237
868.495	20263
868.625	20309
868.756	20511
868.886	20301
869.017	20358
869.147	20507
869.278	20564
869.408	20492
869.539	20339
869.669	20461
869.799	20495
869.929	20590
870.06	20552
870.19	20667
870.32	20720
870.45	20876
870.58	20819
870.71	20845
870.84	21017
870.97	20891
871.1	20895
871.23	21055
871.36	21028
871.489	20876
871.619	20975
871.749	21009
871.879	20986
872.008	21093
872.138	21047
872.267	21001
872.397	20933
872.526	20842
872.656	20807
872.785	20796
872.915	21108
873.044	21138
873.173	21108
873.303	21096
873.432	21043
873.561	21135
873.69	21081
873.819	21047
873.948	21112
874.077	20979
874.206	20979
874.335	21047
874.464	21085
874.593	21321
874.722	21291
874.851	21294
874.979	21245
875.108	21386
875.237	21275
875.365	21058
875.494	21256
875.623	21237
875.751	21226
875.88	21359
876.008	21393
876.136	21397
876.265	21595
876.393	21808
876.521	21797
876.65	21603
876.778	21648
876.906	21698
877.034	21625
877.162	21675
877.29	21618
877.418	21637
877.546	21599
877.674	21629
877.802	21656
877.93	21728
878.058	21523
878.185	21587
878.313	21614
878.441	21564
878.568	21526
878.696	21530
878.824	21663
878.951	21774
879.079	21797
879.206	21861
879.333	21701
879.461	21793
879.588	21720
879.715	21774
879.842	21873
879.97	21572
880.097	21511
880.224	21420
880.351	21405
880.478	21526
880.605	21439
880.732	21340
880.859	21778
880.986	21416
881.112	21405
881.239	21355
881.366	21199
881.493	21199
881.619	21070
881.746	21089
881.872	21096
881.999	21043
882.125	20979
882.252	21001
882.378	20956
882.505	21119
882.631	20944
882.757	20807
882.883	20769
883.01	20731
883.136	20712
883.262	20606
883.388	20549
883.514	20826
883.64	20819
883.766	20640
883.892	20507
884.018	20651
884.143	20731
884.269	20750
884.395	20454
884.52	20408
884.646	20495
884.772	20377
884.897	20332
885.023	20427
885.148	20446
885.274	20564
885.399	20514
885.524	20347
885.65	20362
885.775	20347
885.9	20290
886.025	20530
886.15	20427
886.275	20317
886.4	20275
886.525	20362
886.65	20389
886.775	20286
886.9	20431
887.025	20583
887.149	20355
887.274	20252
887.399	20092
887.523	20157
887.648	20122
887.773	20069
887.897	20309
888.021	20130
888.146	20145
888.27	20301
888.395	20210
888.519	20153
888.643	20267
888.767	20157
888.891	20043
889.015	19997
889.139	20088
889.263	19947
889.387	20062
889.511	20210
889.635	20138
889.759	19906
889.883	20039
890.006	20084
890.13	19982
890.254	19845
890.377	19902
890.501	19753
890.624	19609
890.748	19776
890.871	19582
890.995	19533
891.118	19460
891.241	19662
891.364	19548
891.488	19681
891.611	19571
891.734	19578
891.857	19518
891.98	19578
892.103	19628
892.226	19594
892.349	19476
892.471	19381
892.594	19453
892.717	19525
892.839	19392
892.962	19540
893.085	19571
893.207	19540
893.33	19350
893.452	19301
893.575	19544
893.697	19438
893.819	19772
893.941	19632
894.064	19616
894.186	19373
894.308	19358
894.43	19491
894.552	19635
894.674	19597
894.796	19415
894.918	19480
895.04	19438
895.161	19616
895.283	19540
895.405	19460
895.526	19384
895.648	19422
895.769	19419
895.891	19529
896.012	19620
896.134	19582
896.255	19487
896.376	19487
896.498	19324
896.619	19514
896.74	19381
896.861	19540
896.982	19799
897.103	20050
897.224	19780
897.345	19795
897.466	19635
897.587	19757
897.708	19784
897.828	19662
897.949	19681
898.07	19571
898.19	19693
898.311	19738
898.431	19712
898.552	19719
898.672	19750
898.792	19799
898.913	19746
899.033	19651
899.153	19594
899.273	19506
899.393	19510
899.513	19529
899.633	19540
899.753	19521
899.873	19506
899.993	19544
900.113	19396
900.232	19518
900.352	19373
900.472	19289
900.591	19289
900.711	19373
900.83	19209
900.95	19506
901.069	19354
901.189	19095
901.308	18947
901.427	18795
901.546	18894
901.665	18825
901.784	18787
901.904	18764
902.023	18631
902.141	18483
902.26	18338
902.379	18471
902.498	18391
902.617	18407
902.735	18395
902.854	18350
902.973	18155
903.091	18079
903.21	18102
903.328	18019
903.446	18034
903.565	17923
903.683	17878
903.801	17729
903.919	17863
904.038	17771
904.156	17710
904.274	17695
904.392	17577
904.51	17642
904.627	17623
904.745	17668
904.863	17596
904.981	17490
905.098	17303
905.216	17334
905.334	17364
905.451	17322
905.569	17246
905.686	17322
905.803	17261
905.921	17075
906.038	17185
906.155	17060
906.272	16889
906.389	17071
906.506	16911
906.623	16831
906.74	16839
906.857	16774
906.974	16763
907.091	17010
907.208	16873
907.324	16896
907.441	16790
907.557	16649
907.674	16603
907.79	16573
907.907	16561
908.023	16611
908.139	16611
908.256	16470
908.372	16478
908.488	16531
908.604	16371
908.72	16268
908.836	16443
908.952	16287
909.068	16318
909.184	16329
909.3	16284
909.415	16322
909.531	16265
909.647	16051
909.762	15972
909.878	16048
909.993	16029
910.108	15937
910.224	15987
910.339	15991
910.454	15899
910.57	15762
910.685	15800
910.8	15953
910.915	15926
911.03	15846
911.145	15724
911.259	15606
911.374	15705
911.489	15534
911.604	15485
911.718	15412
911.833	15405
911.947	15272
912.062	15241
912.176	15424
912.291	15412
912.405	15389
912.519	15587
912.633	15557
912.748	15363
912.862	15310
912.976	15222
913.09	15036
913.204	15138
913.318	15291
913.431	15207
913.545	15310
913.659	15283
913.772	15203
913.886	15112
914	14994
914.113	15089
914.226	15157
914.34	15085
914.453	14891
914.566	14998
914.68	14971
914.793	14823
914.906	14689
915.019	14716
915.132	14568
915.245	14606
915.358	14689
915.47	14629
915.583	14590
915.696	14587
915.809	14769
915.921	14739
916.034	14598
916.146	14480
916.259	14511
916.371	14571
916.483	14537
916.595	14499
916.708	14507
916.82	14480
916.932	14446
917.044	14385
917.156	14362
917.268	14351
917.38	14248
917.491	14309
917.603	14286
917.715	14324
917.826	14396
917.938	14305
918.049	14130
918.161	14195
918.272	14332
918.384	14351
918.495	14187
918.606	14214
918.717	14035
918.828	14180
918.939	14069
919.05	13932
919.161	14046
919.272	13890
919.383	13921
919.494	14077
919.604	14244
919.715	13970
919.826	13921
919.936	13986
920.047	14062
920.157	14043
920.267	14183
920.378	13993
920.488	13978
920.598	14278
920.708	14221
920.818	14202
920.928	14123
921.038	14358
921.148	14339
921.258	13909
921.368	13879
921.477	13788
921.587	13674
921.697	13628
921.806	13769
921.916	13704
922.025	13510
922.134	13426
922.244	13354
922.353	13441
922.462	13388
922.571	13270
922.68	13095
922.789	13129
922.898	13156
923.007	13015
923.116	13069
923.224	13069
923.333	13084
923.442	12985
923.55	12920
923.659	12993
923.767	12973
923.876	12787
923.984	12875
924.092	12806
924.201	12840
924.309	12791
924.417	12867
924.525	12719
924.633	12772
924.741	13438
924.849	12585
924.956	12719
925.064	12517
925.172	12490
925.279	12464
925.387	12551
925.494	12483
925.602	12646
925.709	12635
925.816	12407
925.924	12464
926.031	12525
926.138	12433
926.245	12422
926.352	12346
926.459	12506
926.566	12547
926.673	12357
926.779	12304
926.886	12304
926.993	12106
927.099	12148
927.206	12095
927.312	12060
927.419	12072
927.525	12110
927.631	12152
927.737	11992
927.843	11893
927.95	11847
928.056	11973
928.162	11969
928.267	12019
928.373	12616
928.479	12003
928.585	11718
928.69	11939
928.796	11874
928.901	11790
929.007	11722
929.112	11828
929.218	11726
929.323	11718
929.428	11638
929.533	11832
929.638	11558
929.743	11570
929.848	11668
929.953	11600
930.058	11482
930.163	11368
930.267	11337
930.372	11455
930.477	11345
930.581	11516
930.685	11353
930.79	11269
930.894	11296
930.998	11261
931.103	11395
931.207	11117
931.311	11022
931.415	10896
931.519	10698
931.623	10573
