Data from test_V78500241_984.txt Node
Date: Fri Mar 25 15:16:42 CST 2022
User: usil
Spectrometer: V785-0024
Trigger mode: 0
Integration Time (sec): 4.000000E-1
Scans to average: 1
Nonlinearity correction enabled: false
Boxcar width: 0
Storing dark spectrum: false
XAxis mode: Wavelengths
Number of Pixels in Spectrum: 1024
>>>>>Begin Spectral Data<<<<<
801.071	28257
801.214	28177
801.356	28097
801.499	27865
801.641	27770
801.783	27819
801.926	27934
802.068	27766
802.211	27766
802.353	27526
802.496	27393
802.638	27458
802.78	27485
802.923	27458
803.065	27477
803.208	27466
803.35	27534
803.492	27667
803.635	27641
803.777	27652
803.919	27698
804.061	27876
804.204	27671
804.346	27694
804.488	27519
804.63	27614
804.773	27504
804.915	27690
805.057	27869
805.199	27667
805.341	27717
805.483	27797
805.626	27675
805.768	27732
805.91	27857
806.052	27819
806.194	27755
806.336	27960
806.478	27823
806.62	27941
806.762	28074
806.904	28192
807.046	28322
807.188	28226
807.33	28112
807.472	28291
807.614	28166
807.756	28238
807.898	28063
808.04	27987
808.182	28150
808.324	28051
808.465	28226
808.607	28428
808.749	28550
808.891	28531
809.033	28668
809.174	28550
809.316	28497
809.458	28504
809.6	28603
809.741	28679
809.883	28603
810.025	28706
810.166	28771
810.308	28763
810.45	28710
810.591	28645
810.733	28504
810.875	28535
811.016	28401
811.158	28401
811.299	28516
811.441	28554
811.582	28630
811.724	28424
811.865	28500
812.007	28405
812.148	28557
812.29	28462
812.431	28740
812.573	28820
812.714	29041
812.855	29071
812.997	29151
813.138	29189
813.279	29181
813.421	29147
813.562	29029
813.703	28824
813.845	28778
813.986	28424
814.127	28409
814.268	28177
814.41	28249
814.551	28173
814.692	28382
814.833	28230
814.974	28211
815.115	28299
815.256	28219
815.397	28017
815.539	27960
815.68	28063
815.821	27899
815.962	28055
816.103	28086
816.244	27918
816.385	27736
816.526	27800
816.666	27679
816.807	27606
816.948	27587
817.089	27736
817.23	27538
817.371	27545
817.512	27705
817.653	27538
817.793	27466
817.934	27610
818.075	27583
818.216	27572
818.356	27424
818.497	27450
818.638	27336
818.778	27252
818.919	27249
819.06	27530
819.2	27439
819.341	27618
819.481	27481
819.622	27644
819.762	28010
819.903	27850
820.043	27720
820.184	27709
820.324	27720
820.465	27717
820.605	27717
820.746	27618
820.886	27576
821.026	27580
821.167	27530
821.307	27728
821.447	27553
821.588	27545
821.728	27344
821.868	27161
822.008	27081
822.149	26861
822.289	26967
822.429	26716
822.569	26746
822.709	26705
822.849	26636
822.99	26533
823.13	26450
823.27	26427
823.41	26423
823.55	26233
823.69	26393
823.83	26324
823.97	26252
824.11	26145
824.25	26084
824.389	26183
824.529	26290
824.669	26214
824.809	26252
824.949	26115
825.089	26252
825.228	26195
825.368	26035
825.508	26016
825.648	26027
825.787	26100
825.927	26126
826.067	26043
826.206	26039
826.346	26191
826.485	26157
826.625	26016
826.765	26199
826.904	26073
827.044	25856
827.183	25887
827.323	25841
827.462	25982
827.601	25818
827.741	25727
827.88	25784
828.02	25632
828.159	25837
828.298	25734
828.437	25822
828.577	25715
828.716	25883
828.855	25784
828.994	25605
829.134	25472
829.273	25407
829.412	25468
829.551	25411
829.69	25590
829.829	25548
829.968	25609
830.107	25685
830.246	25419
830.385	25457
830.524	25221
830.663	25194
830.802	25316
830.941	24996
831.08	25008
831.219	25198
831.357	25202
831.496	25403
831.635	25015
831.774	25042
831.913	24939
832.051	24856
832.19	24817
832.329	24882
832.467	24894
832.606	24715
832.744	24776
832.883	24867
833.022	24627
833.16	24787
833.299	24795
833.437	24821
833.576	24852
833.714	24837
833.852	24897
833.991	24776
834.129	24977
834.267	24932
834.406	24829
834.544	24837
834.682	24878
834.821	24783
834.959	25046
835.097	24779
835.235	24867
835.373	24852
835.511	24829
835.65	24783
835.788	24829
835.926	24593
836.064	24616
836.202	24479
836.34	24745
836.478	24825
836.615	24802
836.753	24730
836.891	24703
837.029	24821
837.167	24566
837.305	24566
837.443	24566
837.58	24635
837.718	24547
837.856	24544
837.993	24566
838.131	24528
838.269	24422
838.406	24448
838.544	24296
838.681	24258
838.819	24087
838.956	23942
839.094	23912
839.231	24011
839.369	24110
839.506	24395
839.643	24323
839.781	23935
839.918	23980
840.055	23965
840.193	23904
840.33	23927
840.467	23885
840.604	24018
840.742	24133
840.879	23771
841.016	23866
841.153	23741
841.29	23969
841.427	23893
841.564	23893
841.701	23870
841.838	23889
841.975	23882
842.112	23703
842.249	23756
842.385	23672
842.522	23863
842.659	23676
842.796	23649
842.933	23745
843.069	23608
843.206	23710
843.343	23680
843.479	23676
843.616	23722
843.752	23391
843.889	23497
844.025	23627
844.162	23455
844.298	23520
844.435	23356
844.571	23417
844.708	23535
844.844	23642
844.98	23573
845.117	23543
845.253	23463
845.389	23349
845.525	23280
845.661	23227
845.798	23067
845.934	23231
846.07	23200
846.206	23140
846.342	23277
846.478	23235
846.614	23010
846.75	22843
846.886	22820
847.022	23018
847.158	22869
847.294	22949
847.429	22949
847.565	22904
847.701	23060
847.837	22630
847.972	22672
848.108	22683
848.244	22786
848.379	22508
848.515	22436
848.65	22500
848.786	22436
848.921	22398
849.057	22565
849.192	22645
849.328	22455
849.463	22542
849.598	22394
849.734	22348
849.869	22272
850.004	22348
850.14	22329
850.275	22287
850.41	22219
850.545	22261
850.68	22253
850.815	22306
850.95	22246
851.085	22421
851.22	22352
851.355	22162
851.49	22249
851.625	22162
851.76	22287
851.895	22070
852.03	22101
852.165	22188
852.299	22379
852.434	22276
852.569	22101
852.703	22246
852.838	22128
852.973	22443
853.107	22306
853.242	22120
853.376	22154
853.511	22078
853.645	21960
853.78	22249
853.914	21960
854.048	21930
854.183	22067
854.317	22067
854.451	22371
854.585	22097
854.72	22124
854.854	22234
854.988	22036
855.122	22135
855.256	21926
855.39	22036
855.524	22082
855.658	22185
855.792	22097
855.926	22036
856.06	22013
856.194	22147
856.327	21941
856.461	21922
856.595	22093
856.729	21968
856.862	22093
856.996	22105
857.13	22025
857.263	22135
857.397	22112
857.53	22002
857.664	22120
857.797	22112
857.931	22207
858.064	22067
858.197	22059
858.331	21956
858.464	22029
858.597	22048
858.731	22109
858.864	21972
858.997	21987
859.13	22090
859.263	22040
859.396	22166
859.529	21975
859.662	22021
859.795	21953
859.928	21968
860.061	22253
860.194	22402
860.327	21968
860.46	22112
860.592	22169
860.725	22070
860.858	22154
860.99	22135
861.123	21953
861.256	22090
861.388	22101
861.521	22778
861.653	22032
861.786	21941
861.918	21888
862.05	21941
862.183	22093
862.315	21846
862.447	22162
862.58	21922
862.712	21789
862.844	21816
862.976	21789
863.108	21755
863.24	22086
863.372	21648
863.504	21728
863.636	21709
863.768	21838
863.9	21705
864.032	21739
864.164	21720
864.296	21846
864.428	21915
864.559	21835
864.691	21854
864.823	21789
864.954	21698
865.086	21743
865.217	21698
865.349	21564
865.48	21762
865.612	21644
865.743	21831
865.875	21679
866.006	21606
866.137	21720
866.269	21743
866.4	21625
866.531	21606
866.662	21504
866.793	21599
866.924	21686
867.055	21690
867.186	21458
867.317	21599
867.448	21538
867.579	21633
867.71	21545
867.841	21576
867.972	21580
868.103	21568
868.233	21507
868.364	21564
868.495	21538
868.625	21789
868.756	21895
868.886	21789
869.017	21827
869.147	21876
869.278	21888
869.408	21800
869.539	21808
869.669	21895
869.799	21930
869.929	21968
870.06	21899
870.19	22143
870.32	22086
870.45	22101
870.58	22242
870.71	22291
870.84	22295
870.97	22303
871.1	22242
871.23	22440
871.36	22485
871.489	22185
871.619	22382
871.749	22291
871.879	22348
872.008	22588
872.138	22413
872.267	22375
872.397	22249
872.526	22200
872.656	22112
872.785	22314
872.915	22523
873.044	22508
873.173	22421
873.303	22478
873.432	22500
873.561	22542
873.69	22455
873.819	22405
873.948	22535
874.077	22512
874.206	22500
874.335	22424
874.464	22569
874.593	22653
874.722	22649
874.851	22706
874.979	22664
875.108	22626
875.237	22717
875.365	22557
875.494	22622
875.623	22637
875.751	22641
875.88	22599
876.008	22774
876.136	22683
876.265	23067
876.393	23216
876.521	23056
876.65	23083
876.778	22965
876.906	22972
877.034	23067
877.162	22877
877.29	22938
877.418	22995
877.546	23064
877.674	22843
877.802	23006
877.93	22991
878.058	22991
878.185	22961
878.313	22930
878.441	22816
878.568	22881
878.696	22957
878.824	22923
878.951	22957
879.079	23022
879.206	23292
879.333	23113
879.461	23094
879.588	23090
879.715	23079
879.842	23151
879.97	22999
880.097	22767
880.224	22790
880.351	22972
880.478	22713
880.605	22698
880.732	22744
880.859	22930
880.986	22835
881.112	22736
881.239	22748
881.366	22519
881.493	22519
881.619	22390
881.746	22360
881.872	22455
881.999	22337
882.125	22276
882.252	22405
882.378	22314
882.505	22405
882.631	22177
882.757	22120
882.883	22166
883.01	22097
883.136	22116
883.262	21956
883.388	21888
883.514	22025
883.64	22032
883.766	21922
883.892	21800
884.018	21949
884.143	21854
884.269	21972
884.395	21743
884.52	21660
884.646	21736
884.772	21572
884.897	21614
885.023	21724
885.148	21869
885.274	21861
885.399	21808
885.524	21656
885.65	21747
885.775	21660
885.9	21629
886.025	21778
886.15	21690
886.275	21622
886.4	21637
886.525	21641
886.65	21675
886.775	21458
886.9	21686
887.025	21846
887.149	21743
887.274	21473
887.399	21549
887.523	21496
887.648	21393
887.773	21401
887.897	21557
888.021	21466
888.146	21405
888.27	21553
888.395	21591
888.519	21454
888.643	21485
888.767	21496
888.891	21355
889.015	21382
889.139	21306
889.263	21192
889.387	21363
889.511	21553
889.635	21382
889.759	21230
889.883	21211
890.006	21169
890.13	21317
890.254	21066
890.377	21207
890.501	20971
890.624	20960
890.748	21020
890.871	20975
890.995	20842
891.118	20697
891.241	20918
891.364	20868
891.488	20937
891.611	20842
891.734	20876
891.857	20785
891.98	20739
892.103	20872
892.226	20910
892.349	20758
892.471	20735
892.594	20743
892.717	20724
892.839	20716
892.962	20583
893.085	20777
893.207	20670
893.33	20701
893.452	20568
893.575	20891
893.697	20804
893.819	20815
893.941	20781
894.064	20876
894.186	20617
894.308	20621
894.43	20750
894.552	20765
894.674	20705
894.796	20625
894.918	20629
895.04	20640
895.161	20750
895.283	20640
895.405	20560
895.526	20712
895.648	20731
895.769	20762
895.891	20773
896.012	20826
896.134	20617
896.255	20716
896.376	20693
896.498	20773
896.619	20792
896.74	20743
896.861	20670
896.982	21043
897.103	21135
897.224	20982
897.345	21005
897.466	20777
897.587	20933
897.708	20994
897.828	20982
897.949	20883
898.07	20708
898.19	20777
898.311	20990
898.431	20967
898.552	20876
898.672	21036
898.792	20902
898.913	20845
899.033	20792
899.153	20678
899.273	20598
899.393	20621
899.513	20655
899.633	20667
899.753	20724
899.873	20526
899.993	20674
900.113	20617
900.232	20613
900.352	20552
900.472	20507
900.591	20328
900.711	20446
900.83	20415
900.95	20541
901.069	20457
901.189	20339
901.308	20065
901.427	19974
901.546	20024
901.665	19978
901.784	20107
901.904	19906
902.023	19681
902.141	19582
902.26	19647
902.379	19563
902.498	19449
902.617	19453
902.735	19472
902.854	19396
902.973	19510
903.091	19270
903.21	19160
903.328	19152
903.446	19019
903.565	18932
903.683	19027
903.801	18897
903.919	18962
904.038	18905
904.156	18665
904.274	18764
904.392	18749
904.51	18806
904.627	18764
904.745	18730
904.863	18783
904.981	18547
905.098	18410
905.216	18395
905.334	18426
905.451	18357
905.569	18353
905.686	18384
905.803	18395
905.921	18155
906.038	18395
906.155	18159
906.272	18053
906.389	18216
906.506	17965
906.623	17980
906.74	17889
906.857	17901
906.974	17916
907.091	17969
907.208	18174
907.324	17973
907.441	17863
907.557	17653
907.674	17570
907.79	17642
907.907	17634
908.023	17623
908.139	17619
908.256	17630
908.372	17573
908.488	17592
908.604	17421
908.72	17307
908.836	17334
908.952	17288
909.068	17417
909.184	17471
909.3	17387
909.415	17406
909.531	17307
909.647	17056
909.762	17060
909.878	17018
909.993	17105
910.108	17037
910.224	17056
910.339	16980
910.454	16934
910.57	16854
910.685	16847
910.8	17052
910.915	17067
911.03	16877
911.145	16634
911.259	16599
911.374	16729
911.489	16550
911.604	16565
911.718	16394
911.833	16519
911.947	16234
912.062	16226
912.176	16421
912.291	16413
912.405	16329
912.519	16569
912.633	16531
912.748	16413
912.862	16348
912.976	16287
913.09	16177
913.204	16116
913.318	16211
913.431	16344
913.545	16306
913.659	16299
913.772	16223
913.886	16013
914	15930
914.113	16124
914.226	16124
914.34	16059
914.453	15907
914.566	16025
914.68	15850
914.793	15907
914.906	15599
915.019	15682
915.132	15595
915.245	15572
915.358	15690
915.47	15603
915.583	15652
915.696	15603
915.809	15648
915.921	15759
916.034	15542
916.146	15408
916.259	15515
916.371	15633
916.483	15530
916.595	15332
916.708	15439
916.82	15412
916.932	15382
917.044	15439
917.156	15275
917.268	15157
917.38	15275
917.491	15161
917.603	15268
917.715	15313
917.826	15401
917.938	15119
918.049	15058
918.161	15180
918.272	15214
918.384	15298
918.495	15264
918.606	14971
918.717	14956
918.828	15020
918.939	14960
919.05	14921
919.161	15005
919.272	14788
919.383	14785
919.494	14921
919.604	15127
919.715	14979
919.826	14864
919.936	15043
920.047	14971
920.157	14906
920.267	15165
920.378	14906
920.488	14929
920.598	15108
920.708	15169
920.818	15097
920.928	15024
921.038	15165
921.148	15233
921.258	14910
921.368	14815
921.477	14731
921.587	14731
921.697	14526
921.806	14629
921.916	14606
922.025	14339
922.134	14237
922.244	14252
922.353	14275
922.462	14123
922.571	14157
922.68	13947
922.789	14020
922.898	13898
923.007	13944
923.116	13978
923.224	13868
923.333	13852
923.442	13750
923.55	13712
923.659	13769
923.767	13837
923.876	13700
923.984	13715
924.092	13529
924.201	13666
924.309	13666
924.417	13499
924.525	13533
924.633	13537
924.741	14530
924.849	13373
924.956	13533
925.064	13362
925.172	13171
925.279	13346
925.387	13304
925.494	13324
925.602	13449
925.709	13384
925.816	13266
925.924	13255
926.031	13365
926.138	13274
926.245	13244
926.352	13164
926.459	13228
926.566	13270
926.673	13149
926.779	13080
926.886	13091
926.993	12833
927.099	12848
927.206	12886
927.312	12852
927.419	12981
927.525	12772
927.631	12878
927.737	12700
927.843	12791
927.95	12582
928.056	12673
928.162	12719
928.267	12738
928.373	13263
928.479	12753
928.585	12490
928.69	12673
928.796	12684
928.901	12525
929.007	12426
929.112	12483
929.218	12559
929.323	12464
929.428	12403
929.533	12490
929.638	12277
929.743	12308
929.848	12433
929.953	12334
930.058	12251
930.163	12034
930.267	12083
930.372	12247
930.477	11973
930.581	12285
930.685	12102
930.79	12019
930.894	11942
930.998	11988
931.103	12083
931.207	11805
931.311	11672
931.415	11478
931.519	11379
931.623	11303
