Data from test_V78500241_2009.txt Node
Date: Fri Mar 25 15:23:50 CST 2022
User: usil
Spectrometer: V785-0024
Trigger mode: 0
Integration Time (sec): 4.000000E-1
Scans to average: 1
Nonlinearity correction enabled: false
Boxcar width: 0
Storing dark spectrum: false
XAxis mode: Wavelengths
Number of Pixels in Spectrum: 1024
>>>>>Begin Spectral Data<<<<<
801.071	27778
801.214	27766
801.356	27660
801.499	27367
801.641	27294
801.783	27374
801.926	27359
802.068	27374
802.211	27310
802.353	27218
802.496	27100
802.638	27150
802.78	26921
802.923	27009
803.065	26933
803.208	26952
803.35	27104
803.492	26986
803.635	27161
803.777	27123
803.919	27435
804.061	27530
804.204	27329
804.346	27077
804.488	27119
804.63	27332
804.773	27116
804.915	27108
805.057	27389
805.199	27173
805.341	27214
805.483	27351
805.626	27245
805.768	27268
805.91	27329
806.052	27291
806.194	27268
806.336	27519
806.478	27435
806.62	27336
806.762	27542
806.904	27549
807.046	27732
807.188	27595
807.33	27747
807.472	27941
807.614	27603
807.756	27667
807.898	27511
808.04	27435
808.182	27447
808.324	27743
808.465	27819
808.607	27743
808.749	27831
808.891	28090
809.033	28040
809.174	28029
809.316	27793
809.458	27930
809.6	27953
809.741	28074
809.883	28162
810.025	28329
810.166	28253
810.308	28226
810.45	28063
810.591	28185
810.733	28032
810.875	27804
811.016	27842
811.158	27766
811.299	28067
811.441	28006
811.582	27953
811.724	28017
811.865	27823
812.007	27861
812.148	27956
812.29	28070
812.431	28070
812.573	28265
812.714	28428
812.855	28363
812.997	28664
813.138	28748
813.279	28668
813.421	28428
813.562	28424
813.703	28166
813.845	28124
813.986	27994
814.127	27770
814.268	27572
814.41	27610
814.551	27629
814.692	27732
814.833	27580
814.974	27534
815.115	27663
815.256	27462
815.397	27523
815.539	27500
815.68	27443
815.821	27317
815.962	27416
816.103	27412
816.244	27268
816.385	27135
816.526	27317
816.666	27009
816.807	26933
816.948	26891
817.089	26948
817.23	26864
817.371	27017
817.512	26788
817.653	26861
817.793	26872
817.934	26933
818.075	26925
818.216	26838
818.356	26845
818.497	26811
818.638	26625
818.778	26606
818.919	26682
819.06	26739
819.2	26724
819.341	26861
819.481	27001
819.622	26994
819.762	27245
819.903	27252
820.043	27176
820.184	27062
820.324	27013
820.465	27077
820.605	26986
820.746	27024
820.886	26853
821.026	27024
821.167	26887
821.307	27036
821.447	27001
821.588	26838
821.728	26727
821.868	26518
822.008	26336
822.149	26355
822.289	26381
822.429	26229
822.569	26092
822.709	26180
822.849	25833
822.99	25860
823.13	25856
823.27	26005
823.41	25719
823.55	25613
823.69	25708
823.83	25731
823.97	25723
824.11	25594
824.25	25521
824.389	25457
824.529	25613
824.669	25597
824.809	25567
824.949	25700
825.089	25487
825.228	25529
825.368	25426
825.508	25350
825.648	25362
825.787	25472
825.927	25384
826.067	25426
826.206	25350
826.346	25426
826.485	25403
826.625	25312
826.765	25327
826.904	25419
827.044	25141
827.183	25145
827.323	25042
827.462	25217
827.601	25095
827.741	25088
827.88	25118
828.02	24928
828.159	24920
828.298	25148
828.437	25160
828.577	25031
828.716	25183
828.855	24894
828.994	24890
829.134	24730
829.273	24859
829.412	24856
829.551	24821
829.69	24779
829.829	24867
829.968	24852
830.107	24810
830.246	24890
830.385	24802
830.524	24627
830.663	24661
830.802	24559
830.941	24422
831.08	24289
831.219	24521
831.357	24563
831.496	24627
831.635	24437
831.774	24399
831.913	24388
832.051	24171
832.19	24216
832.329	24148
832.467	24114
832.606	24102
832.744	23958
832.883	23996
833.022	23931
833.16	24133
833.299	24159
833.437	24194
833.576	24213
833.714	24125
833.852	24213
833.991	24224
834.129	24224
834.267	24262
834.406	24098
834.544	24182
834.682	24072
834.821	24091
834.959	24422
835.097	24167
835.235	24209
835.373	24133
835.511	24041
835.65	23916
835.788	23973
835.926	23897
836.064	23771
836.202	23832
836.34	24083
836.478	24038
836.615	24018
836.753	23958
836.891	24011
837.029	24087
837.167	23889
837.305	23889
837.443	23965
837.58	23935
837.718	23866
837.856	23958
837.993	23714
838.131	23836
838.269	23710
838.406	23851
838.544	23596
838.681	23444
838.819	23414
838.956	23322
839.094	23406
839.231	23379
839.369	23429
839.506	23630
839.643	23497
839.781	23250
839.918	23216
840.055	23322
840.193	23239
840.33	23235
840.467	23231
840.604	23197
840.742	23421
840.879	23064
841.016	23060
841.153	23140
841.29	23288
841.427	23242
841.564	23204
841.701	23185
841.838	23151
841.975	23048
842.112	23124
842.249	23170
842.385	22995
842.522	23265
842.659	23090
842.796	23033
842.933	23003
843.069	23048
843.206	22889
843.343	23136
843.479	22908
843.616	22953
843.752	22911
843.889	22774
844.025	22824
844.162	22729
844.298	22904
844.435	22771
844.571	22736
844.708	22706
844.844	22927
844.98	22961
845.117	22835
845.253	22698
845.389	22653
845.525	22649
845.661	22542
845.798	22470
845.934	22527
846.07	22421
846.206	22470
846.342	22497
846.478	22394
846.614	22337
846.75	22306
846.886	22265
847.022	22268
847.158	22261
847.294	22265
847.429	22200
847.565	22234
847.701	22405
847.837	21937
847.972	21827
848.108	21991
848.244	21922
848.379	21808
848.515	21926
848.65	21724
848.786	21747
848.921	21728
849.057	22048
849.192	21994
849.328	21861
849.463	21797
849.598	21751
849.734	21732
849.869	21595
850.004	21549
850.14	21667
850.275	21549
850.41	21538
850.545	21462
850.68	21549
850.815	21648
850.95	21466
851.085	21808
851.22	21530
851.355	21583
851.49	21564
851.625	21538
851.76	21549
851.895	21515
852.03	21534
852.165	21618
852.299	21572
852.434	21553
852.569	21553
852.703	21629
852.838	21583
852.973	21648
853.107	21701
853.242	21477
853.376	21367
853.511	21256
853.645	21386
853.78	21507
853.914	21386
854.048	21332
854.183	21325
854.317	21420
854.451	21583
854.585	21351
854.72	21454
854.854	21549
854.988	21344
855.122	21306
855.256	21199
855.39	21447
855.524	21496
855.658	21447
855.792	21298
855.926	21374
856.06	21466
856.194	21526
856.327	21317
856.461	21325
856.595	21370
856.729	21355
856.862	21416
856.996	21462
857.13	21389
857.263	21511
857.397	21367
857.53	21374
857.664	21340
857.797	21393
857.931	21488
858.064	21378
858.197	21526
858.331	21340
858.464	21348
858.597	21310
858.731	21302
858.864	21393
858.997	21374
859.13	21469
859.263	21336
859.396	21557
859.529	21431
859.662	21325
859.795	21233
859.928	21523
860.061	21561
860.194	21644
860.327	21496
860.46	21507
860.592	21549
860.725	21515
860.858	21652
860.99	21397
861.123	21161
861.256	21230
861.388	21374
861.521	22135
861.653	21294
861.786	21070
861.918	21279
862.05	21252
862.183	21313
862.315	21351
862.447	21420
862.58	21252
862.712	21233
862.844	21089
862.976	21245
863.108	21192
863.24	21595
863.372	21047
863.504	21070
863.636	21051
863.768	21001
863.9	21123
864.032	21020
864.164	21135
864.296	21195
864.428	21272
864.559	21173
864.691	21218
864.823	21032
864.954	21127
865.086	21100
865.217	20952
865.349	20857
865.48	21001
865.612	20990
865.743	21112
865.875	20979
866.006	20918
866.137	20921
866.269	20948
866.4	21036
866.531	20853
866.662	20880
866.793	20849
866.924	20834
867.055	21024
867.186	21051
867.317	20861
867.448	20777
867.579	20921
867.71	20819
867.841	20705
867.972	20762
868.103	20872
868.233	20891
868.364	20956
868.495	20971
868.625	21085
868.756	21294
868.886	21108
869.017	21199
869.147	21256
869.278	21336
869.408	21218
869.539	21230
869.669	21218
869.799	21252
869.929	21378
870.06	21294
870.19	21351
870.32	21363
870.45	21389
870.58	21416
870.71	21553
870.84	21667
870.97	21538
871.1	21534
871.23	21690
871.36	21793
871.489	21587
871.619	21728
871.749	21694
871.879	21701
872.008	21835
872.138	21743
872.267	21827
872.397	21667
872.526	21481
872.656	21614
872.785	21561
872.915	21911
873.044	21876
873.173	21736
873.303	21880
873.432	21713
873.561	21854
873.69	21804
873.819	21800
873.948	21842
874.077	21705
874.206	21759
874.335	21759
874.464	21892
874.593	21865
874.722	21964
874.851	22055
874.979	22029
875.108	22101
875.237	22048
875.365	21884
875.494	21892
875.623	22002
875.751	21998
875.88	22040
876.008	22139
876.136	22109
876.265	22379
876.393	22546
876.521	22474
876.65	22455
876.778	22413
876.906	22405
877.034	22322
877.162	22394
877.29	22322
877.418	22371
877.546	22360
877.674	22299
877.802	22325
877.93	22325
878.058	22295
878.185	22207
878.313	22329
878.441	22318
878.568	22147
878.696	22299
878.824	22367
878.951	22386
879.079	22531
879.206	22577
879.333	22641
879.461	22219
879.588	22580
879.715	22542
879.842	22554
879.97	22371
880.097	22200
880.224	22147
880.351	22162
880.478	22306
880.605	22131
880.732	22181
880.859	22379
880.986	22154
881.112	22150
881.239	22025
881.366	21774
881.493	21816
881.619	21622
881.746	21751
881.872	21736
881.999	21622
882.125	21736
882.252	21736
882.378	21698
882.505	21713
882.631	21603
882.757	21488
882.883	21534
883.01	21416
883.136	21382
883.262	21382
883.388	21272
883.514	21450
883.64	21515
883.766	21275
883.892	21306
884.018	21188
884.143	21241
884.269	21477
884.395	21199
884.52	21051
884.646	21009
884.772	21020
884.897	20937
885.023	21001
885.148	21214
885.274	21329
885.399	21176
885.524	21085
885.65	21051
885.775	21131
885.9	21085
886.025	21218
886.15	21089
886.275	21138
886.4	21093
886.525	21077
886.65	21017
886.775	20861
886.9	21233
887.025	21302
887.149	21119
887.274	20944
887.399	20849
887.523	20883
887.648	20823
887.773	20705
887.897	20979
888.021	20910
888.146	20872
888.27	20857
888.395	20960
888.519	20918
888.643	20788
888.767	20883
888.891	20758
889.015	20625
889.139	20648
889.263	20613
889.387	20792
889.511	20826
889.635	20807
889.759	20640
889.883	20602
890.006	20556
890.13	20830
890.254	20629
890.377	20511
890.501	20446
890.624	20389
890.748	20537
890.871	20256
890.995	20259
891.118	20039
891.241	20199
891.364	20221
891.488	20278
891.611	20176
891.734	20244
891.857	20183
891.98	20138
892.103	20343
892.226	20161
892.349	20145
892.471	19913
892.594	20119
892.717	20134
892.839	20142
892.962	20153
893.085	20221
893.207	20187
893.33	19989
893.452	20020
893.575	20218
893.697	20031
893.819	20294
893.941	20400
894.064	20240
894.186	20043
894.308	19978
894.43	20130
894.552	20259
894.674	20187
894.796	20126
894.918	20065
895.04	20031
895.161	20206
895.283	20202
895.405	19997
895.526	20103
895.648	20081
895.769	20107
895.891	20149
896.012	20161
896.134	20081
896.255	20016
896.376	20050
896.498	20050
896.619	20176
896.74	20100
896.861	20244
896.982	20503
897.103	20450
897.224	20347
897.345	20244
897.466	20278
897.587	20389
897.708	20454
897.828	20252
897.949	20252
898.07	20096
898.19	20286
898.311	20393
898.431	20351
898.552	20336
898.672	20454
898.792	20347
898.913	20370
899.033	20324
899.153	20088
899.273	20027
899.393	20191
899.513	20202
899.633	20115
899.753	20065
899.873	20035
899.993	20183
900.113	20020
900.232	20031
900.352	20001
900.472	19906
900.591	19833
900.711	19799
900.83	19871
900.95	19970
901.069	19959
901.189	19776
901.308	19506
901.427	19422
901.546	19392
901.665	19434
901.784	19495
901.904	19343
902.023	19266
902.141	19088
902.26	18932
902.379	19042
902.498	19008
902.617	18909
902.735	18848
902.854	18920
902.973	18875
903.091	18616
903.21	18661
903.328	18631
903.446	18639
903.565	18502
903.683	18410
903.801	18426
903.919	18353
904.038	18437
904.156	18239
904.274	18300
904.392	18129
904.51	18087
904.627	18148
904.745	18262
904.863	18251
904.981	17901
905.098	17752
905.216	17851
905.334	17817
905.451	17908
905.569	17836
905.686	17878
905.803	17824
905.921	17608
906.038	17752
906.155	17630
906.272	17551
906.389	17547
906.506	17433
906.623	17463
906.74	17299
906.857	17299
906.974	17292
907.091	17520
907.208	17512
907.324	17387
907.441	17273
907.557	17239
907.674	17121
907.79	17083
907.907	17105
908.023	17159
908.139	17197
908.256	17064
908.372	16984
908.488	16976
908.604	16923
908.72	16923
908.836	16801
908.952	16816
909.068	16824
909.184	16911
909.3	16835
909.415	16835
909.531	16835
909.647	16535
909.762	16618
909.878	16607
909.993	16436
910.108	16554
910.224	16565
910.339	16504
910.454	16375
910.57	16413
910.685	16223
910.8	16615
910.915	16546
911.03	16398
911.145	16154
911.259	16135
911.374	16223
911.489	16017
911.604	16051
911.718	15854
911.833	15876
911.947	15819
912.062	15686
912.176	15823
912.291	15918
912.405	15861
912.519	16036
912.633	16082
912.748	16078
912.862	15873
912.976	15713
913.09	15644
913.204	15759
913.318	15709
913.431	15804
913.545	15713
913.659	15819
913.772	15591
913.886	15610
914	15530
914.113	15599
914.226	15728
914.34	15618
914.453	15374
914.566	15523
914.68	15348
914.793	15389
914.906	15146
915.019	15066
915.132	15116
915.245	15112
915.358	15036
915.47	15077
915.583	15157
915.696	15123
915.809	15142
915.921	15207
916.034	15077
916.146	15009
916.259	14967
916.371	15047
916.483	15028
916.595	14872
916.708	14918
916.82	14929
916.932	14895
917.044	14921
917.156	14811
917.268	14788
917.38	14792
917.491	14693
917.603	14861
917.715	14830
917.826	14861
917.938	14613
918.049	14651
918.161	14682
918.272	14804
918.384	14823
918.495	14727
918.606	14564
918.717	14556
918.828	14560
918.939	14537
919.05	14461
919.161	14434
919.272	14313
919.383	14396
919.494	14530
919.604	14727
919.715	14549
919.826	14450
919.936	14389
920.047	14552
920.157	14556
920.267	14727
920.378	14549
920.488	14469
920.598	14598
920.708	14739
920.818	14583
920.928	14514
921.038	14743
921.148	14769
921.258	14465
921.368	14404
921.477	14301
921.587	14172
921.697	14020
921.806	14237
921.916	14111
922.025	13879
922.134	13822
922.244	13875
922.353	13852
922.462	13757
922.571	13639
922.68	13434
922.789	13556
922.898	13571
923.007	13411
923.116	13525
923.224	13491
923.333	13460
923.442	13316
923.55	13297
923.659	13335
923.767	13392
923.876	13343
923.984	13339
924.092	13297
924.201	13308
924.309	13270
924.417	13255
924.525	13202
924.633	13244
924.741	13936
924.849	13038
924.956	12996
925.064	12989
925.172	12859
925.279	12935
925.387	12863
925.494	12901
925.602	12951
925.709	12916
925.816	12848
925.924	12878
926.031	13034
926.138	12882
926.245	12920
926.352	12798
926.459	12935
926.566	12935
926.673	12711
926.779	12696
926.886	12631
926.993	12570
927.099	12486
927.206	12452
927.312	12452
927.419	12563
927.525	12509
927.631	12445
927.737	12391
927.843	12403
927.95	12243
928.056	12300
928.162	12464
928.267	12273
928.373	12886
928.479	12418
928.585	12201
928.69	12224
928.796	12289
928.901	12129
929.007	12057
929.112	12220
929.218	12182
929.323	12053
929.428	12053
929.533	12148
929.638	11897
929.743	12072
929.848	11973
929.953	11980
930.058	11885
930.163	11718
930.267	11745
930.372	11923
930.477	11771
930.581	11859
930.685	11745
930.79	11608
930.894	11585
930.998	11623
931.103	11691
931.207	11296
931.311	11326
931.415	11174
931.519	11140
931.623	10953
