Data from test_V78500241_1813.txt Node
Date: Fri Mar 25 15:22:28 CST 2022
User: usil
Spectrometer: V785-0024
Trigger mode: 0
Integration Time (sec): 4.000000E-1
Scans to average: 1
Nonlinearity correction enabled: false
Boxcar width: 0
Storing dark spectrum: false
XAxis mode: Wavelengths
Number of Pixels in Spectrum: 1024
>>>>>Begin Spectral Data<<<<<
801.071	27804
801.214	27827
801.356	27599
801.499	27367
801.641	27378
801.783	27427
801.926	27488
802.068	27321
802.211	27431
802.353	27283
802.496	27104
802.638	27058
802.78	26914
802.923	26925
803.065	26895
803.208	26948
803.35	26933
803.492	27036
803.635	27169
803.777	27055
803.919	27165
804.061	27572
804.204	27211
804.346	27192
804.488	27077
804.63	27188
804.773	27180
804.915	27245
805.057	27382
805.199	27218
805.341	27416
805.483	27332
805.626	27275
805.768	27302
805.91	27241
806.052	27336
806.194	27310
806.336	27595
806.478	27340
806.62	27427
806.762	27507
806.904	27663
807.046	27835
807.188	27778
807.33	27797
807.472	27846
807.614	27857
807.756	27667
807.898	27629
808.04	27618
808.182	27587
808.324	27739
808.465	27736
808.607	27869
808.749	28063
808.891	28013
809.033	28051
809.174	27880
809.316	27892
809.458	27888
809.6	27949
809.741	28109
809.883	28101
810.025	28417
810.166	28249
810.308	28287
810.45	28249
810.591	28059
810.733	27911
810.875	27998
811.016	27823
811.158	27865
811.299	27926
811.441	28029
811.582	28074
811.724	27926
811.865	27979
812.007	27934
812.148	27827
812.29	28006
812.431	28196
812.573	28333
812.714	28348
812.855	28535
812.997	28618
813.138	28675
813.279	28630
813.421	28542
813.562	28497
813.703	28398
813.845	28314
813.986	27869
814.127	27759
814.268	27622
814.41	27682
814.551	27545
814.692	27637
814.833	27542
814.974	27610
815.115	27705
815.256	27599
815.397	27477
815.539	27481
815.68	27542
815.821	27401
815.962	27507
816.103	27431
816.244	27275
816.385	27249
816.526	27192
816.666	27024
816.807	26925
816.948	27062
817.089	27138
817.23	27009
817.371	26914
817.512	26868
817.653	26914
817.793	26842
817.934	26971
818.075	26944
818.216	26982
818.356	26940
818.497	26880
818.638	26697
818.778	26670
818.919	26636
819.06	26750
819.2	26880
819.341	26804
819.481	26899
819.622	27058
819.762	27256
819.903	27256
820.043	27028
820.184	27127
820.324	27001
820.465	27127
820.605	27085
820.746	27157
820.886	26940
821.026	27081
821.167	27013
821.307	27096
821.447	27020
821.588	26887
821.728	26724
821.868	26712
822.008	26404
822.149	26415
822.289	26343
822.429	26172
822.569	26073
822.709	26294
822.849	25898
822.99	25932
823.13	25875
823.27	25944
823.41	25712
823.55	25647
823.69	25738
823.83	25731
823.97	25544
824.11	25552
824.25	25616
824.389	25590
824.529	25731
824.669	25639
824.809	25769
824.949	25723
825.089	25575
825.228	25655
825.368	25468
825.508	25544
825.648	25354
825.787	25453
825.927	25540
826.067	25396
826.206	25445
826.346	25407
826.485	25445
826.625	25563
826.765	25491
826.904	25434
827.044	25255
827.183	25240
827.323	25232
827.462	25160
827.601	25095
827.741	25114
827.88	25232
828.02	25175
828.159	25050
828.298	25118
828.437	25156
828.577	25168
828.716	25240
828.855	25012
828.994	24840
829.134	24924
829.273	24833
829.412	24791
829.551	24859
829.69	24844
829.829	24916
829.968	24970
830.107	24890
830.246	24905
830.385	24924
830.524	24806
830.663	24654
830.802	24650
830.941	24502
831.08	24350
831.219	24536
831.357	24555
831.496	24821
831.635	24452
831.774	24551
831.913	24342
832.051	24228
832.19	24266
832.329	24346
832.467	24270
832.606	24194
832.744	24235
832.883	24247
833.022	24083
833.16	24133
833.299	24129
833.437	24140
833.576	24346
833.714	24205
833.852	24323
833.991	24262
834.129	24323
834.267	24159
834.406	24262
834.544	24323
834.682	24228
834.821	24224
834.959	24319
835.097	24216
835.235	24205
835.373	24133
835.511	24140
835.65	24095
835.788	23973
835.926	23954
836.064	23779
836.202	23939
836.34	24171
836.478	24072
836.615	24083
836.753	24068
836.891	24102
837.029	23977
837.167	24007
837.305	23931
837.443	24003
837.58	23969
837.718	23885
837.856	23958
837.993	23798
838.131	23927
838.269	23805
838.406	23824
838.544	23737
838.681	23543
838.819	23478
838.956	23379
839.094	23547
839.231	23459
839.369	23436
839.506	23870
839.643	23577
839.781	23486
839.918	23315
840.055	23440
840.193	23303
840.33	23398
840.467	23273
840.604	23330
840.742	23570
840.879	23242
841.016	23223
841.153	23258
841.29	23425
841.427	23395
841.564	23311
841.701	23288
841.838	23193
841.975	23318
842.112	23128
842.249	23128
842.385	22991
842.522	23174
842.659	23185
842.796	23041
842.933	23102
843.069	22972
843.206	23037
843.343	23079
843.479	23029
843.616	23121
843.752	22839
843.889	22877
844.025	23067
844.162	22904
844.298	22968
844.435	22946
844.571	22793
844.708	22801
844.844	22965
844.98	22987
845.117	22946
845.253	22774
845.389	22820
845.525	22748
845.661	22717
845.798	22611
845.934	22645
846.07	22523
846.206	22618
846.342	22618
846.478	22660
846.614	22375
846.75	22249
846.886	22234
847.022	22367
847.158	22219
847.294	22352
847.429	22314
847.565	22226
847.701	22653
847.837	22150
847.972	22040
848.108	22173
848.244	22086
848.379	22010
848.515	21987
848.65	21766
848.786	21823
848.921	21907
849.057	21987
849.192	22059
849.328	21979
849.463	21975
849.598	21907
849.734	21766
849.869	21789
850.004	21675
850.14	21709
850.275	21762
850.41	21736
850.545	21568
850.68	21629
850.815	21603
850.95	21652
851.085	21831
851.22	21816
851.355	21728
851.49	21812
851.625	21595
851.76	21736
851.895	21564
852.03	21538
852.165	21682
852.299	21709
852.434	21778
852.569	21724
852.703	21603
852.838	21755
852.973	21915
853.107	21797
853.242	21656
853.376	21431
853.511	21405
853.645	21469
853.78	21603
853.914	21511
854.048	21603
854.183	21530
854.317	21534
854.451	21652
854.585	21606
854.72	21393
854.854	21466
854.988	21477
855.122	21561
855.256	21348
855.39	21504
855.524	21637
855.658	21603
855.792	21534
855.926	21507
856.06	21561
856.194	21530
856.327	21492
856.461	21408
856.595	21397
856.729	21511
856.862	21542
856.996	21431
857.13	21572
857.263	21633
857.397	21469
857.53	21504
857.664	21515
857.797	21572
857.931	21469
858.064	21675
858.197	21644
858.331	21473
858.464	21462
858.597	21325
858.731	21351
858.864	21462
858.997	21405
859.13	21416
859.263	21568
859.396	21625
859.529	21428
859.662	21458
859.795	21458
859.928	21538
860.061	21553
860.194	21793
860.327	21466
860.46	21416
860.592	21637
860.725	21637
860.858	21622
860.99	21420
861.123	21393
861.256	21363
861.388	21492
861.521	22055
861.653	21291
861.786	21348
861.918	21370
862.05	21511
862.183	21397
862.315	21500
862.447	21431
862.58	21386
862.712	21207
862.844	21093
862.976	21367
863.108	21287
863.24	21618
863.372	21188
863.504	21146
863.636	21298
863.768	21226
863.9	21233
864.032	21131
864.164	21096
864.296	21325
864.428	21313
864.559	21214
864.691	21306
864.823	21180
864.954	21161
865.086	21180
865.217	21119
865.349	21020
865.48	21176
865.612	21024
865.743	21230
865.875	21157
866.006	20963
866.137	21039
866.269	20899
866.4	21146
866.531	20918
866.662	20979
866.793	20967
866.924	21043
867.055	21039
867.186	20979
867.317	20887
867.448	20906
867.579	20910
867.71	21036
867.841	20956
867.972	20975
868.103	21017
868.233	21077
868.364	21043
868.495	21135
868.625	21165
868.756	21272
868.886	21180
869.017	21176
869.147	21332
869.278	21332
869.408	21241
869.539	21142
869.669	21355
869.799	21298
869.929	21405
870.06	21298
870.19	21561
870.32	21458
870.45	21709
870.58	21755
870.71	21739
870.84	21759
870.97	21701
871.1	21694
871.23	21876
871.36	21842
871.489	21827
871.619	21892
871.749	21797
871.879	21972
872.008	21991
872.138	21827
872.267	21838
872.397	21778
872.526	21644
872.656	21641
872.785	21690
872.915	21918
873.044	21975
873.173	21907
873.303	21979
873.432	21968
873.561	22059
873.69	21880
873.819	21903
873.948	21873
874.077	21827
874.206	21800
874.335	21949
874.464	22040
874.593	22093
874.722	22090
874.851	22147
874.979	22196
875.108	22166
875.237	22002
875.365	21994
875.494	22105
875.623	22143
875.751	22097
875.88	22226
876.008	22223
876.136	22314
876.265	22500
876.393	22462
876.521	22622
876.65	22573
876.778	22516
876.906	22485
877.034	22394
877.162	22428
877.29	22386
877.418	22367
877.546	22432
877.674	22421
877.802	22451
877.93	22497
878.058	22398
878.185	22409
878.313	22348
878.441	22508
878.568	22333
878.696	22333
878.824	22455
878.951	22527
879.079	22588
879.206	22752
879.333	22634
879.461	22542
879.588	22626
879.715	22531
879.842	22733
879.97	22500
880.097	22375
880.224	22333
880.351	22253
880.478	22253
880.605	22242
880.732	22131
880.859	22394
880.986	22310
881.112	22249
881.239	22169
881.366	22032
881.493	21991
881.619	21800
881.746	21930
881.872	21941
881.999	21831
882.125	21789
882.252	21842
882.378	21823
882.505	21987
882.631	21679
882.757	21401
882.883	21534
883.01	21519
883.136	21488
883.262	21431
883.388	21435
883.514	21488
883.64	21557
883.766	21428
883.892	21386
884.018	21370
884.143	21530
884.269	21583
884.395	21348
884.52	21127
884.646	21252
884.772	21188
884.897	21020
885.023	21119
885.148	21260
885.274	21291
885.399	21287
885.524	21096
885.65	21192
885.775	21180
885.9	21207
886.025	21237
886.15	21237
886.275	21135
886.4	21180
886.525	21192
886.65	21093
886.775	21100
886.9	21294
887.025	21348
887.149	21214
887.274	21077
887.399	20857
887.523	21036
887.648	20868
887.773	20815
887.897	21020
888.021	21001
888.146	20899
888.27	21043
888.395	20979
888.519	20990
888.643	21001
888.767	20998
888.891	20906
889.015	20750
889.139	20792
889.263	20914
889.387	20845
889.511	20838
889.635	20902
889.759	20845
889.883	20716
890.006	20746
890.13	20750
890.254	20590
890.377	20674
890.501	20571
890.624	20415
890.748	20530
890.871	20404
890.995	20328
891.118	20237
891.241	20408
891.364	20233
891.488	20465
891.611	20374
891.734	20351
891.857	20389
891.98	20187
892.103	20294
892.226	20309
892.349	20176
892.471	20153
892.594	20199
892.717	20267
892.839	20336
892.962	20271
893.085	20298
893.207	20278
893.33	20081
893.452	20206
893.575	20168
893.697	20214
893.819	20286
893.941	20457
894.064	20385
894.186	20092
894.308	20084
894.43	20317
894.552	20336
894.674	20294
894.796	20111
894.918	20271
895.04	20107
895.161	20210
895.283	20358
895.405	20111
895.526	20142
895.648	20252
895.769	20347
895.891	20187
896.012	20271
896.134	20259
896.255	20282
896.376	20263
896.498	20202
896.619	20324
896.74	20278
896.861	20252
896.982	20488
897.103	20632
897.224	20560
897.345	20415
897.466	20355
897.587	20358
897.708	20575
897.828	20575
897.949	20415
898.07	20199
898.19	20419
898.311	20457
898.431	20324
898.552	20225
898.672	20419
898.792	20446
898.913	20408
899.033	20233
899.153	20100
899.273	20111
899.393	20237
899.513	20214
899.633	20126
899.753	20183
899.873	20073
899.993	20168
900.113	20103
900.232	20054
900.352	20046
900.472	20062
900.591	19940
900.711	19913
900.83	19913
900.95	19986
901.069	19993
901.189	19693
901.308	19655
901.427	19521
901.546	19441
901.665	19483
901.784	19430
901.904	19301
902.023	19312
902.141	19050
902.26	19122
902.379	19145
902.498	18993
902.617	18947
902.735	19004
902.854	18943
902.973	19057
903.091	18700
903.21	18749
903.328	18844
903.446	18585
903.565	18616
903.683	18566
903.801	18376
903.919	18517
904.038	18399
904.156	18209
904.274	18422
904.392	18350
904.51	18220
904.627	18186
904.745	18232
904.863	18235
904.981	18045
905.098	17901
905.216	17969
905.334	17999
905.451	18041
905.569	17885
905.686	17965
905.803	17901
905.921	17843
906.038	17946
906.155	17729
906.272	17615
906.389	17672
906.506	17653
906.623	17547
906.74	17497
906.857	17368
906.974	17360
907.091	17539
907.208	17676
907.324	17505
907.441	17345
907.557	17261
907.674	17200
907.79	17105
907.907	17143
908.023	17162
908.139	17288
908.256	17098
908.372	17102
908.488	17132
908.604	16953
908.72	16869
908.836	16854
908.952	16805
909.068	16915
909.184	16995
909.3	16889
909.415	16965
909.531	16877
909.647	16630
909.762	16679
909.878	16561
909.993	16733
910.108	16577
910.224	16569
910.339	16607
910.454	16478
910.57	16390
910.685	16424
910.8	16645
910.915	16558
911.03	16451
911.145	16306
911.259	16333
911.374	16192
911.489	16177
911.604	16071
911.718	16006
911.833	16044
911.947	15934
912.062	15876
912.176	15911
912.291	15983
912.405	15903
912.519	16139
912.633	16036
912.748	15979
912.862	16010
912.976	15808
913.09	15717
913.204	15800
913.318	15823
913.431	15907
913.545	15903
913.659	15892
913.772	15663
913.886	15652
914	15496
914.113	15606
914.226	15686
914.34	15606
914.453	15477
914.566	15534
914.68	15458
914.793	15454
914.906	15226
915.019	15192
915.132	15123
915.245	15180
915.358	15291
915.47	15230
915.583	15199
915.696	15093
915.809	15386
915.921	15313
916.034	15150
916.146	15047
916.259	15062
916.371	15127
916.483	15146
916.595	15146
916.708	15062
916.82	14967
916.932	15074
917.044	15001
917.156	14937
917.268	14830
917.38	14868
917.491	14864
917.603	14838
917.715	14910
917.826	14929
917.938	14830
918.049	14670
918.161	14842
918.272	14857
918.384	14864
918.495	14739
918.606	14674
918.717	14533
918.828	14568
918.939	14663
919.05	14499
919.161	14564
919.272	14290
919.383	14358
919.494	14651
919.604	14648
919.715	14674
919.826	14473
919.936	14503
920.047	14537
920.157	14602
920.267	14876
920.378	14594
920.488	14526
920.598	14682
920.708	14899
920.818	14644
920.928	14610
921.038	14804
921.148	14800
921.258	14537
921.368	14385
921.477	14301
921.587	14256
921.697	14157
921.806	14355
921.916	14084
922.025	14096
922.134	14054
922.244	13894
922.353	13982
922.462	13795
922.571	13651
922.68	13548
922.789	13605
922.898	13632
923.007	13552
923.116	13620
923.224	13457
923.333	13521
923.442	13540
923.55	13316
923.659	13411
923.767	13453
923.876	13392
923.984	13415
924.092	13270
924.201	13308
924.309	13346
924.417	13312
924.525	13304
924.633	13285
924.741	14149
924.849	13050
924.956	13141
925.064	12977
925.172	12954
925.279	12989
925.387	13046
925.494	12962
925.602	13061
925.709	13057
925.816	12939
925.924	12882
926.031	13008
926.138	12821
926.245	13004
926.352	12848
926.459	12867
926.566	13103
926.673	12878
926.779	12726
926.886	12734
926.993	12601
927.099	12578
927.206	12509
927.312	12467
927.419	12544
927.525	12566
927.631	12582
927.737	12437
927.843	12353
927.95	12338
928.056	12369
928.162	12433
928.267	12357
928.373	12970
928.479	12369
928.585	12228
928.69	12247
928.796	12407
928.901	12296
929.007	12087
929.112	12270
929.218	12152
929.323	12106
929.428	12068
929.533	12235
929.638	12049
929.743	11946
929.848	12129
929.953	12064
930.058	12011
930.163	11859
930.267	11726
930.372	11893
930.477	11790
930.581	11999
930.685	11859
930.79	11691
930.894	11688
930.998	11619
931.103	11767
931.207	11516
931.311	11337
931.415	11235
931.519	11003
931.623	11033
