Data from test_V78500241_2023.txt Node
Date: Fri Mar 25 15:23:56 CST 2022
User: usil
Spectrometer: V785-0024
Trigger mode: 0
Integration Time (sec): 4.000000E-1
Scans to average: 1
Nonlinearity correction enabled: false
Boxcar width: 0
Storing dark spectrum: false
XAxis mode: Wavelengths
Number of Pixels in Spectrum: 1024
>>>>>Begin Spectral Data<<<<<
801.071	27899
801.214	27766
801.356	27583
801.499	27473
801.641	27431
801.783	27397
801.926	27477
802.068	27370
802.211	27241
802.353	27169
802.496	27020
802.638	26963
802.78	27127
802.923	26944
803.065	26845
803.208	26963
803.35	27100
803.492	27085
803.635	27363
803.777	27142
803.919	27325
804.061	27542
804.204	27268
804.346	27131
804.488	27100
804.63	27264
804.773	27222
804.915	27207
805.057	27378
805.199	27237
805.341	27382
805.483	27355
805.626	27420
805.768	27192
805.91	27485
806.052	27382
806.194	27157
806.336	27671
806.478	27568
806.62	27214
806.762	27458
806.904	27553
807.046	27892
807.188	27793
807.33	27724
807.472	27804
807.614	27785
807.756	27800
807.898	27675
808.04	27648
808.182	27591
808.324	27595
808.465	27568
808.607	28006
808.749	27983
808.891	28048
809.033	28196
809.174	28173
809.316	27914
809.458	28059
809.6	28048
809.741	28090
809.883	28154
810.025	28219
810.166	28352
810.308	28322
810.45	28276
810.591	28166
810.733	27911
810.875	27994
811.016	27949
811.158	27876
811.299	28166
811.441	28082
811.582	28002
811.724	27998
811.865	27873
812.007	27979
812.148	27937
812.29	28097
812.431	28169
812.573	28234
812.714	28356
812.855	28451
812.997	28588
813.138	28611
813.279	28687
813.421	28561
813.562	28478
813.703	28246
813.845	28166
813.986	28063
814.127	27762
814.268	27610
814.41	27743
814.551	27732
814.692	27701
814.833	27701
814.974	27759
815.115	27724
815.256	27667
815.397	27561
815.539	27496
815.68	27355
815.821	27443
815.962	27614
816.103	27553
816.244	27325
816.385	27256
816.526	27199
816.666	27169
816.807	27017
816.948	27039
817.089	27051
817.23	26963
817.371	26986
817.512	26944
817.653	26940
817.793	26960
817.934	26948
818.075	26971
818.216	26982
818.356	26872
818.497	26925
818.638	26625
818.778	26826
818.919	26686
819.06	26861
819.2	26811
819.341	26910
819.481	26929
819.622	27184
819.762	27241
819.903	27180
820.043	27165
820.184	27108
820.324	27192
820.465	27104
820.605	27150
820.746	26868
820.886	26906
821.026	27024
821.167	27020
821.307	27032
821.447	27032
821.588	26940
821.728	26648
821.868	26568
822.008	26537
822.149	26423
822.289	26450
822.429	26199
822.569	26027
822.709	26100
822.849	26031
822.99	26107
823.13	25776
823.27	25913
823.41	25677
823.55	25658
823.69	25776
823.83	25833
823.97	25712
824.11	25605
824.25	25521
824.389	25578
824.529	25605
824.669	25586
824.809	25746
824.949	25681
825.089	25533
825.228	25571
825.368	25571
825.508	25415
825.648	25491
825.787	25438
825.927	25411
826.067	25377
826.206	25449
826.346	25403
826.485	25479
826.625	25445
826.765	25609
826.904	25590
827.044	25137
827.183	25190
827.323	25217
827.462	25343
827.601	25289
827.741	25133
827.88	25126
828.02	25050
828.159	25141
828.298	25183
828.437	25316
828.577	25133
828.716	25411
828.855	25084
828.994	24970
829.134	25000
829.273	24829
829.412	24970
829.551	24856
829.69	24920
829.829	24981
829.968	24947
830.107	24909
830.246	24848
830.385	24776
830.524	24776
830.663	24521
830.802	24639
830.941	24547
831.08	24471
831.219	24528
831.357	24604
831.496	24597
831.635	24448
831.774	24467
831.913	24403
832.051	24304
832.19	24391
832.329	24414
832.467	24330
832.606	24224
832.744	24133
832.883	24228
833.022	24140
833.16	24251
833.299	24266
833.437	24266
833.576	24289
833.714	24251
833.852	24418
833.991	24380
834.129	24292
834.267	24254
834.406	24281
834.544	24190
834.682	24197
834.821	24228
834.959	24388
835.097	24091
835.235	24323
835.373	24224
835.511	24136
835.65	24129
835.788	24114
835.926	23901
836.064	23988
836.202	23942
836.34	24079
836.478	24182
836.615	23946
836.753	24064
836.891	24110
837.029	24201
837.167	23973
837.305	24030
837.443	23992
837.58	23958
837.718	23961
837.856	23920
837.993	23790
838.131	23992
838.269	23786
838.406	23817
838.544	23828
838.681	23661
838.819	23501
838.956	23421
839.094	23383
839.231	23608
839.369	23600
839.506	23676
839.643	23691
839.781	23410
839.918	23368
840.055	23474
840.193	23391
840.33	23261
840.467	23372
840.604	23337
840.742	23581
840.879	23136
841.016	23166
841.153	23136
841.29	23292
841.427	23178
841.564	23410
841.701	23181
841.838	23208
841.975	23124
842.112	23151
842.249	23044
842.385	23140
842.522	23280
842.659	23102
842.796	23090
842.933	23102
843.069	23048
843.206	22869
843.343	23166
843.479	23018
843.616	23018
843.752	22873
843.889	22900
844.025	22980
844.162	22679
844.298	22961
844.435	22858
844.571	22782
844.708	22736
844.844	22953
844.98	23044
845.117	22889
845.253	22664
845.389	22733
845.525	22698
845.661	22645
845.798	22653
845.934	22637
846.07	22500
846.206	22516
846.342	22645
846.478	22618
846.614	22493
846.75	22314
846.886	22238
847.022	22538
847.158	22322
847.294	22284
847.429	22405
847.565	22230
847.701	22557
847.837	22051
847.972	22021
848.108	22223
848.244	21991
848.379	21964
848.515	21781
848.65	21888
848.786	21941
848.921	21793
849.057	21998
849.192	21998
849.328	21895
849.463	21937
849.598	21789
849.734	21895
849.869	21759
850.004	21599
850.14	21739
850.275	21656
850.41	21576
850.545	21637
850.68	21587
850.815	21709
850.95	21675
851.085	21705
851.22	21804
851.355	21587
851.49	21622
851.625	21561
851.76	21667
851.895	21473
852.03	21412
852.165	21675
852.299	21583
852.434	21595
852.569	21656
852.703	21644
852.838	21656
852.973	21869
853.107	21785
853.242	21534
853.376	21500
853.511	21306
853.645	21458
853.78	21629
853.914	21405
854.048	21329
854.183	21447
854.317	21538
854.451	21595
854.585	21481
854.72	21473
854.854	21591
854.988	21439
855.122	21355
855.256	21317
855.39	21458
855.524	21530
855.658	21435
855.792	21564
855.926	21572
856.06	21523
856.194	21549
856.327	21466
856.461	21329
856.595	21545
856.729	21492
856.862	21507
856.996	21538
857.13	21549
857.263	21553
857.397	21542
857.53	21374
857.664	21519
857.797	21473
857.931	21583
858.064	21496
858.197	21618
858.331	21545
858.464	21363
858.597	21420
858.731	21370
858.864	21507
858.997	21492
859.13	21469
859.263	21469
859.396	21629
859.529	21564
859.662	21351
859.795	21389
859.928	21523
860.061	21591
860.194	21603
860.327	21481
860.46	21397
860.592	21614
860.725	21660
860.858	21736
860.99	21507
861.123	21447
861.256	21481
861.388	21431
861.521	22040
861.653	21306
861.786	21245
861.918	21249
862.05	21302
862.183	21443
862.315	21329
862.447	21443
862.58	21428
862.712	21192
862.844	21157
862.976	21302
863.108	21237
863.24	21500
863.372	21119
863.504	21165
863.636	21226
863.768	21157
863.9	21142
864.032	21108
864.164	21093
864.296	21119
864.428	21199
864.559	21302
864.691	21211
864.823	21287
864.954	21207
865.086	21131
865.217	21066
865.349	21070
865.48	21131
865.612	21055
865.743	21184
865.875	21127
866.006	20986
866.137	20998
866.269	21112
866.4	21039
866.531	21066
866.662	20815
866.793	20979
866.924	21043
867.055	21051
867.186	21009
867.317	20849
867.448	20994
867.579	20887
867.71	20880
867.841	20967
867.972	20929
868.103	21024
868.233	20921
868.364	21116
868.495	21089
868.625	21230
868.756	21321
868.886	21249
869.017	21218
869.147	21302
869.278	21329
869.408	21207
869.539	21252
869.669	21275
869.799	21313
869.929	21321
870.06	21310
870.19	21603
870.32	21454
870.45	21507
870.58	21572
870.71	21816
870.84	21717
870.97	21637
871.1	21614
871.23	21819
871.36	21747
871.489	21644
871.619	21690
871.749	21808
871.879	21804
872.008	21800
872.138	21808
872.267	21762
872.397	21660
872.526	21690
872.656	21759
872.785	21629
872.915	21922
873.044	21899
873.173	21869
873.303	21880
873.432	21903
873.561	21941
873.69	21922
873.819	21793
873.948	21926
874.077	21831
874.206	21838
874.335	21934
874.464	22051
874.593	22017
874.722	21991
874.851	22048
874.979	22021
875.108	22166
875.237	21991
875.365	21960
875.494	22105
875.623	22128
875.751	21994
875.88	21975
876.008	22219
876.136	22265
876.265	22489
876.393	22592
876.521	22622
876.65	22592
876.778	22421
876.906	22382
877.034	22356
877.162	22291
877.29	22356
877.418	22569
877.546	22493
877.674	22394
877.802	22348
877.93	22516
878.058	22432
878.185	22261
878.313	22417
878.441	22451
878.568	22295
878.696	22360
878.824	22405
878.951	22443
879.079	22557
879.206	22622
879.333	22516
879.461	22424
879.588	22592
879.715	22557
879.842	22713
879.97	22478
880.097	22314
880.224	22147
880.351	22196
880.478	22223
880.605	22204
880.732	22200
880.859	22542
880.986	22261
881.112	22124
881.239	22169
881.366	21972
881.493	21979
881.619	21816
881.746	21831
881.872	21846
881.999	21720
882.125	21705
882.252	21797
882.378	21838
882.505	21888
882.631	21637
882.757	21542
882.883	21561
883.01	21576
883.136	21443
883.262	21359
883.388	21355
883.514	21500
883.64	21618
883.766	21511
883.892	21222
884.018	21264
884.143	21507
884.269	21515
884.395	21207
884.52	21154
884.646	21150
884.772	21119
884.897	21119
885.023	21123
885.148	21306
885.274	21199
885.399	21230
885.524	21283
885.65	21154
885.775	21055
885.9	21043
886.025	21283
886.15	21214
886.275	21180
886.4	21009
886.525	21096
886.65	21123
886.775	21017
886.9	21119
887.025	21268
887.149	21119
887.274	21001
887.399	20716
887.523	20956
887.648	20861
887.773	20773
887.897	21013
888.021	21036
888.146	20876
888.27	20944
888.395	21051
888.519	20967
888.643	20925
888.767	20883
888.891	20902
889.015	20777
889.139	20754
889.263	20686
889.387	20712
889.511	20902
889.635	20796
889.759	20583
889.883	20746
890.006	20792
890.13	20876
890.254	20640
890.377	20609
890.501	20503
890.624	20370
890.748	20587
890.871	20381
890.995	20305
891.118	20256
891.241	20305
891.364	20313
891.488	20351
891.611	20149
891.734	20370
891.857	20332
891.98	20225
892.103	20358
892.226	20252
892.349	20256
892.471	20073
892.594	20252
892.717	20332
892.839	20301
892.962	20069
893.085	20263
893.207	20237
893.33	20119
893.452	20176
893.575	20240
893.697	20142
893.819	20336
893.941	20389
894.064	20324
894.186	20054
894.308	20199
894.43	20290
894.552	20408
894.674	20202
894.796	20134
894.918	20119
895.04	20142
895.161	20259
895.283	20248
895.405	20191
895.526	20065
895.648	20130
895.769	20229
895.891	20149
896.012	20305
896.134	20202
896.255	20107
896.376	20172
896.498	20195
896.619	20218
896.74	20278
896.861	20248
896.982	20484
897.103	20533
897.224	20454
897.345	20389
897.466	20301
897.587	20393
897.708	20583
897.828	20370
897.949	20374
898.07	20248
898.19	20195
898.311	20442
898.431	20343
898.552	20427
898.672	20339
898.792	20434
898.913	20438
899.033	20214
899.153	20218
899.273	20130
899.393	20027
899.513	20130
899.633	20180
899.753	20092
899.873	20031
899.993	20199
900.113	20012
900.232	20115
900.352	20073
900.472	20119
900.591	19917
900.711	19947
900.83	19864
900.95	20020
901.069	19864
901.189	19849
901.308	19666
901.427	19533
901.546	19411
901.665	19594
901.784	19552
901.904	19422
902.023	19255
902.141	19084
902.26	19110
902.379	19183
902.498	18973
902.617	18943
902.735	19050
902.854	18985
902.973	18985
903.091	18707
903.21	18703
903.328	18719
903.446	18528
903.565	18418
903.683	18422
903.801	18251
903.919	18300
904.038	18422
904.156	18361
904.274	18372
904.392	18281
904.51	18201
904.627	18209
904.745	18258
904.863	18384
904.981	17973
905.098	17954
905.216	17897
905.334	17878
905.451	17882
905.569	17901
905.686	17939
905.803	17893
905.921	17642
906.038	17824
906.155	17661
906.272	17600
906.389	17710
906.506	17547
906.623	17463
906.74	17490
906.857	17387
906.974	17387
907.091	17524
907.208	17592
907.324	17455
907.441	17364
907.557	17204
907.674	17216
907.79	17105
907.907	17113
908.023	17200
908.139	17170
908.256	17178
908.372	17083
908.488	17105
908.604	17014
908.72	16831
908.836	16923
908.952	16862
909.068	16843
909.184	17041
909.3	16885
909.415	16961
909.531	16805
909.647	16599
909.762	16611
909.878	16611
909.993	16596
910.108	16527
910.224	16447
910.339	16542
910.454	16455
910.57	16356
910.685	16268
910.8	16630
910.915	16497
911.03	16432
911.145	16131
911.259	16211
911.374	16112
911.489	16063
911.604	16074
911.718	15953
911.833	15873
911.947	15835
912.062	15751
912.176	15922
912.291	15975
912.405	15994
912.519	16131
912.633	16112
912.748	15991
912.862	15789
912.976	15789
913.09	15751
913.204	15701
913.318	15770
913.431	15778
913.545	15743
913.659	15827
913.772	15637
913.886	15526
914	15545
914.113	15561
914.226	15603
914.34	15553
914.453	15473
914.566	15587
914.68	15538
914.793	15401
914.906	15203
915.019	15097
915.132	15230
915.245	15135
915.358	15058
915.47	15093
915.583	15074
915.696	15176
915.809	15245
915.921	15249
916.034	15013
916.146	15024
916.259	15039
916.371	15085
916.483	15104
916.595	15036
916.708	14998
916.82	14872
916.932	14956
917.044	14941
917.156	14883
917.268	14788
917.38	14891
917.491	14762
917.603	14765
917.715	14826
917.826	14906
917.938	14659
918.049	14659
918.161	14716
918.272	14823
918.384	14811
918.495	14754
918.606	14537
918.717	14518
918.828	14545
918.939	14613
919.05	14503
919.161	14575
919.272	14309
919.383	14339
919.494	14533
919.604	14804
919.715	14564
919.826	14457
919.936	14518
920.047	14507
920.157	14488
920.267	14693
920.378	14556
920.488	14469
920.598	14564
920.708	14781
920.818	14667
920.928	14625
921.038	14811
921.148	14857
921.258	14431
921.368	14324
921.477	14138
921.587	14199
921.697	14107
921.806	14164
921.916	14081
922.025	13993
922.134	13875
922.244	13871
922.353	13921
922.462	13769
922.571	13761
922.68	13480
922.789	13537
922.898	13582
923.007	13518
923.116	13529
923.224	13476
923.333	13491
923.442	13457
923.55	13346
923.659	13403
923.767	13415
923.876	13320
923.984	13422
924.092	13217
924.201	13316
924.309	13263
924.417	13316
924.525	13072
924.633	13171
924.741	13944
924.849	13031
924.956	13114
925.064	12989
925.172	12958
925.279	12916
925.387	12894
925.494	12878
925.602	13076
925.709	13019
925.816	12875
925.924	12951
926.031	13103
926.138	12859
926.245	12954
926.352	12757
926.459	12859
926.566	12993
926.673	12894
926.779	12650
926.886	12738
926.993	12627
927.099	12486
927.206	12494
927.312	12483
927.419	12502
927.525	12429
927.631	12494
927.737	12414
927.843	12407
927.95	12209
928.056	12292
928.162	12365
928.267	12376
928.373	12985
928.479	12414
928.585	12175
928.69	12327
928.796	12296
928.901	12197
929.007	12049
929.112	12178
929.218	12296
929.323	12102
929.428	12114
929.533	12167
929.638	11931
929.743	12022
929.848	12034
929.953	12022
930.058	11908
930.163	11767
930.267	11863
930.372	11824
930.477	11764
930.581	11901
930.685	11863
930.79	11653
930.894	11627
930.998	11653
931.103	11676
931.207	11482
931.311	11356
931.415	11170
931.519	11014
931.623	10984
