Data from test_V78500241_1872.txt Node
Date: Fri Mar 25 15:22:53 CST 2022
User: usil
Spectrometer: V785-0024
Trigger mode: 0
Integration Time (sec): 4.000000E-1
Scans to average: 1
Nonlinearity correction enabled: false
Boxcar width: 0
Storing dark spectrum: false
XAxis mode: Wavelengths
Number of Pixels in Spectrum: 1024
>>>>>Begin Spectral Data<<<<<
801.071	27819
801.214	27739
801.356	27720
801.499	27488
801.641	27370
801.783	27477
801.926	27591
802.068	27336
802.211	27435
802.353	27230
802.496	27013
802.638	27009
802.78	27138
802.923	26872
803.065	26933
803.208	27074
803.35	27112
803.492	27195
803.635	27294
803.777	27199
803.919	27298
804.061	27545
804.204	27439
804.346	27306
804.488	27123
804.63	27260
804.773	27203
804.915	27241
805.057	27291
805.199	27150
805.341	27260
805.483	27458
805.626	27370
805.768	27116
805.91	27325
806.052	27321
806.194	27329
806.336	27622
806.478	27218
806.62	27405
806.762	27507
806.904	27713
807.046	27778
807.188	27789
807.33	27804
807.472	27838
807.614	27694
807.756	27888
807.898	27629
808.04	27599
808.182	27580
808.324	27583
808.465	27629
808.607	27934
808.749	28025
808.891	28006
809.033	28223
809.174	28010
809.316	27945
809.458	27998
809.6	28070
809.741	28120
809.883	28249
810.025	28261
810.166	28265
810.308	28268
810.45	28185
810.591	28105
810.733	28078
810.875	27968
811.016	27842
811.158	27857
811.299	28040
811.441	28101
811.582	28101
811.724	28017
811.865	27903
812.007	27911
812.148	28048
812.29	27953
812.431	28147
812.573	28139
812.714	28493
812.855	28516
812.997	28672
813.138	28599
813.279	28641
813.421	28542
813.562	28512
813.703	28436
813.845	28272
813.986	27979
814.127	27861
814.268	27755
814.41	27739
814.551	27713
814.692	27701
814.833	27671
814.974	27701
815.115	27819
815.256	27370
815.397	27538
815.539	27545
815.68	27397
815.821	27374
815.962	27473
816.103	27427
816.244	27363
816.385	27218
816.526	27116
816.666	26967
816.807	26967
816.948	27047
817.089	27039
817.23	26998
817.371	27100
817.512	26864
817.653	27028
817.793	27005
817.934	26963
818.075	26933
818.216	27001
818.356	26880
818.497	26792
818.638	26781
818.778	26682
818.919	26651
819.06	26963
819.2	26918
819.341	26975
819.481	26971
819.622	27020
819.762	27264
819.903	27188
820.043	27291
820.184	27081
820.324	27081
820.465	27150
820.605	27195
820.746	27062
820.886	26956
821.026	27051
821.167	27005
821.307	27146
821.447	26929
821.588	26887
821.728	26727
821.868	26507
822.008	26484
822.149	26415
822.289	26587
822.429	26294
822.569	26065
822.709	26020
822.849	26065
822.99	25963
823.13	25932
823.27	25963
823.41	25849
823.55	25655
823.69	25746
823.83	25868
823.97	25761
824.11	25483
824.25	25548
824.389	25609
824.529	25753
824.669	25590
824.809	25791
824.949	25613
825.089	25658
825.228	25616
825.368	25476
825.508	25403
825.648	25479
825.787	25411
825.927	25499
826.067	25335
826.206	25483
826.346	25460
826.485	25502
826.625	25457
826.765	25582
826.904	25438
827.044	25251
827.183	25270
827.323	25126
827.462	25228
827.601	25118
827.741	25118
827.88	25232
828.02	25145
828.159	25168
828.298	25198
828.437	25293
828.577	25247
828.716	25282
828.855	25141
828.994	24928
829.134	24935
829.273	25034
829.412	24802
829.551	24867
829.69	24871
829.829	24916
829.968	24939
830.107	24981
830.246	24886
830.385	24844
830.524	24894
830.663	24658
830.802	24627
830.941	24612
831.08	24429
831.219	24673
831.357	24703
831.496	24646
831.635	24566
831.774	24407
831.913	24216
832.051	24403
832.19	24190
832.329	24285
832.467	24254
832.606	24117
832.744	24041
832.883	24148
833.022	24266
833.16	24182
833.299	24266
833.437	24224
833.576	24254
833.714	24228
833.852	24194
833.991	24163
834.129	24308
834.267	24399
834.406	24190
834.544	24277
834.682	24270
834.821	24167
834.959	24433
835.097	24057
835.235	24323
835.373	24247
835.511	24220
835.65	24148
835.788	23942
835.926	23904
836.064	24041
836.202	23805
836.34	24064
836.478	24205
836.615	24140
836.753	23984
836.891	24087
837.029	24072
837.167	24091
837.305	24079
837.443	24018
837.58	23889
837.718	23923
837.856	23950
837.993	23885
838.131	23851
838.269	23737
838.406	23946
838.544	23741
838.681	23581
838.819	23604
838.956	23539
839.094	23341
839.231	23493
839.369	23516
839.506	23866
839.643	23611
839.781	23463
839.918	23379
840.055	23440
840.193	23395
840.33	23383
840.467	23372
840.604	23387
840.742	23653
840.879	23147
841.016	23261
841.153	23197
841.29	23414
841.427	23303
841.564	23463
841.701	23261
841.838	23280
841.975	23159
842.112	23216
842.249	23124
842.385	23090
842.522	23216
842.659	23212
842.796	23052
842.933	23060
843.069	23018
843.206	23014
843.343	23170
843.479	23113
843.616	23162
843.752	22919
843.889	22953
844.025	22858
844.162	22831
844.298	22968
844.435	22812
844.571	22812
844.708	22824
844.844	23029
844.98	23044
845.117	22850
845.253	22812
845.389	22622
845.525	22812
845.661	22660
845.798	22660
845.934	22710
846.07	22577
846.206	22668
846.342	22702
846.478	22577
846.614	22329
846.75	22295
846.886	22322
847.022	22459
847.158	22329
847.294	22421
847.429	22265
847.565	22337
847.701	22603
847.837	22124
847.972	21994
848.108	22112
848.244	22181
848.379	21979
848.515	21812
848.65	21960
848.786	21831
848.921	21983
849.057	21956
849.192	22025
849.328	21979
849.463	21873
849.598	21804
849.734	21922
849.869	21713
850.004	21739
850.14	21770
850.275	21797
850.41	21675
850.545	21591
850.68	21690
850.815	21614
850.95	21686
851.085	21888
851.22	21701
851.355	21644
851.49	21625
851.625	21709
851.76	21679
851.895	21591
852.03	21496
852.165	21595
852.299	21614
852.434	21766
852.569	21595
852.703	21663
852.838	21705
852.973	21861
853.107	21831
853.242	21694
853.376	21458
853.511	21389
853.645	21469
853.78	21591
853.914	21591
854.048	21412
854.183	21492
854.317	21564
854.451	21720
854.585	21473
854.72	21500
854.854	21538
854.988	21428
855.122	21656
855.256	21511
855.39	21462
855.524	21587
855.658	21644
855.792	21450
855.926	21614
856.06	21534
856.194	21637
856.327	21526
856.461	21496
856.595	21477
856.729	21447
856.862	21629
856.996	21663
857.13	21583
857.263	21622
857.397	21526
857.53	21545
857.664	21561
857.797	21443
857.931	21629
858.064	21485
858.197	21724
858.331	21519
858.464	21473
858.597	21523
858.731	21485
858.864	21492
858.997	21370
859.13	21504
859.263	21477
859.396	21511
859.529	21405
859.662	21416
859.795	21439
859.928	21386
860.061	21675
860.194	21732
860.327	21504
860.46	21469
860.592	21671
860.725	21580
860.858	21561
860.99	21587
861.123	21420
861.256	21382
861.388	21496
861.521	22120
861.653	21408
861.786	21256
861.918	21287
862.05	21222
862.183	21492
862.315	21443
862.447	21496
862.58	21488
862.712	21203
862.844	21096
862.976	21344
863.108	21233
863.24	21580
863.372	21180
863.504	21298
863.636	21131
863.768	21264
863.9	21150
864.032	21214
864.164	21138
864.296	21291
864.428	21264
864.559	21218
864.691	21359
864.823	21169
864.954	21161
865.086	21188
865.217	20998
865.349	20998
865.48	21089
865.612	21100
865.743	21138
865.875	21199
866.006	21058
866.137	21176
866.269	21252
866.4	21089
866.531	21062
866.662	21051
866.793	21036
866.924	21081
867.055	21077
867.186	21093
867.317	20910
867.448	20948
867.579	21127
867.71	20895
867.841	20998
867.972	21104
868.103	21039
868.233	20952
868.364	21135
868.495	21039
868.625	21245
868.756	21329
868.886	21195
869.017	21226
869.147	21340
869.278	21401
869.408	21272
869.539	21298
869.669	21192
869.799	21275
869.929	21431
870.06	21477
870.19	21591
870.32	21530
870.45	21660
870.58	21622
870.71	21911
870.84	21842
870.97	21641
871.1	21599
871.23	21819
871.36	21937
871.489	21789
871.619	21846
871.749	21812
871.879	21892
872.008	21964
872.138	21850
872.267	21956
872.397	21713
872.526	21724
872.656	21663
872.785	21709
872.915	21876
873.044	21926
873.173	21869
873.303	22013
873.432	21930
873.561	21941
873.69	21899
873.819	21937
873.948	21842
874.077	21880
874.206	21785
874.335	22013
874.464	21998
874.593	22112
874.722	22131
874.851	22200
874.979	22093
875.108	22086
875.237	22051
875.365	22055
875.494	22139
875.623	22120
875.751	22086
875.88	22230
876.008	22219
876.136	22344
876.265	22485
876.393	22637
876.521	22611
876.65	22565
876.778	22413
876.906	22402
877.034	22413
877.162	22443
877.29	22455
877.418	22523
877.546	22459
877.674	22527
877.802	22405
877.93	22508
878.058	22462
878.185	22268
878.313	22447
878.441	22424
878.568	22356
878.696	22382
878.824	22516
878.951	22580
879.079	22611
879.206	22778
879.333	22649
879.461	22451
879.588	22554
879.715	22611
879.842	22755
879.97	22565
880.097	22390
880.224	22249
880.351	22447
880.478	22219
880.605	22048
880.732	22371
880.859	22413
880.986	22459
881.112	22242
881.239	22215
881.366	21975
881.493	21899
881.619	21861
881.746	21926
881.872	21823
881.999	21785
882.125	21755
882.252	21994
882.378	21899
882.505	21907
882.631	21762
882.757	21644
882.883	21671
883.01	21614
883.136	21435
883.262	21332
883.388	21355
883.514	21572
883.64	21515
883.766	21469
883.892	21260
884.018	21329
884.143	21549
884.269	21473
884.395	21348
884.52	21268
884.646	21169
884.772	21226
884.897	21119
885.023	21222
885.148	21218
885.274	21283
885.399	21268
885.524	21203
885.65	21127
885.775	21245
885.9	21154
886.025	21272
886.15	21226
886.275	21173
886.4	21119
886.525	21108
886.65	21195
886.775	21150
886.9	21302
887.025	21435
887.149	21241
887.274	20948
887.399	21043
887.523	20990
887.648	20960
887.773	20857
887.897	21081
888.021	21013
888.146	20872
888.27	21058
888.395	21062
888.519	21020
888.643	21020
888.767	20990
888.891	20918
889.015	20785
889.139	20883
889.263	20720
889.387	20811
889.511	20971
889.635	20998
889.759	20743
889.883	20701
890.006	20724
890.13	20929
890.254	20735
890.377	20689
890.501	20549
890.624	20484
890.748	20522
890.871	20488
890.995	20256
891.118	20301
891.241	20328
891.364	20347
891.488	20526
891.611	20347
891.734	20301
891.857	20404
891.98	20339
892.103	20324
892.226	20362
892.349	20374
892.471	20149
892.594	20134
892.717	20278
892.839	20218
892.962	20195
893.085	20259
893.207	20317
893.33	20100
893.452	20084
893.575	20229
893.697	20187
893.819	20347
893.941	20446
894.064	20381
894.186	20221
894.308	20183
894.43	20362
894.552	20286
894.674	20339
894.796	20084
894.918	20172
895.04	20107
895.161	20278
895.283	20275
895.405	20138
895.526	20206
895.648	20157
895.769	20294
895.891	20305
896.012	20240
896.134	20343
896.255	20290
896.376	20206
896.498	20153
896.619	20240
896.74	20229
896.861	20218
896.982	20533
897.103	20686
897.224	20423
897.345	20412
897.466	20419
897.587	20419
897.708	20743
897.828	20419
897.949	20427
898.07	20339
898.19	20362
898.311	20514
898.431	20438
898.552	20461
898.672	20404
898.792	20415
898.913	20343
899.033	20309
899.153	20191
899.273	20069
899.393	20202
899.513	20225
899.633	20176
899.753	20202
899.873	20187
899.993	20244
900.113	20164
900.232	20126
900.352	20092
900.472	20092
900.591	19849
900.711	20050
900.83	19784
900.95	20058
901.069	19986
901.189	19803
901.308	19643
901.427	19613
901.546	19518
901.665	19578
901.784	19537
901.904	19377
902.023	19255
902.141	19240
902.26	19065
902.379	19072
902.498	18985
902.617	18947
902.735	19072
902.854	19019
902.973	18905
903.091	18760
903.21	18711
903.328	18665
903.446	18665
903.565	18471
903.683	18540
903.801	18410
903.919	18540
904.038	18502
904.156	18330
904.274	18414
904.392	18216
904.51	18186
904.627	18235
904.745	18327
904.863	18338
904.981	18121
905.098	17916
905.216	17984
905.334	18034
905.451	17908
905.569	17874
905.686	17901
905.803	18015
905.921	17802
906.038	17855
906.155	17790
906.272	17722
906.389	17642
906.506	17455
906.623	17512
906.74	17520
906.857	17356
906.974	17277
907.091	17455
907.208	17634
907.324	17459
907.441	17349
907.557	17250
907.674	17216
907.79	17212
907.907	17140
908.023	17113
908.139	17197
908.256	17056
908.372	17113
908.488	17067
908.604	17071
908.72	16866
908.836	16938
908.952	16866
909.068	16987
909.184	17052
909.3	16869
909.415	17018
909.531	16885
909.647	16736
909.762	16622
909.878	16607
909.993	16607
910.108	16531
910.224	16634
910.339	16580
910.454	16603
910.57	16440
910.685	16474
910.8	16558
910.915	16558
911.03	16322
911.145	16276
911.259	16166
911.374	16280
911.489	16196
911.604	16048
911.718	16055
911.833	15983
911.947	15865
912.062	15762
912.176	16021
912.291	15857
912.405	15979
912.519	16211
912.633	16097
912.748	15941
912.862	15876
912.976	15827
913.09	15564
913.204	15720
913.318	15766
913.431	15888
913.545	15800
913.659	15838
913.772	15720
913.886	15660
914	15530
914.113	15641
914.226	15671
914.34	15633
914.453	15507
914.566	15656
914.68	15469
914.793	15420
914.906	15256
915.019	15214
915.132	15184
915.245	15089
915.358	15195
915.47	15272
915.583	15222
915.696	15169
915.809	15298
915.921	15237
916.034	15207
916.146	15085
916.259	15028
916.371	15211
916.483	15104
916.595	15032
916.708	14979
916.82	15009
916.932	15020
917.044	14944
917.156	14982
917.268	14823
917.38	14819
917.491	14811
917.603	14777
917.715	14986
917.826	14899
917.938	14781
918.049	14743
918.161	14830
918.272	15017
918.384	14887
918.495	14777
918.606	14765
918.717	14560
918.828	14663
918.939	14693
919.05	14549
919.161	14568
919.272	14461
919.383	14556
919.494	14644
919.604	14796
919.715	14610
919.826	14446
919.936	14602
920.047	14712
920.157	14583
920.267	14826
920.378	14648
920.488	14530
920.598	14777
920.708	14891
920.818	14693
920.928	14712
921.038	14891
921.148	14769
921.258	14549
921.368	14419
921.477	14389
921.587	14244
921.697	14172
921.806	14328
921.916	14180
922.025	14043
922.134	14046
922.244	13974
922.353	13989
922.462	13791
922.571	13852
922.68	13655
922.789	13647
922.898	13689
923.007	13628
923.116	13582
923.224	13693
923.333	13540
923.442	13480
923.55	13457
923.659	13491
923.767	13540
923.876	13384
923.984	13453
924.092	13335
924.201	13285
924.309	13293
924.417	13396
924.525	13270
924.633	13320
924.741	14191
924.849	13145
924.956	13190
925.064	13095
925.172	13012
925.279	13038
925.387	13034
925.494	13050
925.602	13175
925.709	13107
925.816	12867
925.924	12920
926.031	13061
926.138	12924
926.245	12935
926.352	12859
926.459	12996
926.566	13015
926.673	12837
926.779	12779
926.886	12798
926.993	12662
927.099	12654
927.206	12578
927.312	12494
927.419	12620
927.525	12544
927.631	12616
927.737	12509
927.843	12418
927.95	12338
928.056	12399
928.162	12475
928.267	12410
928.373	12996
928.479	12441
928.585	12270
928.69	12323
928.796	12376
928.901	12292
929.007	12133
929.112	12247
929.218	12167
929.323	12129
929.428	12148
929.533	12311
929.638	12038
929.743	12167
929.848	12140
929.953	12095
930.058	11946
930.163	11832
930.267	11885
930.372	11984
930.477	11824
930.581	12049
930.685	11935
930.79	11642
930.894	11741
930.998	11748
931.103	11779
931.207	11383
931.311	11292
931.415	11220
931.519	11060
931.623	11033
