Data from test_V78500241_1697.txt Node
Date: Fri Mar 25 15:21:40 CST 2022
User: usil
Spectrometer: V785-0024
Trigger mode: 0
Integration Time (sec): 4.000000E-1
Scans to average: 1
Nonlinearity correction enabled: false
Boxcar width: 0
Storing dark spectrum: false
XAxis mode: Wavelengths
Number of Pixels in Spectrum: 1024
>>>>>Begin Spectral Data<<<<<
801.071	28135
801.214	27827
801.356	27774
801.499	27576
801.641	27534
801.783	27622
801.926	27641
802.068	27549
802.211	27458
802.353	27492
802.496	27306
802.638	27264
802.78	27142
802.923	27104
803.065	27055
803.208	27222
803.35	27340
803.492	27214
803.635	27370
803.777	27393
803.919	27420
804.061	27778
804.204	27466
804.346	27386
804.488	27397
804.63	27416
804.773	27294
804.915	27355
805.057	27561
805.199	27287
805.341	27458
805.483	27618
805.626	27534
805.768	27481
805.91	27568
806.052	27557
806.194	27412
806.336	27755
806.478	27622
806.62	27469
806.762	27698
806.904	27732
807.046	28097
807.188	28109
807.33	27876
807.472	28074
807.614	28036
807.756	27941
807.898	27804
808.04	27789
808.182	27713
808.324	27842
808.465	27922
808.607	28078
808.749	28139
808.891	28143
809.033	28291
809.174	28348
809.316	28074
809.458	28147
809.6	28029
809.741	28341
809.883	28322
810.025	28497
810.166	28398
810.308	28519
810.45	28455
810.591	28303
810.733	28291
810.875	28143
811.016	27956
811.158	28017
811.299	28215
811.441	28379
811.582	28192
811.724	28291
811.865	28215
812.007	28101
812.148	28188
812.29	28352
812.431	28363
812.573	28474
812.714	28630
812.855	28736
812.997	28744
813.138	28965
813.279	28786
813.421	28679
813.562	28630
813.703	28459
813.845	28440
813.986	28204
814.127	28006
814.268	27899
814.41	27926
814.551	27781
814.692	27975
814.833	27724
814.974	27903
815.115	27835
815.256	27720
815.397	27789
815.539	27766
815.68	27690
815.821	27534
815.962	27591
816.103	27686
816.244	27622
816.385	27405
816.526	27370
816.666	27211
816.807	27123
816.948	27279
817.089	27298
817.23	27211
817.371	27207
817.512	27146
817.653	27131
817.793	27024
817.934	27173
818.075	27173
818.216	27272
818.356	27093
818.497	27047
818.638	26887
818.778	26754
818.919	26853
819.06	26967
819.2	27108
819.341	27142
819.481	27135
819.622	27306
819.762	27492
819.903	27454
820.043	27332
820.184	27317
820.324	27203
820.465	27420
820.605	27203
820.746	27367
820.886	27100
821.026	27313
821.167	27268
821.307	27233
821.447	27165
821.588	27036
821.728	27009
821.868	26731
822.008	26503
822.149	26720
822.289	26541
822.429	26358
822.569	26324
822.709	26301
822.849	26191
822.99	26187
823.13	26058
823.27	26122
823.41	25841
823.55	25970
823.69	26046
823.83	26027
823.97	26016
824.11	25784
824.25	25746
824.389	25830
824.529	25761
824.669	25712
824.809	25868
824.949	25822
825.089	25883
825.228	25818
825.368	25674
825.508	25715
825.648	25643
825.787	25639
825.927	25788
826.067	25632
826.206	25556
826.346	25647
826.485	25757
826.625	25635
826.765	25761
826.904	25708
827.044	25369
827.183	25354
827.323	25331
827.462	25327
827.601	25400
827.741	25274
827.88	25358
828.02	25316
828.159	25244
828.298	25373
828.437	25655
828.577	25308
828.716	25468
828.855	25400
828.994	25061
829.134	25095
829.273	25042
829.412	25046
829.551	25103
829.69	25114
829.829	25072
829.968	25187
830.107	25164
830.246	25076
830.385	24962
830.524	24989
830.663	24856
830.802	24703
830.941	24749
831.08	24760
831.219	24768
831.357	24681
831.496	25038
831.635	24715
831.774	24601
831.913	24669
832.051	24517
832.19	24498
832.329	24528
832.467	24460
832.606	24361
832.744	24243
832.883	24308
833.022	24292
833.16	24194
833.299	24426
833.437	24319
833.576	24433
833.714	24517
833.852	24388
833.991	24350
834.129	24460
834.267	24521
834.406	24429
834.544	24407
834.682	24494
834.821	24410
834.959	24627
835.097	24323
835.235	24483
835.373	24441
835.511	24391
835.65	24243
835.788	24296
835.926	24133
836.064	24121
836.202	24079
836.34	24247
836.478	24266
836.615	24346
836.753	24239
836.891	24391
837.029	24285
837.167	24114
837.305	24194
837.443	24140
837.58	24110
837.718	24159
837.856	24178
837.993	23996
838.131	24098
838.269	24041
838.406	24095
838.544	23904
838.681	23821
838.819	23726
838.956	23566
839.094	23634
839.231	23619
839.369	23809
839.506	23980
839.643	23802
839.781	23703
839.918	23630
840.055	23509
840.193	23627
840.33	23474
840.467	23573
840.604	23493
840.742	23566
840.879	23353
841.016	23379
841.153	23452
841.29	23615
841.427	23531
841.564	23490
841.701	23638
841.838	23395
841.975	23261
842.112	23463
842.249	23429
842.385	23318
842.522	23516
842.659	23239
842.796	23318
842.933	23117
843.069	23197
843.206	23170
843.343	23220
843.479	23322
843.616	23143
843.752	23083
843.889	23018
844.025	23193
844.162	22930
844.298	23102
844.435	22987
844.571	23079
844.708	23060
844.844	23254
844.98	23242
845.117	23102
845.253	22968
845.389	22946
845.525	23041
845.661	22877
845.798	22881
845.934	22862
846.07	22759
846.206	22911
846.342	22858
846.478	22816
846.614	22611
846.75	22447
846.886	22466
847.022	22519
847.158	22409
847.294	22538
847.429	22485
847.565	22508
847.701	22763
847.837	22215
847.972	22131
848.108	22348
848.244	22348
848.379	22135
848.515	22055
848.65	22150
848.786	22120
848.921	22048
849.057	22105
849.192	22196
849.328	21983
849.463	22082
849.598	21979
849.734	21861
849.869	21861
850.004	21865
850.14	21823
850.275	21774
850.41	21736
850.545	21759
850.68	21861
850.815	21873
850.95	21823
851.085	22051
851.22	21945
851.355	21774
851.49	21861
851.625	21789
851.76	21774
851.895	21816
852.03	21762
852.165	21842
852.299	21880
852.434	21884
852.569	21774
852.703	21956
852.838	21850
852.973	21876
853.107	21949
853.242	21808
853.376	21785
853.511	21587
853.645	21705
853.78	21823
853.914	21686
854.048	21500
854.183	21622
854.317	21595
854.451	21880
854.585	21762
854.72	21671
854.854	21778
854.988	21625
855.122	21648
855.256	21553
855.39	21641
855.524	21724
855.658	21652
855.792	21641
855.926	21705
856.06	21701
856.194	21755
856.327	21622
856.461	21614
856.595	21606
856.729	21587
856.862	21846
856.996	21789
857.13	21759
857.263	21747
857.397	21778
857.53	21622
857.664	21660
857.797	21637
857.931	21736
858.064	21720
858.197	21759
858.331	21641
858.464	21629
858.597	21545
858.731	21660
858.864	21759
858.997	21625
859.13	21610
859.263	21667
859.396	21812
859.529	21713
859.662	21720
859.795	21610
859.928	21542
860.061	21732
860.194	21918
860.327	21713
860.46	21816
860.592	21797
860.725	21865
860.858	21720
860.99	21660
861.123	21637
861.256	21591
861.388	21583
861.521	22363
861.653	21622
861.786	21469
861.918	21466
862.05	21542
862.183	21542
862.315	21576
862.447	21671
862.58	21603
862.712	21431
862.844	21378
862.976	21401
863.108	21363
863.24	21831
863.372	21389
863.504	21351
863.636	21332
863.768	21420
863.9	21443
864.032	21291
864.164	21428
864.296	21454
864.428	21447
864.559	21488
864.691	21462
864.823	21389
864.954	21317
865.086	21279
865.217	21336
865.349	21176
865.48	21260
865.612	21245
865.743	21469
865.875	21306
866.006	21332
866.137	21302
866.269	21374
866.4	21192
866.531	21154
866.662	21211
866.793	21184
866.924	21386
867.055	21127
867.186	21272
867.317	21195
867.448	21199
867.579	21157
867.71	21157
867.841	21051
867.972	21325
868.103	21249
868.233	21131
868.364	21180
868.495	21256
868.625	21458
868.756	21614
868.886	21382
869.017	21367
869.147	21568
869.278	21595
869.408	21405
869.539	21447
869.669	21439
869.799	21477
869.929	21545
870.06	21523
870.19	21759
870.32	21686
870.45	21861
870.58	21865
870.71	21941
870.84	21983
870.97	21644
871.1	21781
871.23	21956
871.36	22036
871.489	21945
871.619	21884
871.749	22067
871.879	21968
872.008	22055
872.138	22086
872.267	21964
872.397	21876
872.526	21808
872.656	21861
872.785	21876
872.915	22021
873.044	22097
873.173	22021
873.303	22090
873.432	22025
873.561	22147
873.69	22021
873.819	22048
873.948	22219
874.077	22051
874.206	21884
874.335	22032
874.464	22070
874.593	22246
874.722	22234
874.851	22299
874.979	22234
875.108	22344
875.237	22128
875.365	22249
875.494	22280
875.623	22295
875.751	22177
875.88	22295
876.008	22379
876.136	22417
876.265	22615
876.393	22767
876.521	22805
876.65	22755
876.778	22664
876.906	22694
877.034	22653
877.162	22710
877.29	22550
877.418	22580
877.546	22550
877.674	22630
877.802	22489
877.93	22641
878.058	22573
878.185	22443
878.313	22466
878.441	22641
878.568	22459
878.696	22531
878.824	22691
878.951	22733
879.079	22778
879.206	22824
879.333	22877
879.461	22653
879.588	22634
879.715	22721
879.842	22900
879.97	22497
880.097	22451
880.224	22405
880.351	22447
880.478	22390
880.605	22402
880.732	22512
880.859	22710
880.986	22459
881.112	22516
881.239	22318
881.366	22036
881.493	21953
881.619	22021
881.746	22025
881.872	22021
881.999	21968
882.125	21884
882.252	22086
882.378	21998
882.505	21972
882.631	21812
882.757	21713
882.883	21842
883.01	21686
883.136	21675
883.262	21538
883.388	21515
883.514	21682
883.64	21739
883.766	21663
883.892	21405
884.018	21488
884.143	21709
884.269	21667
884.395	21507
884.52	21344
884.646	21325
884.772	21439
884.897	21146
885.023	21283
885.148	21500
885.274	21367
885.399	21405
885.524	21370
885.65	21218
885.775	21401
885.9	21241
886.025	21287
886.15	21412
886.275	21275
886.4	21207
886.525	21260
886.65	21157
886.775	21397
886.9	21348
887.025	21412
887.149	21268
887.274	21150
887.399	21066
887.523	21062
887.648	20960
887.773	21028
887.897	21165
888.021	21146
888.146	21085
888.27	21154
888.395	21260
888.519	21131
888.643	21020
888.767	21230
888.891	21039
889.015	20979
889.139	20975
889.263	20773
889.387	21138
889.511	21036
889.635	21036
889.759	20826
889.883	20941
890.006	20838
890.13	20902
890.254	20815
890.377	20823
890.501	20796
890.624	20705
890.748	20659
890.871	20450
890.995	20351
891.118	20492
891.241	20427
891.364	20511
891.488	20594
891.611	20476
891.734	20396
891.857	20503
891.98	20541
892.103	20469
892.226	20385
892.349	20423
892.471	20233
892.594	20374
892.717	20347
892.839	20305
892.962	20389
893.085	20415
893.207	20362
893.33	20218
893.452	20374
893.575	20438
893.697	20412
893.819	20473
893.941	20431
894.064	20476
894.186	20301
894.308	20305
894.43	20366
894.552	20507
894.674	20461
894.796	20233
894.918	20362
895.04	20366
895.161	20438
895.283	20381
895.405	20347
895.526	20381
895.648	20206
895.769	20286
895.891	20465
896.012	20309
896.134	20465
896.255	20522
896.376	20248
896.498	20301
896.619	20347
896.74	20332
896.861	20434
896.982	20743
897.103	20758
897.224	20594
897.345	20613
897.466	20526
897.587	20461
897.708	20609
897.828	20587
897.949	20476
898.07	20568
898.19	20507
898.311	20667
898.431	20415
898.552	20545
898.672	20625
898.792	20701
898.913	20522
899.033	20461
899.153	20320
899.273	20107
899.393	20328
899.513	20278
899.633	20214
899.753	20366
899.873	20221
899.993	20187
900.113	20191
900.232	20267
900.352	20240
900.472	20126
900.591	20020
900.711	20111
900.83	20157
900.95	20050
901.069	20096
901.189	20050
901.308	19704
901.427	19742
901.546	19655
901.665	19594
901.784	19658
901.904	19518
902.023	19430
902.141	19255
902.26	19137
902.379	19244
902.498	19114
902.617	19061
902.735	19228
902.854	19187
902.973	19072
903.091	18829
903.21	18863
903.328	18817
903.446	18738
903.565	18570
903.683	18661
903.801	18483
903.919	18601
904.038	18650
904.156	18422
904.274	18490
904.392	18471
904.51	18384
904.627	18239
904.745	18498
904.863	18437
904.981	18270
905.098	18041
905.216	18133
905.334	18064
905.451	18133
905.569	18098
905.686	18030
905.803	18133
905.921	17870
906.038	17961
906.155	17878
906.272	17752
906.389	17805
906.506	17570
906.623	17604
906.74	17516
906.857	17414
906.974	17471
907.091	17699
907.208	17687
907.324	17623
907.441	17600
907.557	17246
907.674	17311
907.79	17303
907.907	17258
908.023	17322
908.139	17376
908.256	17227
908.372	17239
908.488	17216
908.604	17075
908.72	17079
908.836	17136
908.952	16999
909.068	17064
909.184	17105
909.3	17022
909.415	16991
909.531	16965
909.647	16839
909.762	16824
909.878	16748
909.993	16790
910.108	16767
910.224	16725
910.339	16668
910.454	16546
910.57	16592
910.685	16421
910.8	16790
910.915	16637
911.03	16516
911.145	16413
911.259	16261
911.374	16310
911.489	16303
911.604	16226
911.718	16013
911.833	16116
911.947	15991
912.062	15972
912.176	16010
912.291	16002
912.405	15949
912.519	16280
912.633	16207
912.748	16090
912.862	15983
912.976	15778
913.09	15759
913.204	15922
913.318	15888
913.431	16109
913.545	15918
913.659	15998
913.772	15907
913.886	15717
914	15682
914.113	15751
914.226	15819
914.34	15846
914.453	15603
914.566	15747
914.68	15660
914.793	15584
914.906	15389
915.019	15233
915.132	15306
915.245	15355
915.358	15268
915.47	15268
915.583	15325
915.696	15294
915.809	15348
915.921	15405
916.034	15291
916.146	15116
916.259	15241
916.371	15344
916.483	15165
916.595	15108
916.708	15199
916.82	15093
916.932	15161
917.044	15009
917.156	15028
917.268	14937
917.38	14933
917.491	15017
917.603	14960
917.715	14895
917.826	15017
917.938	14830
918.049	14815
918.161	14960
918.272	15036
918.384	15043
918.495	14804
918.606	14743
918.717	14651
918.828	14724
918.939	14720
919.05	14568
919.161	14819
919.272	14522
919.383	14571
919.494	14800
919.604	14724
919.715	14731
919.826	14590
919.936	14594
920.047	14720
920.157	14606
920.267	14849
920.378	14686
920.488	14537
920.598	14823
920.708	14994
920.818	14804
920.928	14727
921.038	14906
921.148	14880
921.258	14610
921.368	14530
921.477	14339
921.587	14404
921.697	14313
921.806	14339
921.916	14229
922.025	14043
922.134	14035
922.244	13970
922.353	13997
922.462	13978
922.571	13902
922.68	13704
922.789	13731
922.898	13666
923.007	13639
923.116	13613
923.224	13578
923.333	13647
923.442	13533
923.55	13533
923.659	13487
923.767	13544
923.876	13407
923.984	13575
924.092	13403
924.201	13472
924.309	13445
924.417	13365
924.525	13316
924.633	13316
924.741	14077
924.849	13114
924.956	13183
925.064	13164
925.172	13057
925.279	13107
925.387	13069
925.494	13015
925.602	13190
925.709	13209
925.816	13027
925.924	12993
926.031	13164
926.138	13019
926.245	12947
926.352	12939
926.459	13042
926.566	13053
926.673	12947
926.779	12817
926.886	12764
926.993	12688
927.099	12608
927.206	12547
927.312	12521
927.419	12681
927.525	12684
927.631	12601
927.737	12479
927.843	12486
927.95	12376
928.056	12441
928.162	12475
928.267	12388
928.373	12951
928.479	12525
928.585	12228
928.69	12418
928.796	12506
928.901	12289
929.007	12159
929.112	12300
929.218	12247
929.323	12251
929.428	12243
929.533	12292
929.638	12155
929.743	12125
929.848	12232
929.953	12053
930.058	12011
930.163	11927
930.267	11893
930.372	11973
930.477	11809
930.581	12045
930.685	11878
930.79	11752
930.894	11794
930.998	11691
931.103	11775
931.207	11512
931.311	11421
931.415	11258
931.519	11155
931.623	11071
