Data from test_V78500241_556.txt Node
Date: Fri Mar 25 15:13:43 CST 2022
User: usil
Spectrometer: V785-0024
Trigger mode: 0
Integration Time (sec): 4.000000E-1
Scans to average: 1
Nonlinearity correction enabled: false
Boxcar width: 0
Storing dark spectrum: false
XAxis mode: Wavelengths
Number of Pixels in Spectrum: 1024
>>>>>Begin Spectral Data<<<<<
801.071	27017
801.214	26990
801.356	26781
801.499	26750
801.641	26648
801.783	26537
801.926	26575
802.068	26659
802.211	26514
802.353	26400
802.496	26366
802.638	26252
802.78	26240
802.923	26115
803.065	26172
803.208	26096
803.35	26195
803.492	26221
803.635	26339
803.777	26237
803.919	26332
804.061	26575
804.204	26336
804.346	26191
804.488	26301
804.63	26377
804.773	26210
804.915	26305
805.057	26305
805.199	26259
805.341	26423
805.483	26488
805.626	26404
805.768	26206
805.91	26374
806.052	26450
806.194	26233
806.336	26552
806.478	26473
806.62	26328
806.762	26514
806.904	26651
807.046	26944
807.188	26823
807.33	26792
807.472	26834
807.614	26769
807.756	26914
807.898	26636
808.04	26541
808.182	26651
808.324	26609
808.465	26651
808.607	26731
808.749	26868
808.891	27112
809.033	27192
809.174	27241
809.316	27013
809.458	26910
809.6	26918
809.741	27070
809.883	27123
810.025	27317
810.166	27264
810.308	27287
810.45	27317
810.591	27367
810.733	27112
810.875	26918
811.016	26994
811.158	26895
811.299	27017
811.441	27222
811.582	27169
811.724	27020
811.865	26952
812.007	26921
812.148	26925
812.29	27051
812.431	27024
812.573	27298
812.714	27530
812.855	27534
812.997	27519
813.138	27941
813.279	27717
813.421	27538
813.562	27504
813.703	27363
813.845	27359
813.986	26952
814.127	26834
814.268	26720
814.41	26735
814.551	26644
814.692	26735
814.833	26625
814.974	26651
815.115	26705
815.256	26674
815.397	26541
815.539	26644
815.68	26434
815.821	26393
815.962	26450
816.103	26393
816.244	26313
816.385	26195
816.526	26248
816.666	26054
816.807	25932
816.948	25925
817.089	26035
817.23	26039
817.371	25932
817.512	25993
817.653	26035
817.793	25890
817.934	25909
818.075	25928
818.216	25830
818.356	25811
818.497	25791
818.638	25586
818.778	25502
818.919	25540
819.06	25712
819.2	25818
819.341	25849
819.481	25761
819.622	26145
819.762	26149
819.903	26233
820.043	26092
820.184	26005
820.324	26001
820.465	26062
820.605	26122
820.746	26008
820.886	25883
821.026	25936
821.167	26012
821.307	26244
821.447	25989
821.588	25761
821.728	25693
821.868	25578
822.008	25403
822.149	25362
822.289	25407
822.429	25217
822.569	25046
822.709	25050
822.849	24928
822.99	24897
823.13	24859
823.27	24760
823.41	24738
823.55	24578
823.69	24700
823.83	24719
823.97	24681
824.11	24544
824.25	24498
824.389	24441
824.529	24616
824.669	24410
824.809	24601
824.949	24631
825.089	24578
825.228	24475
825.368	24285
825.508	24388
825.648	24608
825.787	24445
825.927	24433
826.067	24376
826.206	24365
826.346	24391
826.485	24380
826.625	24388
826.765	24547
826.904	24475
827.044	24102
827.183	24232
827.323	24091
827.462	24201
827.601	24102
827.741	24102
827.88	24228
828.02	23992
828.159	23969
828.298	24041
828.437	24125
828.577	23999
828.716	24228
828.855	23996
828.994	23870
829.134	23813
829.273	23916
829.412	23779
829.551	23710
829.69	23923
829.829	23840
829.968	23999
830.107	23935
830.246	23707
830.385	23809
830.524	23707
830.663	23634
830.802	23558
830.941	23402
831.08	23353
831.219	23452
831.357	23349
831.496	23642
831.635	23433
831.774	23315
831.913	23227
832.051	23197
832.19	23273
832.329	23193
832.467	23174
832.606	23174
832.744	23037
832.883	23052
833.022	23140
833.16	23094
833.299	23067
833.437	23075
833.576	23197
833.714	23083
833.852	23223
833.991	23155
834.129	23231
834.267	23239
834.406	23197
834.544	23181
834.682	23109
834.821	22976
834.959	23296
835.097	23079
835.235	23223
835.373	23124
835.511	23265
835.65	23033
835.788	23048
835.926	22889
836.064	22824
836.202	22809
836.34	22976
836.478	22938
836.615	23162
836.753	23056
836.891	23159
837.029	23086
837.167	23033
837.305	22877
837.443	22866
837.58	22930
837.718	22862
837.856	22862
837.993	22759
838.131	22843
838.269	22645
838.406	22793
838.544	22645
838.681	22459
838.819	22443
838.956	22478
839.094	22223
839.231	22371
839.369	22474
839.506	22778
839.643	22653
839.781	22440
839.918	22287
840.055	22344
840.193	22219
840.33	22265
840.467	22261
840.604	22223
840.742	22523
840.879	22105
841.016	22169
841.153	22166
841.29	22382
841.427	22261
841.564	22272
841.701	22196
841.838	22253
841.975	22204
842.112	22154
842.249	22120
842.385	22002
842.522	22147
842.659	22074
842.796	21945
842.933	21994
843.069	21994
843.206	21964
843.343	22063
843.479	21987
843.616	21888
843.752	21812
843.889	21861
844.025	21991
844.162	21625
844.298	21899
844.435	21812
844.571	21816
844.708	21899
844.844	21911
844.98	21975
845.117	21800
845.253	21720
845.389	21766
845.525	21774
845.661	21717
845.798	21492
845.934	21587
846.07	21321
846.206	21466
846.342	21648
846.478	21561
846.614	21401
846.75	21131
846.886	21302
847.022	21340
847.158	21245
847.294	21298
847.429	21294
847.565	21249
847.701	21485
847.837	21051
847.972	21055
848.108	21074
848.244	21036
848.379	20986
848.515	20902
848.65	20956
848.786	20880
848.921	20883
849.057	20956
849.192	20891
849.328	20872
849.463	20826
849.598	20804
849.734	20796
849.869	20632
850.004	20602
850.14	20686
850.275	20689
850.41	20541
850.545	20609
850.68	20617
850.815	20686
850.95	20621
851.085	20731
851.22	20731
851.355	20590
851.49	20701
851.625	20632
851.76	20674
851.895	20492
852.03	20533
852.165	20674
852.299	20788
852.434	20727
852.569	20625
852.703	20667
852.838	20655
852.973	20781
853.107	20655
853.242	20571
853.376	20476
853.511	20336
853.645	20412
853.78	20549
853.914	20587
854.048	20461
854.183	20389
854.317	20469
854.451	20720
854.585	20507
854.72	20396
854.854	20514
854.988	20377
855.122	20450
855.256	20438
855.39	20526
855.524	20480
855.658	20541
855.792	20438
855.926	20564
856.06	20412
856.194	20545
856.327	20408
856.461	20393
856.595	20328
856.729	20484
856.862	20533
856.996	20537
857.13	20533
857.263	20560
857.397	20549
857.53	20564
857.664	20609
857.797	20511
857.931	20495
858.064	20530
858.197	20613
858.331	20488
858.464	20415
858.597	20366
858.731	20442
858.864	20465
858.997	20370
859.13	20381
859.263	20560
859.396	20457
859.529	20427
859.662	20362
859.795	20351
859.928	20454
860.061	20579
860.194	20667
860.327	20480
860.46	20507
860.592	20598
860.725	20602
860.858	20556
860.99	20366
861.123	20374
861.256	20374
861.388	20419
861.521	21123
861.653	20362
861.786	20324
861.918	20324
862.05	20396
862.183	20408
862.315	20438
862.447	20492
862.58	20347
862.712	20161
862.844	20122
862.976	20256
863.108	20267
863.24	20526
863.372	20164
863.504	20218
863.636	20328
863.768	20138
863.9	20237
864.032	20119
864.164	20157
864.296	20149
864.428	20259
864.559	20313
864.691	20221
864.823	20168
864.954	20153
865.086	20248
865.217	20069
865.349	19928
865.48	19982
865.612	20115
865.743	20278
865.875	20142
866.006	20111
866.137	20069
866.269	20073
866.4	20180
866.531	20020
866.662	19993
866.793	20100
866.924	20073
867.055	20008
867.186	20008
867.317	19974
867.448	19887
867.579	19921
867.71	19921
867.841	19928
867.972	20062
868.103	19913
868.233	20058
868.364	19944
868.495	20168
868.625	20183
868.756	20305
868.886	20172
869.017	20320
869.147	20370
869.278	20438
869.408	20336
869.539	20206
869.669	20290
869.799	20415
869.929	20381
870.06	20358
870.19	20606
870.32	20579
870.45	20606
870.58	20568
870.71	20811
870.84	20868
870.97	20727
871.1	20724
871.23	20819
871.36	20853
871.489	20746
871.619	20750
871.749	20849
871.879	20990
872.008	20944
872.138	20948
872.267	20804
872.397	20762
872.526	20746
872.656	20765
872.785	20746
872.915	20914
873.044	20849
873.173	20914
873.303	20861
873.432	20937
873.561	20956
873.69	20990
873.819	20986
873.948	21024
874.077	21020
874.206	20845
874.335	20826
874.464	21028
874.593	21173
874.722	21055
874.851	21138
874.979	21230
875.108	21188
875.237	21036
875.365	21131
875.494	21036
875.623	21192
875.751	21104
875.88	21184
876.008	21408
876.136	21348
876.265	21599
876.393	21698
876.521	21625
876.65	21580
876.778	21538
876.906	21447
877.034	21466
877.162	21545
877.29	21439
877.418	21572
877.546	21564
877.674	21420
877.802	21519
877.93	21469
878.058	21348
878.185	21344
878.313	21549
878.441	21500
878.568	21275
878.696	21477
878.824	21534
878.951	21447
879.079	21720
879.206	21732
879.333	21667
879.461	21507
879.588	21663
879.715	21713
879.842	21789
879.97	21557
880.097	21302
880.224	21340
880.351	21428
880.478	21241
880.605	21173
880.732	21359
880.859	21545
880.986	21325
881.112	21329
881.239	21142
881.366	21013
881.493	21028
881.619	20872
881.746	20933
881.872	20800
881.999	20921
882.125	20895
882.252	20952
882.378	20883
882.505	20902
882.631	20762
882.757	20602
882.883	20872
883.01	20731
883.136	20743
883.262	20541
883.388	20396
883.514	20735
883.64	20537
883.766	20606
883.892	20332
884.018	20393
884.143	20507
884.269	20617
884.395	20301
884.52	20237
884.646	20237
884.772	20199
884.897	20176
885.023	20237
885.148	20355
885.274	20442
885.399	20419
885.524	20202
885.65	20336
885.775	20267
885.9	20252
886.025	20347
886.15	20301
886.275	20221
886.4	20199
886.525	20134
886.65	20191
886.775	20164
886.9	20358
887.025	20381
887.149	20229
887.274	19993
887.399	20115
887.523	19997
887.648	19932
887.773	19898
887.897	20172
888.021	20043
888.146	20027
888.27	20073
888.395	20214
888.519	20088
888.643	20043
888.767	20050
888.891	19982
889.015	19830
889.139	19849
889.263	19757
889.387	20012
889.511	19970
889.635	19986
889.759	19791
889.883	19807
890.006	19864
890.13	20062
890.254	19723
890.377	19670
890.501	19670
890.624	19578
890.748	19658
890.871	19681
890.995	19403
891.118	19445
891.241	19468
891.364	19464
891.488	19658
891.611	19381
891.734	19468
891.857	19472
891.98	19434
892.103	19525
892.226	19502
892.349	19422
892.471	19274
892.594	19422
892.717	19384
892.839	19327
892.962	19480
893.085	19411
893.207	19232
893.33	19274
893.452	19324
893.575	19346
893.697	19259
893.819	19605
893.941	19521
894.064	19533
894.186	19263
894.308	19289
894.43	19518
894.552	19567
894.674	19514
894.796	19213
894.918	19384
895.04	19362
895.161	19449
895.283	19407
895.405	19240
895.526	19411
895.648	19464
895.769	19320
895.891	19327
896.012	19518
896.134	19392
896.255	19457
896.376	19312
896.498	19388
896.619	19430
896.74	19365
896.861	19525
896.982	19704
897.103	19788
897.224	19578
897.345	19647
897.466	19685
897.587	19552
897.708	19727
897.828	19655
897.949	19422
898.07	19521
898.19	19586
898.311	19578
898.431	19601
898.552	19620
898.672	19734
898.792	19658
898.913	19647
899.033	19643
899.153	19480
899.273	19282
899.393	19384
899.513	19472
899.633	19316
899.753	19400
899.873	19403
899.993	19449
900.113	19232
900.232	19373
900.352	19301
900.472	19244
900.591	19031
900.711	19266
900.83	19129
900.95	19228
901.069	19213
901.189	19072
901.308	18970
901.427	18749
901.546	18715
901.665	18757
901.784	18757
901.904	18612
902.023	18677
902.141	18418
902.26	18308
902.379	18308
902.498	18353
902.617	18281
902.735	18327
902.854	18266
902.973	18174
903.091	17977
903.21	17942
903.328	17935
903.446	17805
903.565	17760
903.683	17737
903.801	17627
903.919	17710
904.038	17767
904.156	17657
904.274	17566
904.392	17570
904.51	17554
904.627	17600
904.745	17630
904.863	17532
904.981	17421
905.098	17181
905.216	17132
905.334	17288
905.451	17185
905.569	17132
905.686	17273
905.803	17220
905.921	16885
906.038	17109
906.155	17083
906.272	16862
906.389	16934
906.506	16736
906.623	16706
906.74	16869
906.857	16630
906.974	16592
907.091	16797
907.208	16938
907.324	16767
907.441	16698
907.557	16443
907.674	16504
907.79	16375
907.907	16417
908.023	16497
908.139	16592
908.256	16558
908.372	16409
908.488	16371
908.604	16314
908.72	16249
908.836	16200
908.952	16268
909.068	16306
909.184	16284
909.3	16124
909.415	16341
909.531	16211
909.647	16013
909.762	15895
909.878	15968
909.993	15876
910.108	15975
910.224	15797
910.339	15895
910.454	15823
910.57	15793
910.685	15652
910.8	16044
910.915	15884
911.03	15812
911.145	15542
911.259	15485
911.374	15576
911.489	15462
911.604	15408
911.718	15245
911.833	15389
911.947	15287
912.062	15043
912.176	15268
912.291	15313
912.405	15154
912.519	15477
912.633	15439
912.748	15317
912.862	15287
912.976	15218
913.09	14986
913.204	15055
913.318	15097
913.431	15176
913.545	15184
913.659	15211
913.772	15051
913.886	14929
914	14906
914.113	15123
914.226	14960
914.34	14960
914.453	14640
914.566	14967
914.68	14826
914.793	14693
914.906	14621
915.019	14583
915.132	14552
915.245	14571
915.358	14575
915.47	14541
915.583	14621
915.696	14571
915.809	14636
915.921	14640
916.034	14579
916.146	14415
916.259	14358
916.371	14587
916.483	14514
916.595	14492
916.708	14381
916.82	14351
916.932	14396
917.044	14343
917.156	14271
917.268	14271
917.38	14195
917.491	14221
917.603	14176
917.715	14278
917.826	14320
917.938	14180
918.049	14096
918.161	14164
918.272	14278
918.384	14389
918.495	14210
918.606	14054
918.717	14024
918.828	14039
918.939	13940
919.05	13932
919.161	14005
919.272	13841
919.383	13849
919.494	14031
919.604	14229
919.715	13959
919.826	13845
919.936	13887
920.047	13989
920.157	13989
920.267	14149
920.378	14073
920.488	13955
920.598	14164
920.708	14202
920.818	14157
920.928	14142
921.038	14263
921.148	14168
921.258	13917
921.368	13791
921.477	13712
921.587	13704
921.697	13662
921.806	13765
921.916	13552
922.025	13411
922.134	13324
922.244	13297
922.353	13350
922.462	13232
922.571	13168
922.68	13046
922.789	12977
922.898	13031
923.007	13031
923.116	13000
923.224	13027
923.333	13012
923.442	12886
923.55	12821
923.659	12871
923.767	12970
923.876	12810
923.984	12859
924.092	12696
924.201	12837
924.309	12722
924.417	12776
924.525	12741
924.633	12688
924.741	13464
924.849	12475
924.956	12673
925.064	12540
925.172	12437
925.279	12391
925.387	12498
925.494	12441
925.602	12544
925.709	12429
925.816	12380
925.924	12353
926.031	12536
926.138	12403
926.245	12410
926.352	12315
926.459	12490
926.566	12540
926.673	12350
926.779	12201
926.886	12239
926.993	12091
927.099	12098
927.206	12045
927.312	11939
927.419	12148
927.525	12041
927.631	12030
927.737	11889
927.843	11866
927.95	11783
928.056	11878
928.162	11889
928.267	11958
928.373	12555
928.479	11927
928.585	11695
928.69	11851
928.796	11745
928.901	11756
929.007	11684
929.112	11767
929.218	11646
929.323	11649
929.428	11570
929.533	11779
929.638	11486
929.743	11558
929.848	11592
929.953	11551
930.058	11490
930.163	11318
930.267	11269
930.372	11455
930.477	11334
930.581	11554
930.685	11341
930.79	11246
930.894	11258
930.998	11212
931.103	11303
931.207	10972
931.311	10881
931.415	10767
931.519	10618
931.623	10649
