Data from test_V78500241_2676.txt Node
Date: Fri Mar 25 15:28:29 CST 2022
User: usil
Spectrometer: V785-0024
Trigger mode: 0
Integration Time (sec): 4.000000E-1
Scans to average: 1
Nonlinearity correction enabled: false
Boxcar width: 0
Storing dark spectrum: false
XAxis mode: Wavelengths
Number of Pixels in Spectrum: 1024
>>>>>Begin Spectral Data<<<<<
801.071	27058
801.214	26967
801.356	26731
801.499	26579
801.641	26446
801.783	26423
801.926	26488
802.068	26495
802.211	26377
802.353	26415
802.496	26088
802.638	26202
802.78	26168
802.923	26122
803.065	26005
803.208	25986
803.35	26252
803.492	26298
803.635	26396
803.777	26221
803.919	26229
804.061	26522
804.204	26427
804.346	26111
804.488	26020
804.63	26130
804.773	26191
804.915	26366
805.057	26317
805.199	26271
805.341	26248
805.483	26453
805.626	26522
805.768	26320
805.91	26415
806.052	26389
806.194	26362
806.336	26503
806.478	26377
806.62	26404
806.762	26385
806.904	26568
807.046	26765
807.188	26876
807.33	26731
807.472	26731
807.614	26632
807.756	26701
807.898	26701
808.04	26579
808.182	26636
808.324	26571
808.465	26648
808.607	26758
808.749	26902
808.891	27001
809.033	27051
809.174	26967
809.316	26880
809.458	26906
809.6	26906
809.741	27039
809.883	26979
810.025	27264
810.166	27169
810.308	27127
810.45	27096
810.591	27020
810.733	27009
810.875	26887
811.016	26830
811.158	26868
811.299	26944
811.441	27020
811.582	27116
811.724	26861
811.865	26826
812.007	26815
812.148	26933
812.29	26914
812.431	26982
812.573	27264
812.714	27279
812.855	27435
812.997	27504
813.138	27580
813.279	27466
813.421	27245
813.562	27306
813.703	27222
813.845	27093
813.986	26689
814.127	26686
814.268	26484
814.41	26427
814.551	26484
814.692	26621
814.833	26381
814.974	26594
815.115	26640
815.256	26374
815.397	26324
815.539	26412
815.68	26214
815.821	26298
815.962	26317
816.103	26256
816.244	26145
816.385	26081
816.526	26077
816.666	26005
816.807	25875
816.948	25890
817.089	25936
817.23	25932
817.371	25769
817.512	25830
817.653	25791
817.793	25761
817.934	25818
818.075	25734
818.216	25765
818.356	25757
818.497	25624
818.638	25624
818.778	25434
818.919	25514
819.06	25540
819.2	25708
819.341	25693
819.481	25883
819.622	26001
819.762	26027
819.903	26092
820.043	25947
820.184	25811
820.324	25833
820.465	25974
820.605	25902
820.746	25868
820.886	25769
821.026	25936
821.167	25875
821.307	25845
821.447	25761
821.588	25742
821.728	25624
821.868	25449
822.008	25304
822.149	25343
822.289	25110
822.429	24973
822.569	24856
822.709	24837
822.849	24730
822.99	24791
823.13	24844
823.27	24772
823.41	24684
823.55	24585
823.69	24578
823.83	24585
823.97	24467
824.11	24311
824.25	24304
824.389	24376
824.529	24559
824.669	24338
824.809	24441
824.949	24490
825.089	24502
825.228	24456
825.368	24254
825.508	24117
825.648	24239
825.787	24182
825.927	24330
826.067	24228
826.206	24346
826.346	24174
826.485	24338
826.625	24258
826.765	24319
826.904	24445
827.044	24194
827.183	24068
827.323	23885
827.462	24011
827.601	24057
827.741	24038
827.88	23927
828.02	23859
828.159	23958
828.298	23961
828.437	24205
828.577	23859
828.716	24068
828.855	23904
828.994	23668
829.134	23771
829.273	23748
829.412	23707
829.551	23608
829.69	23638
829.829	23589
829.968	23767
830.107	23779
830.246	23680
830.385	23581
830.524	23729
830.663	23543
830.802	23436
830.941	23235
831.08	23261
831.219	23337
831.357	23307
831.496	23406
831.635	23265
831.774	23311
831.913	23075
832.051	23025
832.19	22946
832.329	23147
832.467	23067
832.606	22949
832.744	22908
832.883	23052
833.022	23071
833.16	23029
833.299	22930
833.437	22930
833.576	22968
833.714	23018
833.852	23185
833.991	23033
834.129	23060
834.267	23094
834.406	23056
834.544	22984
834.682	22972
834.821	23064
834.959	23277
835.097	22980
835.235	23105
835.373	23052
835.511	23060
835.65	23022
835.788	22805
835.926	22706
836.064	22702
836.202	22713
836.34	22809
836.478	22850
836.615	22820
836.753	22919
836.891	22961
837.029	22904
837.167	22778
837.305	22805
837.443	22774
837.58	22668
837.718	22790
837.856	22828
837.993	22656
838.131	22660
838.269	22542
838.406	22550
838.544	22527
838.681	22367
838.819	22436
838.956	22143
839.094	22272
839.231	22223
839.369	22535
839.506	22611
839.643	22432
839.781	22234
839.918	22166
840.055	22223
840.193	22147
840.33	22128
840.467	22238
840.604	22306
840.742	22371
840.879	22040
841.016	22070
841.153	22036
841.29	22055
841.427	22116
841.564	22188
841.701	22143
841.838	22120
841.975	21979
842.112	22048
842.249	22090
842.385	21941
842.522	22261
842.659	21937
842.796	21831
842.933	21945
843.069	21804
843.206	21941
843.343	21953
843.479	21960
843.616	21994
843.752	21701
843.889	21781
844.025	21869
844.162	21583
844.298	21637
844.435	21694
844.571	21603
844.708	21850
844.844	21960
844.98	21759
845.117	21781
845.253	21622
845.389	21450
845.525	21488
845.661	21435
845.798	21511
845.934	21454
846.07	21332
846.206	21420
846.342	21500
846.478	21416
846.614	21165
846.75	21138
846.886	21226
847.022	21173
847.158	21256
847.294	21131
847.429	21169
847.565	21161
847.701	21325
847.837	20765
847.972	21020
848.108	20994
848.244	20941
848.379	20735
848.515	20777
848.65	20777
848.786	20731
848.921	20830
849.057	20834
849.192	20975
849.328	20785
849.463	20765
849.598	20659
849.734	20617
849.869	20495
850.004	20507
850.14	20651
850.275	20571
850.41	20355
850.545	20408
850.68	20537
850.815	20389
850.95	20495
851.085	20575
851.22	20674
851.355	20568
851.49	20415
851.625	20431
851.76	20434
851.895	20446
852.03	20503
852.165	20438
852.299	20659
852.434	20522
852.569	20492
852.703	20590
852.838	20511
852.973	20712
853.107	20514
853.242	20556
853.376	20259
853.511	20275
853.645	20275
853.78	20427
853.914	20396
854.048	20343
854.183	20324
854.317	20317
854.451	20568
854.585	20305
854.72	20336
854.854	20419
854.988	20298
855.122	20351
855.256	20142
855.39	20298
855.524	20393
855.658	20347
855.792	20393
855.926	20244
856.06	20313
856.194	20389
856.327	20328
856.461	20176
856.595	20237
856.729	20290
856.862	20465
856.996	20408
857.13	20423
857.263	20503
857.397	20393
857.53	20271
857.664	20324
857.797	20454
857.931	20408
858.064	20320
858.197	20434
858.331	20221
858.464	20176
858.597	20259
858.731	20301
858.864	20309
858.997	20343
859.13	20336
859.263	20400
859.396	20431
859.529	20377
859.662	20271
859.795	20415
859.928	20301
860.061	20454
860.194	20598
860.327	20362
860.46	20461
860.592	20552
860.725	20480
860.858	20438
860.99	20252
861.123	20286
861.256	20244
861.388	20362
861.521	21043
861.653	20256
861.786	20153
861.918	20138
862.05	20172
862.183	20355
862.315	20214
862.447	20263
862.58	20244
862.712	20043
862.844	20145
862.976	20096
863.108	20043
863.24	20511
863.372	19951
863.504	20027
863.636	19955
863.768	20103
863.9	20092
864.032	19921
864.164	20081
864.296	20077
864.428	20180
864.559	20157
864.691	20202
864.823	20043
864.954	20164
865.086	19986
865.217	19986
865.349	19887
865.48	20084
865.612	19887
865.743	20069
865.875	19906
866.006	20005
866.137	20012
866.269	19913
866.4	20035
866.531	19955
866.662	19932
866.793	19947
866.924	19845
867.055	19917
867.186	19906
867.317	19932
867.448	19833
867.579	19925
867.71	19902
867.841	19898
867.972	19947
868.103	19871
868.233	19986
868.364	19894
868.495	20058
868.625	20084
868.756	20259
868.886	20077
869.017	20202
869.147	20237
869.278	20252
869.408	20233
869.539	20130
869.669	20138
869.799	20195
869.929	20286
870.06	20195
870.19	20461
870.32	20564
870.45	20415
870.58	20438
870.71	20564
870.84	20629
870.97	20518
871.1	20492
871.23	20845
871.36	20796
871.489	20613
871.619	20754
871.749	20769
871.879	20727
872.008	20876
872.138	20716
872.267	20670
872.397	20724
872.526	20636
872.656	20590
872.785	20667
872.915	20701
873.044	20849
873.173	20861
873.303	20804
873.432	20826
873.561	20880
873.69	20785
873.819	20910
873.948	20887
874.077	20781
874.206	20716
874.335	20765
874.464	20944
874.593	21036
874.722	20914
874.851	21085
874.979	21051
875.108	21070
875.237	20925
875.365	20948
875.494	21001
875.623	21066
875.751	21009
875.88	20986
876.008	21161
876.136	21241
876.265	21397
876.393	21538
876.521	21515
876.65	21431
876.778	21545
876.906	21329
877.034	21268
877.162	21462
877.29	21332
877.418	21260
877.546	21363
877.674	21340
877.802	21302
877.93	21298
878.058	21272
878.185	21332
878.313	21367
878.441	21389
878.568	21104
878.696	21272
878.824	21367
878.951	21454
879.079	21511
879.206	21660
879.333	21656
879.461	21378
879.588	21519
879.715	21564
879.842	21633
879.97	21329
880.097	21329
880.224	21287
880.351	21329
880.478	21298
880.605	21131
880.732	21237
880.859	21473
880.986	21294
881.112	21222
881.239	21135
881.366	20952
881.493	20883
881.619	20659
881.746	20868
881.872	20845
881.999	20815
882.125	20678
882.252	20788
882.378	20823
882.505	20948
882.631	20556
882.757	20480
882.883	20640
883.01	20522
883.136	20473
883.262	20358
883.388	20389
883.514	20568
883.64	20530
883.766	20412
883.892	20347
884.018	20351
884.143	20438
884.269	20511
884.395	20385
884.52	20100
884.646	20145
884.772	20164
884.897	20103
885.023	20119
885.148	20218
885.274	20393
885.399	20252
885.524	20122
885.65	20142
885.775	20134
885.9	20035
886.025	20290
886.15	20267
886.275	20069
886.4	20183
886.525	20122
886.65	20008
886.775	20084
886.9	20275
887.025	20396
887.149	20145
887.274	19909
887.399	19944
887.523	19959
887.648	19909
887.773	19784
887.897	20035
888.021	19970
888.146	19864
888.27	20077
888.395	20084
888.519	19944
888.643	19879
888.767	19955
888.891	19746
889.015	19662
889.139	19902
889.263	19681
889.387	19708
889.511	19944
889.635	19871
889.759	19803
889.883	19811
890.006	19689
890.13	19769
890.254	19590
890.377	19647
890.501	19616
890.624	19438
890.748	19514
890.871	19293
890.995	19419
891.118	19316
891.241	19240
891.364	19403
891.488	19476
891.611	19327
891.734	19403
891.857	19415
891.98	19331
892.103	19369
892.226	19388
892.349	19247
892.471	19118
892.594	19160
892.717	19228
892.839	19152
892.962	19217
893.085	19274
893.207	19240
893.33	19202
893.452	19148
893.575	19263
893.697	19129
893.819	19514
893.941	19396
894.064	19324
894.186	19221
894.308	19057
894.43	19244
894.552	19369
894.674	19266
894.796	19168
894.918	19221
895.04	19187
895.161	19297
895.283	19282
895.405	19213
895.526	19206
895.648	19282
895.769	19339
895.891	19312
896.012	19396
896.134	19285
896.255	19259
896.376	19247
896.498	19266
896.619	19255
896.74	19168
896.861	19278
896.982	19552
897.103	19727
897.224	19422
897.345	19525
897.466	19445
897.587	19480
897.708	19613
897.828	19521
897.949	19510
898.07	19297
898.19	19396
898.311	19586
898.431	19354
898.552	19415
898.672	19552
898.792	19468
898.913	19578
899.033	19422
899.153	19289
899.273	19198
899.393	19354
899.513	19335
899.633	19301
899.753	19346
899.873	19156
899.993	19301
900.113	19206
900.232	19209
900.352	19133
900.472	19019
900.591	18951
900.711	18947
900.83	19053
900.95	19053
901.069	19072
901.189	18924
901.308	18608
901.427	18654
901.546	18665
901.665	18677
901.784	18601
901.904	18479
902.023	18502
902.141	18308
902.26	18133
902.379	18304
902.498	18194
902.617	18117
902.735	18304
902.854	18155
902.973	18068
903.091	17836
903.21	17889
903.328	17745
903.446	17794
903.565	17726
903.683	17680
903.801	17554
903.919	17623
904.038	17592
904.156	17448
904.274	17581
904.392	17444
904.51	17364
904.627	17398
904.745	17490
904.863	17433
904.981	17155
905.098	17155
905.216	17132
905.334	17178
905.451	17094
905.569	17079
905.686	17117
905.803	17147
905.921	16938
906.038	16980
906.155	16885
906.272	16881
906.389	16847
906.506	16641
906.623	16637
906.74	16698
906.857	16561
906.974	16603
907.091	16660
907.208	16862
907.324	16710
907.441	16497
907.557	16386
907.674	16363
907.79	16291
907.907	16356
908.023	16451
908.139	16352
908.256	16428
908.372	16261
908.488	16280
908.604	16139
908.72	16143
908.836	16048
908.952	16188
909.068	16074
909.184	16158
909.3	16154
909.415	16200
909.531	16154
909.647	15876
909.762	15724
909.878	15713
909.993	15713
910.108	15857
910.224	15751
910.339	15861
910.454	15736
910.57	15587
910.685	15603
910.8	15869
910.915	15800
911.03	15603
911.145	15466
911.259	15523
911.374	15370
911.489	15405
911.604	15321
911.718	15222
911.833	15203
911.947	15089
912.062	14998
912.176	15245
912.291	15252
912.405	15222
912.519	15397
912.633	15275
912.748	15268
912.862	15207
912.976	15013
913.09	14880
913.204	14941
913.318	15116
913.431	15154
913.545	15081
913.659	14952
913.772	14963
913.886	14876
914	14864
914.113	14933
914.226	15005
914.34	14921
914.453	14708
914.566	14868
914.68	14720
914.793	14701
914.906	14514
915.019	14351
915.132	14446
915.245	14495
915.358	14457
915.47	14465
915.583	14377
915.696	14507
915.809	14602
915.921	14598
916.034	14381
916.146	14370
916.259	14389
916.371	14438
916.483	14396
916.595	14343
916.708	14278
916.82	14339
916.932	14294
917.044	14244
917.156	14218
917.268	14103
917.38	14180
917.491	14168
917.603	14172
917.715	14157
917.826	14221
917.938	14134
918.049	14035
918.161	14058
918.272	14157
918.384	14229
918.495	14077
918.606	13959
918.717	13784
918.828	13909
918.939	13955
919.05	13868
919.161	13849
919.272	13696
919.383	13677
919.494	13887
919.604	14088
919.715	13944
919.826	13772
919.936	13807
920.047	13974
920.157	13871
920.267	14115
920.378	13849
920.488	13791
920.598	13928
920.708	14180
920.818	14016
920.928	13970
921.038	14225
921.148	14126
921.258	13917
921.368	13833
921.477	13674
921.587	13609
921.697	13510
921.806	13548
921.916	13533
922.025	13346
922.134	13240
922.244	13278
922.353	13244
922.462	13129
922.571	13137
922.68	12993
922.789	12909
922.898	12958
923.007	12840
923.116	12886
923.224	12875
923.333	12817
923.442	12821
923.55	12772
923.659	12821
923.767	12749
923.876	12669
923.984	12817
924.092	12681
924.201	12658
924.309	12650
924.417	12582
924.525	12688
924.633	12665
924.741	13609
924.849	12464
924.956	12532
925.064	12327
925.172	12338
925.279	12334
925.387	12330
925.494	12395
925.602	12509
925.709	12486
925.816	12232
925.924	12270
926.031	12475
926.138	12350
926.245	12369
926.352	12251
926.459	12369
926.566	12384
926.673	12258
926.779	12186
926.886	12087
926.993	12072
927.099	11935
927.206	11942
927.312	11863
927.419	12034
927.525	11977
927.631	11954
927.737	11859
927.843	11859
927.95	11634
928.056	11767
928.162	11897
928.267	11840
928.373	12346
928.479	11885
928.585	11592
928.69	11745
928.796	11855
928.901	11688
929.007	11497
929.112	11589
929.218	11600
929.323	11516
929.428	11497
929.533	11539
929.638	11417
929.743	11452
929.848	11566
929.953	11459
930.058	11322
930.163	11208
930.267	11265
930.372	11372
930.477	11216
930.581	11421
930.685	11296
930.79	11056
930.894	11113
930.998	11033
931.103	11185
931.207	10889
931.311	10847
931.415	10717
931.519	10527
931.623	10519
