Data from test_V78500241_2749.txt Node
Date: Fri Mar 25 15:29:00 CST 2022
User: usil
Spectrometer: V785-0024
Trigger mode: 0
Integration Time (sec): 4.000000E-1
Scans to average: 1
Nonlinearity correction enabled: false
Boxcar width: 0
Storing dark spectrum: false
XAxis mode: Wavelengths
Number of Pixels in Spectrum: 1024
>>>>>Begin Spectral Data<<<<<
801.071	26948
801.214	26891
801.356	26834
801.499	26655
801.641	26317
801.783	26453
801.926	26678
802.068	26526
802.211	26503
802.353	26290
802.496	26214
802.638	26084
802.78	26122
802.923	26100
803.065	25966
803.208	25928
803.35	26164
803.492	26320
803.635	26294
803.777	26172
803.919	26366
804.061	26537
804.204	26187
804.346	26229
804.488	26229
804.63	26202
804.773	26119
804.915	26412
805.057	26339
805.199	26202
805.341	26267
805.483	26400
805.626	26423
805.768	26214
805.91	26282
806.052	26427
806.194	26366
806.336	26431
806.478	26385
806.62	26343
806.762	26507
806.904	26571
807.046	27066
807.188	26777
807.33	26921
807.472	26796
807.614	26594
807.756	26777
807.898	26575
808.04	26503
808.182	26499
808.324	26632
808.465	26617
808.607	26899
808.749	26910
808.891	27070
809.033	27176
809.174	27039
809.316	26845
809.458	26872
809.6	26933
809.741	27001
809.883	27176
810.025	27188
810.166	27264
810.308	27237
810.45	27055
810.591	27116
810.733	26940
810.875	26921
811.016	26895
811.158	26857
811.299	27028
811.441	27199
811.582	26990
811.724	26842
811.865	27036
812.007	26868
812.148	27047
812.29	26971
812.431	27058
812.573	27275
812.714	27325
812.855	27450
812.997	27549
813.138	27713
813.279	27519
813.421	27450
813.562	27378
813.703	27123
813.845	27093
813.986	26880
814.127	26731
814.268	26602
814.41	26625
814.551	26663
814.692	26571
814.833	26579
814.974	26541
815.115	26651
815.256	26518
815.397	26453
815.539	26613
815.68	26355
815.821	26290
815.962	26305
816.103	26206
816.244	26092
816.385	26252
816.526	26088
816.666	25997
816.807	25860
816.948	25845
817.089	26035
817.23	25921
817.371	25795
817.512	25799
817.653	25750
817.793	25791
817.934	25822
818.075	25799
818.216	25864
818.356	25715
818.497	25677
818.638	25586
818.778	25548
818.919	25613
819.06	25605
819.2	25693
819.341	25811
819.481	25852
819.622	26077
819.762	26282
819.903	26084
820.043	25860
820.184	25944
820.324	26039
820.465	25963
820.605	25875
820.746	25902
820.886	25822
821.026	25871
821.167	25845
821.307	25871
821.447	25788
821.588	25830
821.728	25693
821.868	25552
822.008	25289
822.149	25278
822.289	25297
822.429	25107
822.569	24878
822.709	25091
822.849	24829
822.99	24943
823.13	24852
823.27	24760
823.41	24650
823.55	24578
823.69	24585
823.83	24696
823.97	24570
824.11	24391
824.25	24505
824.389	24502
824.529	24353
824.669	24433
824.809	24536
824.949	24578
825.089	24509
825.228	24452
825.368	24334
825.508	24182
825.648	24205
825.787	24201
825.927	24384
826.067	24266
826.206	24197
826.346	24216
826.485	24467
826.625	24243
826.765	24353
826.904	24407
827.044	24049
827.183	23988
827.323	23954
827.462	24076
827.601	23965
827.741	23992
827.88	23946
828.02	24007
828.159	23939
828.298	23836
828.437	24155
828.577	23813
828.716	24064
828.855	23920
828.994	23729
829.134	23737
829.273	23695
829.412	23646
829.551	23638
829.69	23710
829.829	23748
829.968	23805
830.107	23707
830.246	23684
830.385	23672
830.524	23615
830.663	23547
830.802	23383
830.941	23307
831.08	23315
831.219	23379
831.357	23360
831.496	23493
831.635	23303
831.774	23147
831.913	23284
832.051	23075
832.19	23044
832.329	23079
832.467	23079
832.606	23003
832.744	22942
832.883	22980
833.022	23025
833.16	23105
833.299	23041
833.437	22984
833.576	23105
833.714	23140
833.852	23086
833.991	22995
834.129	23303
834.267	22995
834.406	23060
834.544	23178
834.682	23086
834.821	23052
834.959	23102
835.097	23037
835.235	23086
835.373	22934
835.511	22949
835.65	22797
835.788	22873
835.926	22839
836.064	22668
836.202	22733
836.34	22900
836.478	22987
836.615	22866
836.753	22908
836.891	22934
837.029	22885
837.167	22923
837.305	22759
837.443	22752
837.58	22812
837.718	22805
837.856	22607
837.993	22611
838.131	22748
838.269	22675
838.406	22683
838.544	22656
838.681	22352
838.819	22291
838.956	22185
839.094	22280
839.231	22226
839.369	22379
839.506	22744
839.643	22363
839.781	22287
839.918	22154
840.055	22150
840.193	22143
840.33	22150
840.467	22139
840.604	22265
840.742	22481
840.879	22017
841.016	22116
841.153	22219
841.29	22226
841.427	22196
841.564	22055
841.701	22101
841.838	22116
841.975	21918
842.112	22246
842.249	22036
842.385	22017
842.522	22230
842.659	22044
842.796	21972
842.933	21888
843.069	21816
843.206	21819
843.343	21922
843.479	21770
843.616	21876
843.752	21717
843.889	21736
844.025	21884
844.162	21709
844.298	21770
844.435	21705
844.571	21652
844.708	21770
844.844	21698
844.98	21717
845.117	21850
845.253	21511
845.389	21526
845.525	21564
845.661	21614
845.798	21477
845.934	21549
846.07	21382
846.206	21458
846.342	21515
846.478	21408
846.614	21268
846.75	21169
846.886	21157
847.022	21313
847.158	21321
847.294	21154
847.429	21173
847.565	21154
847.701	21370
847.837	20925
847.972	20800
848.108	20944
848.244	20956
848.379	20765
848.515	20765
848.65	20705
848.786	20834
848.921	20720
849.057	20792
849.192	20769
849.328	20765
849.463	20929
849.598	20769
849.734	20735
849.869	20613
850.004	20503
850.14	20575
850.275	20533
850.41	20469
850.545	20454
850.68	20469
850.815	20640
850.95	20549
851.085	20636
851.22	20594
851.355	20579
851.49	20412
851.625	20275
851.76	20511
851.895	20511
852.03	20438
852.165	20450
852.299	20644
852.434	20659
852.569	20571
852.703	20689
852.838	20560
852.973	20636
853.107	20712
853.242	20473
853.376	20305
853.511	20309
853.645	20366
853.78	20454
853.914	20309
854.048	20305
854.183	20202
854.317	20404
854.451	20583
854.585	20332
854.72	20267
854.854	20442
854.988	20286
855.122	20396
855.256	20161
855.39	20301
855.524	20358
855.658	20374
855.792	20324
855.926	20408
856.06	20374
856.194	20556
856.327	20343
856.461	20267
856.595	20298
856.729	20358
856.862	20298
856.996	20412
857.13	20393
857.263	20469
857.397	20370
857.53	20366
857.664	20442
857.797	20415
857.931	20461
858.064	20290
858.197	20507
858.331	20195
858.464	20298
858.597	20294
858.731	20263
858.864	20415
858.997	20256
859.13	20309
859.263	20393
859.396	20454
859.529	20366
859.662	20351
859.795	20240
859.928	20259
860.061	20507
860.194	20492
860.327	20431
860.46	20290
860.592	20495
860.725	20499
860.858	20526
860.99	20393
861.123	20278
861.256	20256
861.388	20324
861.521	20872
861.653	20176
861.786	20103
861.918	20210
862.05	20263
862.183	20237
862.315	20218
862.447	20309
862.58	20256
862.712	20126
862.844	20016
862.976	20092
863.108	20149
863.24	20564
863.372	20012
863.504	20096
863.636	20180
863.768	20043
863.9	20187
864.032	19967
864.164	19989
864.296	20077
864.428	20294
864.559	20172
864.691	20115
864.823	20100
864.954	20111
865.086	20081
865.217	20012
865.349	20050
865.48	19932
865.612	19928
865.743	20035
865.875	20054
866.006	19871
866.137	19928
866.269	19868
866.4	19974
866.531	19906
866.662	19871
866.793	19963
866.924	19955
867.055	19955
867.186	19887
867.317	19970
867.448	19830
867.579	19845
867.71	19936
867.841	19742
867.972	19871
868.103	19883
868.233	19932
868.364	20001
868.495	20077
868.625	20164
868.756	20259
868.886	20100
869.017	20126
869.147	20275
869.278	20286
869.408	20122
869.539	20206
869.669	20180
869.799	20195
869.929	20206
870.06	20298
870.19	20495
870.32	20503
870.45	20442
870.58	20587
870.71	20636
870.84	20648
870.97	20522
871.1	20552
871.23	20629
871.36	20754
871.489	20743
871.619	20762
871.749	20682
871.879	20727
872.008	20845
872.138	20769
872.267	20739
872.397	20522
872.526	20640
872.656	20632
872.785	20754
872.915	20712
873.044	20754
873.173	20731
873.303	20933
873.432	20792
873.561	20876
873.69	20712
873.819	20796
873.948	20819
874.077	20705
874.206	20705
874.335	20758
874.464	20804
874.593	21070
874.722	21108
874.851	21028
874.979	20967
875.108	21119
875.237	21070
875.365	20876
875.494	21017
875.623	21070
875.751	20963
875.88	20990
876.008	21237
876.136	21161
876.265	21378
876.393	21447
876.521	21561
876.65	21595
876.778	21473
876.906	21431
877.034	21321
877.162	21344
877.29	21355
877.418	21424
877.546	21405
877.674	21492
877.802	21447
877.93	21378
878.058	21428
878.185	21279
878.313	21279
878.441	21382
878.568	21226
878.696	21336
878.824	21454
878.951	21447
879.079	21523
879.206	21606
879.333	21572
879.461	21408
879.588	21549
879.715	21530
879.842	21614
879.97	21348
880.097	21233
880.224	21135
880.351	21241
880.478	21188
880.605	21142
880.732	21203
880.859	21523
880.986	21222
881.112	21222
881.239	21188
881.366	20994
881.493	20933
881.619	20842
881.746	20754
881.872	20754
881.999	20659
882.125	20712
882.252	20807
882.378	20743
882.505	20891
882.631	20655
882.757	20590
882.883	20533
883.01	20526
883.136	20522
883.262	20355
883.388	20415
883.514	20514
883.64	20541
883.766	20412
883.892	20332
884.018	20309
884.143	20419
884.269	20473
884.395	20305
884.52	20145
884.646	20237
884.772	20096
884.897	20187
885.023	20145
885.148	20233
885.274	20275
885.399	20206
885.524	20214
885.65	20130
885.775	20191
885.9	20145
886.025	20187
886.15	20202
886.275	20142
886.4	20001
886.525	20096
886.65	19982
886.775	20058
886.9	20328
887.025	20385
887.149	20084
887.274	19887
887.399	19841
887.523	19871
887.648	19822
887.773	19963
887.897	20024
888.021	19868
888.146	19974
888.27	19993
888.395	19993
888.519	19913
888.643	19944
888.767	19928
888.891	19879
889.015	19746
889.139	19651
889.263	19757
889.387	19887
889.511	19986
889.635	19780
889.759	19731
889.883	19784
890.006	19795
890.13	19871
890.254	19594
890.377	19666
890.501	19525
890.624	19476
890.748	19537
890.871	19499
890.995	19324
891.118	19331
891.241	19400
891.364	19362
891.488	19400
891.611	19289
891.734	19350
891.857	19430
891.98	19392
892.103	19384
892.226	19400
892.349	19339
892.471	19122
892.594	19240
892.717	19228
892.839	19259
892.962	19236
893.085	19297
893.207	19263
893.33	19118
893.452	19251
893.575	19308
893.697	19206
893.819	19373
893.941	19350
894.064	19331
894.186	19152
894.308	19331
894.43	19339
894.552	19426
894.674	19449
894.796	19228
894.918	19308
895.04	19034
895.161	19255
895.283	19293
895.405	19232
895.526	19316
895.648	19213
895.769	19206
895.891	19285
896.012	19506
896.134	19278
896.255	19244
896.376	19114
896.498	19259
896.619	19251
896.74	19240
896.861	19415
896.982	19521
897.103	19647
897.224	19514
897.345	19392
897.466	19422
897.587	19480
897.708	19723
897.828	19491
897.949	19441
898.07	19335
898.19	19362
898.311	19647
898.431	19438
898.552	19472
898.672	19586
898.792	19453
898.913	19540
899.033	19407
899.153	19388
899.273	19259
899.393	19240
899.513	19289
899.633	19373
899.753	19293
899.873	19316
899.993	19213
900.113	19228
900.232	19293
900.352	19213
900.472	19187
900.591	18977
900.711	19042
900.83	19004
900.95	19171
901.069	19088
901.189	19023
901.308	18696
901.427	18688
901.546	18631
901.665	18627
901.784	18650
901.904	18544
902.023	18441
902.141	18232
902.26	18209
902.379	18163
902.498	18129
902.617	18277
902.735	18209
902.854	18015
902.973	18102
903.091	17935
903.21	17828
903.328	17874
903.446	17798
903.565	17722
903.683	17642
903.801	17707
903.919	17638
904.038	17535
904.156	17433
904.274	17619
904.392	17444
904.51	17387
904.627	17410
904.745	17436
904.863	17383
904.981	17269
905.098	17181
905.216	17189
905.334	17193
905.451	17174
905.569	17121
905.686	17231
905.803	17117
905.921	16919
906.038	17060
906.155	16915
906.272	16793
906.389	16862
906.506	16679
906.623	16744
906.74	16519
906.857	16565
906.974	16569
907.091	16664
907.208	16706
907.324	16664
907.441	16603
907.557	16360
907.674	16519
907.79	16322
907.907	16310
908.023	16451
908.139	16424
908.256	16409
908.372	16253
908.488	16246
908.604	16169
908.72	16074
908.836	16078
908.952	16116
909.068	16154
909.184	16166
909.3	16044
909.415	16143
909.531	16135
909.647	15846
909.762	15797
909.878	15778
909.993	15854
910.108	15774
910.224	15663
910.339	15922
910.454	15751
910.57	15648
910.685	15584
910.8	15842
910.915	15831
911.03	15656
911.145	15393
911.259	15428
911.374	15424
911.489	15344
911.604	15241
911.718	15077
911.833	15180
911.947	15024
912.062	15070
912.176	15272
912.291	15230
912.405	15249
912.519	15424
912.633	15359
912.748	15283
912.862	15131
912.976	15097
913.09	14925
913.204	15005
913.318	15001
913.431	15116
913.545	15104
913.659	15131
913.772	14906
913.886	14887
914	14705
914.113	14952
914.226	14883
914.34	14868
914.453	14621
914.566	14853
914.68	14724
914.793	14670
914.906	14526
915.019	14503
915.132	14358
915.245	14419
915.358	14404
915.47	14514
915.583	14556
915.696	14533
915.809	14552
915.921	14560
916.034	14389
916.146	14275
916.259	14324
916.371	14442
916.483	14507
916.595	14229
916.708	14313
916.82	14210
916.932	14240
917.044	14267
917.156	14240
917.268	14058
917.38	14164
917.491	14130
917.603	14046
917.715	14313
917.826	14298
917.938	14138
918.049	13875
918.161	14073
918.272	14149
918.384	14206
918.495	14046
918.606	13989
918.717	13776
918.828	13928
918.939	13936
919.05	13799
919.161	13852
919.272	13693
919.383	13765
919.494	13898
919.604	14043
919.715	13936
919.826	13791
919.936	13830
920.047	13921
920.157	13902
920.267	14096
920.378	13871
920.488	13807
920.598	14058
920.708	14149
920.818	14065
920.928	14031
921.038	14149
921.148	14259
921.258	13890
921.368	13719
921.477	13632
921.587	13578
921.697	13506
921.806	13636
921.916	13514
922.025	13346
922.134	13324
922.244	13255
922.353	13426
922.462	13225
922.571	13069
922.68	12939
922.789	12951
922.898	13031
923.007	12871
923.116	12939
923.224	12909
923.333	12970
923.442	12829
923.55	12844
923.659	12715
923.767	12837
923.876	12734
923.984	12764
924.092	12627
924.201	12646
924.309	12711
924.417	12730
924.525	12715
924.633	12654
924.741	13590
924.849	12414
924.956	12509
925.064	12414
925.172	12296
925.279	12315
925.387	12380
925.494	12289
925.602	12544
925.709	12528
925.816	12277
925.924	12388
926.031	12407
926.138	12289
926.245	12334
926.352	12247
926.459	12418
926.566	12429
926.673	12319
926.779	12220
926.886	12072
926.993	12102
927.099	11992
927.206	11874
927.312	11847
927.419	11958
927.525	11977
927.631	11923
927.737	11912
927.843	11870
927.95	11714
928.056	11813
928.162	11805
928.267	11840
928.373	12433
928.479	11866
928.585	11566
928.69	11786
928.796	11764
928.901	11691
929.007	11463
929.112	11707
929.218	11573
929.323	11535
929.428	11520
929.533	11634
929.638	11573
929.743	11467
929.848	11505
929.953	11535
930.058	11448
930.163	11265
930.267	11227
930.372	11406
930.477	11197
930.581	11490
930.685	11235
930.79	11132
930.894	11189
930.998	11155
931.103	11185
931.207	10881
931.311	10854
931.415	10752
931.519	10603
931.623	10546
