Data from test_V78500241_704.txt Node
Date: Fri Mar 25 15:14:45 CST 2022
User: usil
Spectrometer: V785-0024
Trigger mode: 0
Integration Time (sec): 4.000000E-1
Scans to average: 1
Nonlinearity correction enabled: false
Boxcar width: 0
Storing dark spectrum: false
XAxis mode: Wavelengths
Number of Pixels in Spectrum: 1024
>>>>>Begin Spectral Data<<<<<
801.071	28017
801.214	27857
801.356	27633
801.499	27629
801.641	27591
801.783	27641
801.926	27652
802.068	27424
802.211	27481
802.353	27408
802.496	27195
802.638	27310
802.78	27138
802.923	27161
803.065	27058
803.208	27085
803.35	27135
803.492	27199
803.635	27287
803.777	27199
803.919	27367
804.061	27682
804.204	27450
804.346	27169
804.488	27329
804.63	27447
804.773	27374
804.915	27405
805.057	27389
805.199	27420
805.341	27401
805.483	27500
805.626	27545
805.768	27355
805.91	27454
806.052	27447
806.194	27374
806.336	27675
806.478	27389
806.62	27534
806.762	27637
806.904	27743
807.046	28010
807.188	28063
807.33	27907
807.472	27914
807.614	27911
807.756	27911
807.898	27842
808.04	27660
808.182	27770
808.324	27800
808.465	27804
808.607	28093
808.749	28200
808.891	28242
809.033	28299
809.174	28230
809.316	28219
809.458	28169
809.6	28234
809.741	28303
809.883	28249
810.025	28565
810.166	28360
810.308	28519
810.45	28348
810.591	28421
810.733	28181
810.875	28188
811.016	28204
811.158	28139
811.299	28295
811.441	28295
811.582	28322
811.724	28070
811.865	28086
812.007	28128
812.148	28211
812.29	28188
812.431	28413
812.573	28398
812.714	28702
812.855	28668
812.997	28721
813.138	29018
813.279	28900
813.421	28733
813.562	28736
813.703	28538
813.845	28569
813.986	28090
814.127	28078
814.268	27914
814.41	27812
814.551	27846
814.692	27911
814.833	27823
814.974	27880
815.115	27865
815.256	27736
815.397	27713
815.539	27774
815.68	27732
815.821	27724
815.962	27728
816.103	27770
816.244	27583
816.385	27488
816.526	27389
816.666	27477
816.807	26971
816.948	27169
817.089	27321
817.23	27294
817.371	27268
817.512	27203
817.653	27397
817.793	27199
817.934	27226
818.075	27222
818.216	27192
818.356	27207
818.497	27154
818.638	26933
818.778	26925
818.919	26868
819.06	26933
819.2	27043
819.341	27306
819.481	27192
819.622	27321
819.762	27492
819.903	27344
820.043	27401
820.184	27348
820.324	27382
820.465	27420
820.605	27321
820.746	27275
820.886	27154
821.026	27294
821.167	27123
821.307	27355
821.447	27249
821.588	27032
821.728	26998
821.868	26705
822.008	26674
822.149	26674
822.289	26606
822.429	26343
822.569	26469
822.709	26305
822.849	26259
822.99	26229
823.13	26248
823.27	26122
823.41	25936
823.55	25791
823.69	25970
823.83	26031
823.97	25917
824.11	25875
824.25	25731
824.389	25776
824.529	25936
824.669	25921
824.809	25913
824.949	25890
825.089	25780
825.228	25795
825.368	25723
825.508	25670
825.648	25658
825.787	25868
825.927	25742
826.067	25658
826.206	25605
826.346	25693
826.485	25803
826.625	25620
826.765	25822
826.904	25708
827.044	25487
827.183	25384
827.323	25343
827.462	25559
827.601	25426
827.741	25403
827.88	25460
828.02	25324
828.159	25335
828.298	25339
828.437	25491
828.577	25491
828.716	25377
828.855	25369
828.994	25050
829.134	25156
829.273	25160
829.412	24951
829.551	25114
829.69	25114
829.829	25137
829.968	25171
830.107	25194
830.246	25137
830.385	25046
830.524	25019
830.663	24810
830.802	24768
830.941	24757
831.08	24730
831.219	24700
831.357	24692
831.496	24924
831.635	24555
831.774	24616
831.913	24464
832.051	24494
832.19	24505
832.329	24540
832.467	24319
832.606	24266
832.744	24285
832.883	24384
833.022	24285
833.16	24437
833.299	24437
833.437	24407
833.576	24452
833.714	24372
833.852	24414
833.991	24467
834.129	24536
834.267	24483
834.406	24505
834.544	24456
834.682	24551
834.821	24437
834.959	24604
835.097	24391
835.235	24517
835.373	24357
835.511	24334
835.65	24277
835.788	24342
835.926	24125
836.064	24102
836.202	24277
836.34	24247
836.478	24338
836.615	24300
836.753	24342
836.891	24273
837.029	24148
837.167	24106
837.305	24186
837.443	24186
837.58	24064
837.718	24171
837.856	24171
837.993	24289
838.131	24144
838.269	23893
838.406	23973
838.544	23927
838.681	23714
838.819	23703
838.956	23592
839.094	23577
839.231	23680
839.369	23668
839.506	23973
839.643	23821
839.781	23600
839.918	23539
840.055	23402
840.193	23535
840.33	23467
840.467	23551
840.604	23474
840.742	23737
840.879	23410
841.016	23429
841.153	23463
841.29	23524
841.427	23398
841.564	23387
841.701	23421
841.838	23429
841.975	23368
842.112	23398
842.249	23307
842.385	23250
842.522	23414
842.659	23261
842.796	23239
842.933	23197
843.069	23204
843.206	23109
843.343	23258
843.479	23212
843.616	23227
843.752	22972
843.889	23029
844.025	23162
844.162	22972
844.298	23162
844.435	22885
844.571	22957
844.708	22999
844.844	23277
844.98	23220
845.117	23094
845.253	23018
845.389	22896
845.525	22965
845.661	22850
845.798	22793
845.934	22889
846.07	22675
846.206	22801
846.342	22839
846.478	22683
846.614	22470
846.75	22516
846.886	22405
847.022	22599
847.158	22417
847.294	22630
847.429	22493
847.565	22405
847.701	22599
847.837	22226
847.972	22135
848.108	22238
848.244	22162
848.379	22082
848.515	22059
848.65	22116
848.786	22025
848.921	22029
849.057	22044
849.192	22082
849.328	22063
849.463	22059
849.598	22166
849.734	21949
849.869	21937
850.004	21926
850.14	21793
850.275	21720
850.41	21854
850.545	21797
850.68	21743
850.815	21709
850.95	21823
851.085	22002
851.22	21888
851.355	21960
851.49	21857
851.625	21869
851.76	21800
851.895	21884
852.03	21827
852.165	21857
852.299	21755
852.434	21781
852.569	21846
852.703	21922
852.838	21892
852.973	22036
853.107	21907
853.242	21743
853.376	21652
853.511	21500
853.645	21637
853.78	21641
853.914	21648
854.048	21637
854.183	21603
854.317	21561
854.451	21804
854.585	21641
854.72	21644
854.854	21720
854.988	21599
855.122	21637
855.256	21633
855.39	21568
855.524	21690
855.658	21675
855.792	21618
855.926	21774
856.06	21694
856.194	21644
856.327	21618
856.461	21549
856.595	21572
856.729	21671
856.862	21736
856.996	21736
857.13	21755
857.263	21789
857.397	21671
857.53	21568
857.664	21618
857.797	21690
857.931	21732
858.064	21656
858.197	21785
858.331	21496
858.464	21576
858.597	21504
858.731	21576
858.864	21625
858.997	21576
859.13	21686
859.263	21614
859.396	21713
859.529	21576
859.662	21614
859.795	21675
859.928	21583
860.061	21644
860.194	21850
860.327	21705
860.46	21717
860.592	21694
860.725	21778
860.858	21713
860.99	21701
861.123	21701
861.256	21587
861.388	21644
861.521	22481
861.653	21652
861.786	21439
861.918	21466
862.05	21599
862.183	21511
862.315	21580
862.447	21564
862.58	21431
862.712	21272
862.844	21443
862.976	21485
863.108	21401
863.24	21789
863.372	21264
863.504	21363
863.636	21370
863.768	21370
863.9	21325
864.032	21268
864.164	21313
864.296	21401
864.428	21504
864.559	21389
864.691	21496
864.823	21306
864.954	21428
865.086	21294
865.217	21264
865.349	21089
865.48	21173
865.612	21233
865.743	21389
865.875	21218
866.006	21192
866.137	21214
866.269	21325
866.4	21180
866.531	21093
866.662	21112
866.793	21233
866.924	21180
867.055	21089
867.186	21154
867.317	21252
867.448	21154
867.579	21142
867.71	21074
867.841	21173
867.972	21093
868.103	21116
868.233	21123
868.364	21142
868.495	21336
868.625	21367
868.756	21587
868.886	21340
869.017	21378
869.147	21496
869.278	21519
869.408	21412
869.539	21450
869.669	21526
869.799	21435
869.929	21553
870.06	21477
870.19	21663
870.32	21690
870.45	21686
870.58	21720
870.71	21892
870.84	22032
870.97	21797
871.1	21736
871.23	22017
871.36	22010
871.489	21941
871.619	21850
871.749	22059
871.879	21979
872.008	22158
872.138	22101
872.267	22048
872.397	21953
872.526	21755
872.656	21884
872.785	21781
872.915	22044
873.044	22131
873.173	22048
873.303	22013
873.432	22158
873.561	22101
873.69	22010
873.819	22044
873.948	22192
874.077	22051
874.206	21922
874.335	21975
874.464	22166
874.593	22249
874.722	22139
874.851	22280
874.979	22219
875.108	22310
875.237	22177
875.365	22063
875.494	22211
875.623	22246
875.751	22188
875.88	22207
876.008	22314
876.136	22413
876.265	22782
876.393	22744
876.521	22592
876.65	22782
876.778	22672
876.906	22512
877.034	22649
877.162	22618
877.29	22565
877.418	22611
877.546	22611
877.674	22527
877.802	22588
877.93	22630
878.058	22485
878.185	22382
878.313	22557
878.441	22493
878.568	22440
878.696	22474
878.824	22698
878.951	22771
879.079	22683
879.206	22885
879.333	22687
879.461	22588
879.588	22679
879.715	22721
879.842	22774
879.97	22554
880.097	22360
880.224	22402
880.351	22436
880.478	22363
880.605	22371
880.732	22322
880.859	22462
880.986	22424
881.112	22485
881.239	22219
881.366	22112
881.493	22044
881.619	22032
881.746	22112
881.872	21892
881.999	21797
882.125	21899
882.252	21983
882.378	22002
882.505	22013
882.631	21770
882.757	21724
882.883	21854
883.01	21656
883.136	21549
883.262	21603
883.388	21389
883.514	21709
883.64	21648
883.766	21625
883.892	21477
884.018	21424
884.143	21709
884.269	21618
884.395	21481
884.52	21226
884.646	21397
884.772	21211
884.897	21077
885.023	21287
885.148	21424
885.274	21450
885.399	21302
885.524	21146
885.65	21344
885.775	21355
885.9	21241
886.025	21428
886.15	21370
886.275	21195
886.4	21256
886.525	21192
886.65	21310
886.775	21252
886.9	21477
887.025	21420
887.149	21264
887.274	21161
887.399	21119
887.523	21089
887.648	20921
887.773	21017
887.897	21081
888.021	21032
888.146	21028
888.27	21256
888.395	21146
888.519	21161
888.643	21039
888.767	21119
888.891	21020
889.015	20842
889.139	20918
889.263	20994
889.387	21020
889.511	20998
889.635	20975
889.759	20838
889.883	20868
890.006	20845
890.13	20925
890.254	20838
890.377	20769
890.501	20621
890.624	20560
890.748	20708
890.871	20518
890.995	20328
891.118	20377
891.241	20419
891.364	20412
891.488	20541
891.611	20328
891.734	20446
891.857	20461
891.98	20332
892.103	20476
892.226	20457
892.349	20332
892.471	20252
892.594	20332
892.717	20408
892.839	20328
892.962	20317
893.085	20404
893.207	20252
893.33	20115
893.452	20161
893.575	20408
893.697	20355
893.819	20511
893.941	20511
894.064	20385
894.186	20191
894.308	20290
894.43	20374
894.552	20488
894.674	20419
894.796	20229
894.918	20320
895.04	20259
895.161	20336
895.283	20259
895.405	20214
895.526	20298
895.648	20210
895.769	20278
895.891	20332
896.012	20438
896.134	20355
896.255	20244
896.376	20298
896.498	20294
896.619	20415
896.74	20240
896.861	20419
896.982	20678
897.103	20731
897.224	20621
897.345	20568
897.466	20442
897.587	20533
897.708	20533
897.828	20663
897.949	20495
898.07	20446
898.19	20454
898.311	20480
898.431	20499
898.552	20552
898.672	20644
898.792	20598
898.913	20583
899.033	20476
899.153	20377
899.273	20081
899.393	20161
899.513	20191
899.633	20332
899.753	20202
899.873	20237
899.993	20237
900.113	20206
900.232	20362
900.352	20168
900.472	20111
900.591	20069
900.711	20043
900.83	19906
900.95	20062
901.069	20103
901.189	19887
901.308	19712
901.427	19727
901.546	19708
901.665	19681
901.784	19609
901.904	19514
902.023	19331
902.141	19194
902.26	19225
902.379	19251
902.498	19312
902.617	19126
902.735	19304
902.854	19103
902.973	19061
903.091	18741
903.21	18817
903.328	18760
903.446	18646
903.565	18604
903.683	18612
903.801	18593
903.919	18597
904.038	18490
904.156	18410
904.274	18437
904.392	18399
904.51	18486
904.627	18357
904.745	18426
904.863	18437
904.981	18201
905.098	17927
905.216	18095
905.334	18003
905.451	18117
905.569	18003
905.686	18129
905.803	18030
905.921	17866
906.038	17916
906.155	17809
906.272	17832
906.389	17878
906.506	17668
906.623	17581
906.74	17627
906.857	17478
906.974	17512
907.091	17649
907.208	17649
907.324	17608
907.441	17414
907.557	17383
907.674	17455
907.79	17178
907.907	17303
908.023	17368
908.139	17299
908.256	17239
908.372	17162
908.488	17223
908.604	17060
908.72	16946
908.836	17079
908.952	16999
909.068	16995
909.184	17151
909.3	16957
909.415	17079
909.531	16991
909.647	16812
909.762	16797
909.878	16675
909.993	16710
910.108	16683
910.224	16679
910.339	16721
910.454	16691
910.57	16500
910.685	16516
910.8	16698
910.915	16698
911.03	16504
911.145	16337
911.259	16272
911.374	16299
911.489	16223
911.604	16177
911.718	16177
911.833	15991
911.947	16021
912.062	15949
912.176	16002
912.291	16128
912.405	16036
912.519	16257
912.633	16226
912.748	15975
912.862	16036
912.976	15888
913.09	15736
913.204	15819
913.318	15819
913.431	15945
913.545	15975
913.659	16010
913.772	15857
913.886	15663
914	15724
914.113	15876
914.226	15808
914.34	15690
914.453	15618
914.566	15667
914.68	15595
914.793	15523
914.906	15332
915.019	15233
915.132	15272
915.245	15260
915.358	15283
915.47	15325
915.583	15260
915.696	15321
915.809	15382
915.921	15325
916.034	15150
916.146	15131
916.259	15116
916.371	15230
916.483	15260
916.595	15119
916.708	15032
916.82	15081
916.932	14990
917.044	15112
917.156	15127
917.268	14929
917.38	14895
917.491	14921
917.603	14857
917.715	14990
917.826	14986
917.938	14849
918.049	14731
918.161	14925
918.272	14963
918.384	15039
918.495	14868
918.606	14746
918.717	14701
918.828	14663
918.939	14648
919.05	14659
919.161	14663
919.272	14488
919.383	14549
919.494	14750
919.604	14880
919.715	14602
919.826	14571
919.936	14617
920.047	14693
920.157	14697
920.267	14845
920.378	14686
920.488	14648
920.598	14834
920.708	15017
920.818	14845
920.928	14762
921.038	14933
921.148	14895
921.258	14522
921.368	14583
921.477	14442
921.587	14419
921.697	14206
921.806	14415
921.916	14221
922.025	14134
922.134	14020
922.244	14012
922.353	14031
922.462	13909
922.571	13871
922.68	13674
922.789	13590
922.898	13696
923.007	13616
923.116	13700
923.224	13586
923.333	13632
923.442	13548
923.55	13491
923.659	13445
923.767	13613
923.876	13472
923.984	13529
924.092	13384
924.201	13392
924.309	13308
924.417	13449
924.525	13240
924.633	13327
924.741	14050
924.849	13103
924.956	13270
925.064	13023
925.172	13065
925.279	13015
925.387	12996
925.494	13027
925.602	13198
925.709	13091
925.816	12981
925.924	12985
926.031	13004
926.138	12973
926.245	13008
926.352	12863
926.459	12947
926.566	13053
926.673	12958
926.779	12829
926.886	12802
926.993	12681
927.099	12623
927.206	12544
927.312	12525
927.419	12715
927.525	12673
927.631	12639
927.737	12483
927.843	12445
927.95	12323
928.056	12441
928.162	12490
928.267	12479
928.373	13133
928.479	12551
928.585	12327
928.69	12433
928.796	12380
928.901	12292
929.007	12079
929.112	12323
929.218	12281
929.323	12159
929.428	12175
929.533	12338
929.638	12140
929.743	12038
929.848	12171
929.953	12144
930.058	12003
930.163	11882
930.267	11843
930.372	11988
930.477	11832
930.581	12087
930.685	11946
930.79	11756
930.894	11684
930.998	11783
931.103	11767
931.207	11459
931.311	11452
931.415	11387
931.519	11140
931.623	11094
