Data from test_V78500241_1473.txt Node
Date: Fri Mar 25 15:20:06 CST 2022
User: usil
Spectrometer: V785-0024
Trigger mode: 0
Integration Time (sec): 4.000000E-1
Scans to average: 1
Nonlinearity correction enabled: false
Boxcar width: 0
Storing dark spectrum: false
XAxis mode: Wavelengths
Number of Pixels in Spectrum: 1024
>>>>>Begin Spectral Data<<<<<
801.071	27983
801.214	27797
801.356	27564
801.499	27458
801.641	27477
801.783	27466
801.926	27633
802.068	27363
802.211	27450
802.353	27214
802.496	27146
802.638	27256
802.78	27089
802.923	27077
803.065	27032
803.208	26998
803.35	27085
803.492	27298
803.635	27298
803.777	27089
803.919	27310
804.061	27633
804.204	27302
804.346	27222
804.488	27176
804.63	27336
804.773	27310
804.915	27412
805.057	27477
805.199	27169
805.341	27393
805.483	27359
805.626	27344
805.768	27378
805.91	27416
806.052	27473
806.194	27298
806.336	27713
806.478	27500
806.62	27519
806.762	27488
806.904	27606
807.046	28025
807.188	27800
807.33	27747
807.472	27975
807.614	27789
807.756	27736
807.898	27743
808.04	27644
808.182	27663
808.324	27766
808.465	27819
808.607	27892
808.749	28147
808.891	28169
809.033	28223
809.174	28192
809.316	28010
809.458	28082
809.6	27964
809.741	28253
809.883	28276
810.025	28390
810.166	28344
810.308	28337
810.45	28382
810.591	28325
810.733	28017
810.875	28040
811.016	27934
811.158	27895
811.299	28109
811.441	28234
811.582	28131
811.724	28055
811.865	28013
812.007	28112
812.148	28154
812.29	28181
812.431	28341
812.573	28398
812.714	28500
812.855	28634
812.997	28687
813.138	28835
813.279	28828
813.421	28573
813.562	28485
813.703	28630
813.845	28287
813.986	28177
814.127	27892
814.268	27827
814.41	27846
814.551	27603
814.692	27892
814.833	27705
814.974	27789
815.115	27865
815.256	27663
815.397	27698
815.539	27644
815.68	27477
815.821	27481
815.962	27720
816.103	27405
816.244	27500
816.385	27321
816.526	27325
816.666	27123
816.807	27138
816.948	27237
817.089	27195
817.23	27001
817.371	26952
817.512	27070
817.653	27055
817.793	27009
817.934	27066
818.075	27096
818.216	27089
818.356	27047
818.497	26982
818.638	26804
818.778	26754
818.919	26781
819.06	27043
819.2	27017
819.341	27024
819.481	27108
819.622	27355
819.762	27329
819.903	27249
820.043	27321
820.184	27203
820.324	27264
820.465	27195
820.605	27176
820.746	27218
820.886	27055
821.026	27169
821.167	27127
821.307	27237
821.447	27116
821.588	27036
821.728	26796
821.868	26830
822.008	26556
822.149	26469
822.289	26488
822.429	26225
822.569	26149
822.709	26168
822.849	26092
822.99	26077
823.13	26035
823.27	25974
823.41	25913
823.55	25807
823.69	25860
823.83	25913
823.97	25841
824.11	25651
824.25	25635
824.389	25674
824.529	25837
824.669	25681
824.809	25658
824.949	25780
825.089	25890
825.228	25700
825.368	25552
825.508	25601
825.648	25628
825.787	25594
825.927	25693
826.067	25419
826.206	25453
826.346	25582
826.485	25693
826.625	25411
826.765	25540
826.904	25525
827.044	25381
827.183	25190
827.323	25236
827.462	25324
827.601	25388
827.741	25346
827.88	25354
828.02	25103
828.159	25255
828.298	25297
828.437	25198
828.577	25187
828.716	25301
828.855	25069
828.994	24897
829.134	25061
829.273	25008
829.412	24966
829.551	24901
829.69	24932
829.829	24966
829.968	25091
830.107	24901
830.246	24897
830.385	24916
830.524	24913
830.663	24787
830.802	24642
830.941	24502
831.08	24563
831.219	24509
831.357	24597
831.496	24620
831.635	24414
831.774	24456
831.913	24426
832.051	24399
832.19	24304
832.329	24376
832.467	24311
832.606	24148
832.744	24243
832.883	24163
833.022	24190
833.16	24281
833.299	24270
833.437	24159
833.576	24266
833.714	24270
833.852	24353
833.991	24334
834.129	24350
834.267	24311
834.406	24247
834.544	24357
834.682	24251
834.821	24308
834.959	24429
835.097	24285
835.235	24296
835.373	24144
835.511	24300
835.65	24251
835.788	24144
835.926	24030
836.064	23954
836.202	24011
836.34	24057
836.478	24167
836.615	24064
836.753	24026
836.891	24072
837.029	24159
837.167	24049
837.305	24003
837.443	24041
837.58	23912
837.718	24060
837.856	23958
837.993	23961
838.131	23916
838.269	23824
838.406	23809
838.544	23802
838.681	23566
838.819	23589
838.956	23429
839.094	23383
839.231	23467
839.369	23623
839.506	23756
839.643	23726
839.781	23398
839.918	23296
840.055	23440
840.193	23440
840.33	23239
840.467	23292
840.604	23417
840.742	23619
840.879	23178
841.016	23277
841.153	23242
841.29	23497
841.427	23334
841.564	23231
841.701	23364
841.838	23204
841.975	23235
842.112	23212
842.249	23090
842.385	22995
842.522	23185
842.659	23067
842.796	23060
842.933	23044
843.069	22980
843.206	23136
843.343	23121
843.479	23254
843.616	23178
843.752	22923
843.889	22809
844.025	22953
844.162	22869
844.298	22961
844.435	22927
844.571	22778
844.708	22847
844.844	23075
844.98	22968
845.117	22889
845.253	22793
845.389	22797
845.525	22702
845.661	22812
845.798	22691
845.934	22607
846.07	22664
846.206	22584
846.342	22713
846.478	22550
846.614	22466
846.75	22181
846.886	22265
847.022	22341
847.158	22295
847.294	22287
847.429	22424
847.565	22348
847.701	22455
847.837	22063
847.972	22036
848.108	22154
848.244	21975
848.379	22021
848.515	21922
848.65	21838
848.786	21930
848.921	22036
849.057	22032
849.192	22021
849.328	21987
849.463	21895
849.598	21804
849.734	21934
849.869	21694
850.004	21698
850.14	21728
850.275	21766
850.41	21595
850.545	21652
850.68	21682
850.815	21713
850.95	21656
851.085	21819
851.22	21774
851.355	21812
851.49	21641
851.625	21633
851.76	21667
851.895	21705
852.03	21545
852.165	21736
852.299	21709
852.434	21732
852.569	21652
852.703	21770
852.838	21789
852.973	21899
853.107	21739
853.242	21629
853.376	21568
853.511	21408
853.645	21473
853.78	21641
853.914	21534
854.048	21500
854.183	21488
854.317	21466
854.451	21671
854.585	21610
854.72	21450
854.854	21504
854.988	21545
855.122	21549
855.256	21408
855.39	21439
855.524	21599
855.658	21595
855.792	21603
855.926	21538
856.06	21572
856.194	21644
856.327	21466
856.461	21454
856.595	21466
856.729	21511
856.862	21515
856.996	21511
857.13	21667
857.263	21576
857.397	21671
857.53	21500
857.664	21519
857.797	21530
857.931	21450
858.064	21591
858.197	21561
858.331	21450
858.464	21359
858.597	21405
858.731	21424
858.864	21526
858.997	21466
859.13	21454
859.263	21561
859.396	21717
859.529	21488
859.662	21405
859.795	21507
859.928	21485
860.061	21568
860.194	21827
860.327	21587
860.46	21679
860.592	21625
860.725	21690
860.858	21530
860.99	21583
861.123	21435
861.256	21435
861.388	21511
861.521	22025
861.653	21363
861.786	21321
861.918	21424
862.05	21386
862.183	21492
862.315	21340
862.447	21530
862.58	21389
862.712	21233
862.844	21093
862.976	21302
863.108	21203
863.24	21591
863.372	21245
863.504	21279
863.636	21188
863.768	21275
863.9	21112
864.032	21089
864.164	21123
864.296	21241
864.428	21340
864.559	21272
864.691	21211
864.823	21287
864.954	21218
865.086	21195
865.217	21108
865.349	21085
865.48	21127
865.612	21062
865.743	21199
865.875	21043
866.006	21066
866.137	21104
866.269	21184
866.4	21013
866.531	20967
866.662	20982
866.793	21062
866.924	21032
867.055	21020
867.186	20914
867.317	21047
867.448	20994
867.579	21116
867.71	20941
867.841	20925
867.972	21104
868.103	21051
868.233	20952
868.364	21131
868.495	21039
868.625	21264
868.756	21313
868.886	21154
869.017	21252
869.147	21477
869.278	21450
869.408	21287
869.539	21245
869.669	21382
869.799	21454
869.929	21393
870.06	21458
870.19	21583
870.32	21450
870.45	21526
870.58	21618
870.71	21736
870.84	21812
870.97	21641
871.1	21709
871.23	21762
871.36	21854
871.489	21633
871.619	21899
871.749	21842
871.879	21941
872.008	21991
872.138	21865
872.267	21838
872.397	21709
872.526	21652
872.656	21743
872.785	21717
872.915	21972
873.044	22147
873.173	21892
873.303	21911
873.432	22032
873.561	22006
873.69	21937
873.819	21983
873.948	21953
874.077	21960
874.206	21823
874.335	21812
874.464	21994
874.593	22173
874.722	22074
874.851	22192
874.979	22109
875.108	22211
875.237	21979
875.365	22048
875.494	22139
875.623	22078
875.751	22109
875.88	22044
876.008	22287
876.136	22257
876.265	22470
876.393	22622
876.521	22512
876.65	22573
876.778	22466
876.906	22249
877.034	22421
877.162	22375
877.29	22318
877.418	22500
877.546	22451
877.674	22325
877.802	22451
877.93	22519
878.058	22455
878.185	22287
878.313	22367
878.441	22428
878.568	22211
878.696	22398
878.824	22508
878.951	22584
879.079	22668
879.206	22828
879.333	22653
879.461	22424
879.588	22546
879.715	22649
879.842	22717
879.97	22565
880.097	22268
880.224	22226
880.351	22272
880.478	22253
880.605	22249
880.732	22276
880.859	22508
880.986	22116
881.112	22200
881.239	22086
881.366	21918
881.493	22051
881.619	21785
881.746	21880
881.872	21865
881.999	21895
882.125	21804
882.252	21838
882.378	21755
882.505	22029
882.631	21698
882.757	21564
882.883	21667
883.01	21469
883.136	21523
883.262	21393
883.388	21382
883.514	21599
883.64	21519
883.766	21469
883.892	21260
884.018	21488
884.143	21507
884.269	21610
884.395	21214
884.52	21199
884.646	21169
884.772	21081
884.897	21024
885.023	21142
885.148	21294
885.274	21317
885.399	21393
885.524	21260
885.65	21169
885.775	21256
885.9	21230
886.025	21233
886.15	21332
886.275	21096
886.4	21005
886.525	21180
886.65	21104
886.775	21043
886.9	21306
887.025	21428
887.149	21157
887.274	21039
887.399	20944
887.523	20967
887.648	20956
887.773	20876
887.897	20967
888.021	20963
888.146	20906
888.27	20994
888.395	20975
888.519	20921
888.643	20914
888.767	20956
888.891	20925
889.015	20712
889.139	20815
889.263	20731
889.387	20876
889.511	20918
889.635	20838
889.759	20686
889.883	20697
890.006	20686
890.13	20785
890.254	20689
890.377	20613
890.501	20575
890.624	20473
890.748	20587
890.871	20427
890.995	20286
891.118	20309
891.241	20298
891.364	20408
891.488	20514
891.611	20450
891.734	20351
891.857	20374
891.98	20343
892.103	20370
892.226	20339
892.349	20362
892.471	20115
892.594	20180
892.717	20282
892.839	20202
892.962	20320
893.085	20229
893.207	20168
893.33	20111
893.452	20092
893.575	20221
893.697	20206
893.819	20324
893.941	20400
894.064	20313
894.186	20168
894.308	20157
894.43	20362
894.552	20324
894.674	20263
894.796	20069
894.918	20191
895.04	20256
895.161	20408
895.283	20191
895.405	20084
895.526	20286
895.648	20058
895.769	20183
895.891	20320
896.012	20328
896.134	20252
896.255	20180
896.376	20100
896.498	20012
896.619	20271
896.74	20168
896.861	20328
896.982	20454
897.103	20800
897.224	20507
897.345	20370
897.466	20434
897.587	20313
897.708	20568
897.828	20374
897.949	20370
898.07	20275
898.19	20427
898.311	20545
898.431	20454
898.552	20427
898.672	20457
898.792	20541
898.913	20419
899.033	20412
899.153	20290
899.273	20050
899.393	20191
899.513	20142
899.633	20221
899.753	20240
899.873	20206
899.993	20221
900.113	20073
900.232	20168
900.352	20046
900.472	19955
900.591	20012
900.711	20012
900.83	19940
900.95	20073
901.069	20027
901.189	19795
901.308	19666
901.427	19506
901.546	19464
901.665	19609
901.784	19514
901.904	19521
902.023	19282
902.141	19046
902.26	19202
902.379	19133
902.498	19012
902.617	18932
902.735	19061
902.854	18973
902.973	18878
903.091	18772
903.21	18661
903.328	18654
903.446	18688
903.565	18551
903.683	18460
903.801	18456
903.919	18456
904.038	18456
904.156	18323
904.274	18380
904.392	18365
904.51	18270
904.627	18353
904.745	18292
904.863	18270
904.981	18060
905.098	17916
905.216	17923
905.334	17942
905.451	18125
905.569	17878
905.686	17874
905.803	17840
905.921	17851
906.038	17878
906.155	17866
906.272	17676
906.389	17699
906.506	17539
906.623	17520
906.74	17421
906.857	17410
906.974	17364
907.091	17604
907.208	17558
907.324	17417
907.441	17414
907.557	17178
907.674	17200
907.79	17121
907.907	17151
908.023	17193
908.139	17143
908.256	17197
908.372	17223
908.488	17094
908.604	16953
908.72	16919
908.836	16908
908.952	16938
909.068	16987
909.184	17067
909.3	16946
909.415	16946
909.531	16873
909.647	16698
909.762	16588
909.878	16641
909.993	16584
910.108	16607
910.224	16497
910.339	16565
910.454	16390
910.57	16424
910.685	16493
910.8	16630
910.915	16405
911.03	16462
911.145	16371
911.259	16143
911.374	16147
911.489	16249
911.604	16055
911.718	15915
911.833	15888
911.947	15854
912.062	15842
912.176	15934
912.291	15854
912.405	15930
912.519	16082
912.633	16120
912.748	16013
912.862	15918
912.976	15835
913.09	15656
913.204	15743
913.318	15800
913.431	15732
913.545	15842
913.659	15835
913.772	15762
913.886	15633
914	15580
914.113	15671
914.226	15694
914.34	15675
914.453	15454
914.566	15587
914.68	15492
914.793	15485
914.906	15237
915.019	15207
915.132	15169
915.245	15138
915.358	15241
915.47	15150
915.583	15199
915.696	15211
915.809	15264
915.921	15386
916.034	15047
916.146	15070
916.259	15116
916.371	15195
916.483	15123
916.595	15028
916.708	15005
916.82	14929
916.932	14960
917.044	14963
917.156	14921
917.268	14933
917.38	14933
917.491	14830
917.603	14765
917.715	14918
917.826	14975
917.938	14845
918.049	14731
918.161	14849
918.272	14902
918.384	14868
918.495	14724
918.606	14663
918.717	14575
918.828	14587
918.939	14689
919.05	14518
919.161	14469
919.272	14454
919.383	14495
919.494	14579
919.604	14826
919.715	14537
919.826	14427
919.936	14560
920.047	14613
920.157	14507
920.267	14724
920.378	14602
920.488	14522
920.598	14716
920.708	14876
920.818	14655
920.928	14594
921.038	14788
921.148	14758
921.258	14488
921.368	14495
921.477	14256
921.587	14347
921.697	14221
921.806	14313
921.916	14123
922.025	13970
922.134	13868
922.244	13913
922.353	13932
922.462	13788
922.571	13746
922.68	13567
922.789	13556
922.898	13628
923.007	13457
923.116	13575
923.224	13514
923.333	13689
923.442	13426
923.55	13354
923.659	13468
923.767	13518
923.876	13362
923.984	13510
924.092	13255
924.201	13278
924.309	13308
924.417	13350
924.525	13251
924.633	13312
924.741	13925
924.849	12989
924.956	13168
925.064	13004
925.172	12996
925.279	13004
925.387	13015
925.494	12954
925.602	13133
925.709	13042
925.816	12867
925.924	12905
926.031	13027
926.138	12943
926.245	12932
926.352	12783
926.459	12871
926.566	12989
926.673	12867
926.779	12722
926.886	12749
926.993	12574
927.099	12677
927.206	12448
927.312	12521
927.419	12585
927.525	12574
927.631	12513
927.737	12372
927.843	12365
927.95	12372
928.056	12296
928.162	12391
928.267	12445
928.373	12909
928.479	12479
928.585	12159
928.69	12315
928.796	12311
928.901	12235
929.007	12087
929.112	12224
929.218	12232
929.323	12140
929.428	12102
929.533	12254
929.638	12060
929.743	11988
929.848	12098
929.953	12045
930.058	11935
930.163	11832
930.267	11775
930.372	11821
930.477	11729
930.581	11980
930.685	11824
930.79	11630
930.894	11710
930.998	11608
931.103	11741
931.207	11402
931.311	11364
931.415	11246
931.519	11128
931.623	10987
