Data from test_V78500241_2746.txt Node
Date: Fri Mar 25 15:28:58 CST 2022
User: usil
Spectrometer: V785-0024
Trigger mode: 0
Integration Time (sec): 4.000000E-1
Scans to average: 1
Nonlinearity correction enabled: false
Boxcar width: 0
Storing dark spectrum: false
XAxis mode: Wavelengths
Number of Pixels in Spectrum: 1024
>>>>>Begin Spectral Data<<<<<
801.071	27039
801.214	27123
801.356	26849
801.499	26731
801.641	26560
801.783	26469
801.926	26663
802.068	26609
802.211	26530
802.353	26427
802.496	26339
802.638	26423
802.78	26168
802.923	26206
803.065	26153
803.208	26122
803.35	26244
803.492	26339
803.635	26434
803.777	26275
803.919	26495
804.061	26682
804.204	26408
804.346	26355
804.488	26301
804.63	26393
804.773	26210
804.915	26370
805.057	26457
805.199	26309
805.341	26412
805.483	26522
805.626	26450
805.768	26347
805.91	26423
806.052	26476
806.194	26358
806.336	26651
806.478	26434
806.62	26465
806.762	26674
806.904	26697
807.046	27005
807.188	26963
807.33	26956
807.472	26960
807.614	26864
807.756	26971
807.898	26842
808.04	26815
808.182	26682
808.324	26667
808.465	26746
808.607	26944
808.749	26918
808.891	27066
809.033	27058
809.174	27230
809.316	27043
809.458	27146
809.6	26994
809.741	27154
809.883	27233
810.025	27348
810.166	27374
810.308	27355
810.45	27291
810.591	27317
810.733	27077
810.875	27039
811.016	27043
811.158	27043
811.299	27207
811.441	27085
811.582	27317
811.724	27001
811.865	27039
812.007	26956
812.148	27055
812.29	27043
812.431	27237
812.573	27427
812.714	27504
812.855	27500
812.997	27580
813.138	27759
813.279	27713
813.421	27603
813.562	27466
813.703	27325
813.845	27230
813.986	26876
814.127	26712
814.268	26735
814.41	26678
814.551	26705
814.692	26853
814.833	26693
814.974	26731
815.115	26720
815.256	26556
815.397	26495
815.539	26583
815.68	26488
815.821	26362
815.962	26526
816.103	26412
816.244	26328
816.385	26336
816.526	26282
816.666	26183
816.807	25925
816.948	26043
817.089	26183
817.23	26035
817.371	25997
817.512	26111
817.653	25951
817.793	25814
817.934	25959
818.075	25879
818.216	26005
818.356	25936
818.497	25811
818.638	25769
818.778	25586
818.919	25586
819.06	25921
819.2	25772
819.341	26001
819.481	25928
819.622	26077
819.762	26469
819.903	26294
820.043	26130
820.184	26176
820.324	26005
820.465	26088
820.605	26187
820.746	26069
820.886	25940
821.026	26001
821.167	25856
821.307	26065
821.447	26062
821.588	25731
821.728	25807
821.868	25563
822.008	25419
822.149	25495
822.289	25468
822.429	25148
822.569	25053
822.709	25160
822.849	25031
822.99	24924
823.13	24897
823.27	24848
823.41	24696
823.55	24639
823.69	24760
823.83	24844
823.97	24658
824.11	24570
824.25	24388
824.389	24502
824.529	24810
824.669	24536
824.809	24798
824.949	24570
825.089	24753
825.228	24536
825.368	24445
825.508	24350
825.648	24460
825.787	24437
825.927	24566
826.067	24467
826.206	24365
826.346	24517
826.485	24498
826.625	24380
826.765	24505
826.904	24380
827.044	24186
827.183	24296
827.323	24174
827.462	24228
827.601	24239
827.741	24152
827.88	24079
828.02	24003
828.159	24186
828.298	24220
828.437	24102
828.577	24083
828.716	24247
828.855	24022
828.994	23802
829.134	23847
829.273	24049
829.412	23798
829.551	23813
829.69	23809
829.829	23786
829.968	23859
830.107	23863
830.246	23836
830.385	23642
830.524	23798
830.663	23710
830.802	23551
830.941	23429
831.08	23433
831.219	23570
831.357	23474
831.496	23604
831.635	23414
831.774	23292
831.913	23284
832.051	23250
832.19	23181
832.329	23269
832.467	23261
832.606	23143
832.744	23128
832.883	23147
833.022	23258
833.16	23052
833.299	23124
833.437	23128
833.576	23208
833.714	23239
833.852	23212
833.991	23170
834.129	23189
834.267	23220
834.406	23204
834.544	23246
834.682	23216
834.821	23193
834.959	23417
835.097	23185
835.235	23143
835.373	23200
835.511	23185
835.65	23086
835.788	23048
835.926	22896
836.064	22816
836.202	22858
836.34	23006
836.478	23090
836.615	22984
836.753	22930
836.891	23113
837.029	23022
837.167	22896
837.305	23037
837.443	22984
837.58	22801
837.718	22911
837.856	22946
837.993	22820
838.131	22824
838.269	22767
838.406	22733
838.544	22645
838.681	22592
838.819	22462
838.956	22382
839.094	22375
839.231	22432
839.369	22512
839.506	22767
839.643	22618
839.781	22432
839.918	22268
840.055	22371
840.193	22329
840.33	22291
840.467	22287
840.604	22386
840.742	22599
840.879	22246
841.016	22223
841.153	22139
841.29	22333
841.427	22382
841.564	22287
841.701	22318
841.838	22306
841.975	22207
842.112	22207
842.249	22097
842.385	22010
842.522	22230
842.659	22219
842.796	22036
842.933	22093
843.069	21930
843.206	21884
843.343	22070
843.479	21991
843.616	21960
843.752	21842
843.889	21888
844.025	21941
844.162	21869
844.298	21911
844.435	21778
844.571	21827
844.708	21895
844.844	22063
844.98	21953
845.117	21922
845.253	21838
845.389	21705
845.525	21656
845.661	21660
845.798	21549
845.934	21606
846.07	21466
846.206	21564
846.342	21656
846.478	21485
846.614	21355
846.75	21230
846.886	21340
847.022	21306
847.158	21260
847.294	21279
847.429	21222
847.565	21226
847.701	21549
847.837	21096
847.972	20960
848.108	20998
848.244	21096
848.379	20883
848.515	20792
848.65	20880
848.786	20895
848.921	20868
849.057	20937
849.192	20914
849.328	20941
849.463	20823
849.598	20838
849.734	20823
849.869	20678
850.004	20583
850.14	20724
850.275	20663
850.41	20613
850.545	20670
850.68	20686
850.815	20659
850.95	20625
851.085	20785
851.22	20727
851.355	20621
851.49	20621
851.625	20575
851.76	20674
851.895	20579
852.03	20446
852.165	20621
852.299	20807
852.434	20663
852.569	20598
852.703	20632
852.838	20727
852.973	20815
853.107	20682
853.242	20571
853.376	20431
853.511	20415
853.645	20385
853.78	20545
853.914	20431
854.048	20404
854.183	20419
854.317	20545
854.451	20727
854.585	20423
854.72	20579
854.854	20579
854.988	20374
855.122	20499
855.256	20408
855.39	20514
855.524	20629
855.658	20617
855.792	20526
855.926	20537
856.06	20484
856.194	20549
856.327	20552
856.461	20415
856.595	20431
856.729	20389
856.862	20537
856.996	20457
857.13	20450
857.263	20587
857.397	20590
857.53	20396
857.664	20530
857.797	20564
857.931	20579
858.064	20488
858.197	20602
858.331	20412
858.464	20374
858.597	20298
858.731	20385
858.864	20385
858.997	20347
859.13	20503
859.263	20476
859.396	20564
859.529	20339
859.662	20400
859.795	20511
859.928	20488
860.061	20678
860.194	20705
860.327	20434
860.46	20415
860.592	20571
860.725	20689
860.858	20629
860.99	20492
861.123	20469
861.256	20339
861.388	20404
861.521	21017
861.653	20374
861.786	20248
861.918	20389
862.05	20381
862.183	20313
862.315	20503
862.447	20488
862.58	20434
862.712	20233
862.844	20210
862.976	20233
863.108	20221
863.24	20556
863.372	20145
863.504	20305
863.636	20176
863.768	20256
863.9	20317
864.032	20054
864.164	20134
864.296	20233
864.428	20328
864.559	20263
864.691	20366
864.823	20153
864.954	20267
865.086	20271
865.217	20119
865.349	20035
865.48	20195
865.612	20046
865.743	20259
865.875	20062
866.006	20031
866.137	20164
866.269	20050
866.4	20062
866.531	20027
866.662	20081
866.793	20016
866.924	20081
867.055	20050
867.186	19997
867.317	19902
867.448	20054
867.579	19864
867.71	19940
867.841	20024
867.972	19932
868.103	20001
868.233	20088
868.364	19974
868.495	20077
868.625	20248
868.756	20415
868.886	20016
869.017	20320
869.147	20389
869.278	20385
869.408	20336
869.539	20298
869.669	20381
869.799	20259
869.929	20419
870.06	20590
870.19	20495
870.32	20492
870.45	20689
870.58	20609
870.71	20682
870.84	20701
870.97	20716
871.1	20667
871.23	20750
871.36	20864
871.489	20815
871.619	20868
871.749	20975
871.879	20868
872.008	20979
872.138	20963
872.267	20880
872.397	20746
872.526	20731
872.656	20693
872.785	20609
872.915	20975
873.044	20872
873.173	20777
873.303	20891
873.432	21020
873.561	20925
873.69	20781
873.819	20838
873.948	21013
874.077	20857
874.206	20762
874.335	20838
874.464	21074
874.593	21199
874.722	21066
874.851	21165
874.979	21131
875.108	21211
875.237	21020
875.365	20986
875.494	21024
875.623	21279
875.751	21154
875.88	21131
876.008	21458
876.136	21264
876.265	21519
876.393	21667
876.521	21591
876.65	21568
876.778	21530
876.906	21572
877.034	21450
877.162	21504
877.29	21389
877.418	21469
877.546	21534
877.674	21405
877.802	21545
877.93	21485
878.058	21447
878.185	21321
878.313	21488
878.441	21469
878.568	21325
878.696	21416
878.824	21561
878.951	21473
879.079	21751
879.206	21705
879.333	21766
879.461	21466
879.588	21644
879.715	21762
879.842	21850
879.97	21580
880.097	21351
880.224	21336
880.351	21329
880.478	21462
880.605	21275
880.732	21340
880.859	21488
880.986	21332
881.112	21393
881.239	21336
881.366	21013
881.493	21123
881.619	20918
881.746	20788
881.872	20956
881.999	20899
882.125	20815
882.252	20960
882.378	20838
882.505	21058
882.631	20739
882.757	20693
882.883	20838
883.01	20686
883.136	20579
883.262	20381
883.388	20522
883.514	20602
883.64	20739
883.766	20469
883.892	20556
884.018	20419
884.143	20629
884.269	20648
884.395	20438
884.52	20317
884.646	20336
884.772	20221
884.897	20210
885.023	20267
885.148	20351
885.274	20370
885.399	20343
885.524	20286
885.65	20305
885.775	20271
885.9	20225
886.025	20389
886.15	20320
886.275	20218
886.4	20210
886.525	20176
886.65	20183
886.775	20214
886.9	20290
887.025	20419
887.149	20233
887.274	20115
887.399	20111
887.523	19974
887.648	20084
887.773	19955
887.897	20088
888.021	20050
888.146	20016
888.27	20088
888.395	20107
888.519	20027
888.643	20187
888.767	20092
888.891	19944
889.015	19993
889.139	19871
889.263	19997
889.387	20012
889.511	20084
889.635	20027
889.759	19814
889.883	19879
890.006	19780
890.13	19967
890.254	19799
890.377	19746
890.501	19605
890.624	19624
890.748	19624
890.871	19597
890.995	19365
891.118	19419
891.241	19476
891.364	19411
891.488	19616
891.611	19441
891.734	19384
891.857	19548
891.98	19403
892.103	19594
892.226	19491
892.349	19377
892.471	19278
892.594	19377
892.717	19400
892.839	19308
892.962	19282
893.085	19434
893.207	19289
893.33	19251
893.452	19278
893.575	19544
893.697	19365
893.819	19464
893.941	19533
894.064	19590
894.186	19285
894.308	19304
894.43	19396
894.552	19533
894.674	19537
894.796	19247
894.918	19354
895.04	19255
895.161	19483
895.283	19365
895.405	19335
895.526	19381
895.648	19259
895.769	19331
895.891	19438
896.012	19400
896.134	19324
896.255	19460
896.376	19377
896.498	19518
896.619	19369
896.74	19377
896.861	19426
896.982	19624
897.103	19814
897.224	19571
897.345	19624
897.466	19487
897.587	19632
897.708	19620
897.828	19639
897.949	19601
898.07	19407
898.19	19525
898.311	19746
898.431	19441
898.552	19571
898.672	19666
898.792	19590
898.913	19643
899.033	19495
899.153	19445
899.273	19411
899.393	19304
899.513	19453
899.633	19365
899.753	19460
899.873	19228
899.993	19316
900.113	19270
900.232	19343
900.352	19308
900.472	19171
900.591	19148
900.711	19084
900.83	19202
900.95	19266
901.069	19297
901.189	19065
901.308	18825
901.427	18852
901.546	18635
901.665	18833
901.784	18730
901.904	18627
902.023	18616
902.141	18365
902.26	18209
902.379	18247
902.498	18369
902.617	18330
902.735	18281
902.854	18201
902.973	18163
903.091	18022
903.21	18011
903.328	18022
903.446	17847
903.565	17630
903.683	17771
903.801	17615
903.919	17752
904.038	17642
904.156	17581
904.274	17638
904.392	17512
904.51	17566
904.627	17547
904.745	17486
904.863	17649
904.981	17356
905.098	17166
905.216	17220
905.334	17159
905.451	17185
905.569	17227
905.686	17322
905.803	17239
905.921	17098
906.038	17105
906.155	17045
906.272	16824
906.389	16889
906.506	16850
906.623	16752
906.74	16710
906.857	16588
906.974	16561
907.091	16786
907.208	16881
907.324	16713
907.441	16607
907.557	16546
907.674	16478
907.79	16409
907.907	16516
908.023	16596
908.139	16478
908.256	16462
908.372	16409
908.488	16409
908.604	16166
908.72	16128
908.836	16207
908.952	16154
909.068	16303
909.184	16306
909.3	16143
909.415	16158
909.531	16143
909.647	15922
909.762	15888
909.878	15964
909.993	15941
910.108	15960
910.224	15800
910.339	15903
910.454	15876
910.57	15751
910.685	15709
910.8	15972
910.915	15892
911.03	15781
911.145	15561
911.259	15572
911.374	15447
911.489	15428
911.604	15473
911.718	15336
911.833	15237
911.947	15275
912.062	15104
912.176	15298
912.291	15237
912.405	15306
912.519	15511
912.633	15420
912.748	15260
912.862	15116
912.976	15142
913.09	15032
913.204	15020
913.318	15154
913.431	15249
913.545	15123
913.659	15241
913.772	14975
913.886	14967
914	14796
914.113	15005
914.226	14967
914.34	14918
914.453	14857
914.566	14891
914.68	14838
914.793	14785
914.906	14594
915.019	14541
915.132	14431
915.245	14484
915.358	14602
915.47	14571
915.583	14533
915.696	14545
915.809	14598
915.921	14644
916.034	14412
916.146	14492
916.259	14404
916.371	14434
916.483	14473
916.595	14351
916.708	14415
916.82	14332
916.932	14358
917.044	14358
917.156	14286
917.268	14202
917.38	14176
917.491	14084
917.603	14275
917.715	14172
917.826	14229
917.938	14058
918.049	14027
918.161	14172
918.272	14233
918.384	14218
918.495	14199
918.606	14020
918.717	13913
918.828	13963
918.939	13947
919.05	13967
919.161	13883
919.272	13818
919.383	13837
919.494	14046
919.604	14191
919.715	14020
919.826	13837
919.936	13932
920.047	13982
920.157	13864
920.267	14092
920.378	13940
920.488	13909
920.598	14081
920.708	14168
920.818	14062
920.928	14050
921.038	14237
921.148	14180
921.258	13894
921.368	13871
921.477	13647
921.587	13765
921.697	13552
921.806	13658
921.916	13563
922.025	13415
922.134	13369
922.244	13194
922.353	13392
922.462	13263
922.571	13129
922.68	13038
922.789	13004
922.898	12954
923.007	12825
923.116	12920
923.224	13015
923.333	12962
923.442	12738
923.55	12798
923.659	12791
923.767	12859
923.876	12806
923.984	12905
924.092	12829
924.201	12783
924.309	12681
924.417	12719
924.525	12703
924.633	12620
924.741	13594
924.849	12410
924.956	12627
925.064	12471
925.172	12403
925.279	12467
925.387	12460
925.494	12357
925.602	12654
925.709	12498
925.816	12388
925.924	12414
926.031	12464
926.138	12391
926.245	12452
926.352	12300
926.459	12369
926.566	12506
926.673	12296
926.779	12197
926.886	12167
926.993	11961
927.099	12117
927.206	12007
927.312	12026
927.419	12083
927.525	11999
927.631	12060
927.737	11927
927.843	11885
927.95	11786
928.056	11802
928.162	11866
928.267	11920
928.373	12410
928.479	11859
928.585	11703
928.69	11828
928.796	11870
928.901	11699
929.007	11573
929.112	11684
929.218	11672
929.323	11615
929.428	11646
929.533	11676
929.638	11486
929.743	11638
929.848	11554
929.953	11497
930.058	11482
930.163	11254
930.267	11379
930.372	11417
930.477	11227
930.581	11486
930.685	11372
930.79	11212
930.894	11185
930.998	11212
931.103	11288
931.207	10972
931.311	10892
931.415	10774
931.519	10630
931.623	10561
