Data from test_V78500241_3479.txt Node
Date: Fri Mar 25 15:34:05 CST 2022
User: usil
Spectrometer: V785-0024
Trigger mode: 0
Integration Time (sec): 4.000000E-1
Scans to average: 1
Nonlinearity correction enabled: false
Boxcar width: 0
Storing dark spectrum: false
XAxis mode: Wavelengths
Number of Pixels in Spectrum: 1024
>>>>>Begin Spectral Data<<<<<
801.071	27336
801.214	27317
801.356	27096
801.499	27036
801.641	26826
801.783	26811
801.926	26933
802.068	26925
802.211	26853
802.353	26670
802.496	26598
802.638	26590
802.78	26537
802.923	26389
803.065	26301
803.208	26358
803.35	26461
803.492	26549
803.635	26667
803.777	26545
803.919	26636
804.061	26925
804.204	26636
804.346	26651
804.488	26461
804.63	26594
804.773	26541
804.915	26743
805.057	26785
805.199	26606
805.341	26739
805.483	26887
805.626	26735
805.768	26625
805.91	26682
806.052	26819
806.194	26777
806.336	26834
806.478	26804
806.62	26819
806.762	26845
806.904	26925
807.046	27382
807.188	27131
807.33	27146
807.472	27093
807.614	26940
807.756	27123
807.898	27146
808.04	26937
808.182	26979
808.324	26998
808.465	27157
808.607	27188
808.749	27279
808.891	27500
809.033	27412
809.174	27325
809.316	27389
809.458	27306
809.6	27230
809.741	27462
809.883	27450
810.025	27583
810.166	27770
810.308	27477
810.45	27606
810.591	27416
810.733	27416
810.875	27408
811.016	27233
811.158	27188
811.299	27370
811.441	27488
811.582	27515
811.724	27302
811.865	27233
812.007	27393
812.148	27184
812.29	27302
812.431	27614
812.573	27603
812.714	27644
812.855	27747
812.997	27793
813.138	27998
813.279	27918
813.421	27842
813.562	27812
813.703	27660
813.845	27431
813.986	27241
814.127	27169
814.268	27077
814.41	27020
814.551	26925
814.692	26963
814.833	26921
814.974	26891
815.115	27013
815.256	26830
815.397	26769
815.539	26792
815.68	26861
815.821	26701
815.962	26743
816.103	26716
816.244	26670
816.385	26511
816.526	26453
816.666	26191
816.807	26240
816.948	26225
817.089	26267
817.23	26290
817.371	26278
817.512	26195
817.653	26142
817.793	26309
817.934	26180
818.075	26233
818.216	26191
818.356	26122
818.497	26069
818.638	25944
818.778	25925
818.919	25921
819.06	25932
819.2	26199
819.341	26210
819.481	26183
819.622	26275
819.762	26476
819.903	26579
820.043	26404
820.184	26415
820.324	26438
820.465	26511
820.605	26355
820.746	26210
820.886	26248
821.026	26332
821.167	26225
821.307	26263
821.447	26298
821.588	26088
821.728	26145
821.868	25887
822.008	25693
822.149	25620
822.289	25723
822.429	25476
822.569	25331
822.709	25491
822.849	25316
822.99	25175
823.13	25221
823.27	25103
823.41	25095
823.55	24989
823.69	25072
823.83	25099
823.97	24844
824.11	24810
824.25	24802
824.389	24943
824.529	24791
824.669	24844
824.809	25069
824.949	24981
825.089	24856
825.228	24966
825.368	24681
825.508	24757
825.648	24741
825.787	24764
825.927	24795
826.067	24642
826.206	24692
826.346	24840
826.485	24681
826.625	24738
826.765	24787
826.904	24798
827.044	24376
827.183	24597
827.323	24403
827.462	24494
827.601	24490
827.741	24452
827.88	24437
828.02	24327
828.159	24388
828.298	24422
828.437	24384
828.577	24414
828.716	24445
828.855	24353
828.994	24174
829.134	24159
829.273	24201
829.412	24038
829.551	24091
829.69	24190
829.829	24167
829.968	24224
830.107	24300
830.246	24251
830.385	24060
830.524	24064
830.663	23988
830.802	23950
830.941	23733
831.08	23786
831.219	23832
831.357	23931
831.496	23935
831.635	23847
831.774	23684
831.913	23604
832.051	23547
832.19	23539
832.329	23577
832.467	23444
832.606	23398
832.744	23292
832.883	23448
833.022	23410
833.16	23497
833.299	23505
833.437	23543
833.576	23486
833.714	23474
833.852	23520
833.991	23535
834.129	23592
834.267	23497
834.406	23554
834.544	23627
834.682	23467
834.821	23596
834.959	23646
835.097	23444
835.235	23581
835.373	23524
835.511	23539
835.65	23368
835.788	23414
835.926	23235
836.064	23162
836.202	23109
836.34	23372
836.478	23406
836.615	23433
836.753	23292
836.891	23398
837.029	23356
837.167	23299
837.305	23353
837.443	23200
837.58	23208
837.718	23337
837.856	23223
837.993	23200
838.131	23159
838.269	23052
838.406	23029
838.544	23052
838.681	22889
838.819	22816
838.956	22744
839.094	22733
839.231	22592
839.369	22843
839.506	23132
839.643	22923
839.781	22828
839.918	22740
840.055	22759
840.193	22679
840.33	22584
840.467	22691
840.604	22607
840.742	22896
840.879	22592
841.016	22516
841.153	22546
841.29	22660
841.427	22584
841.564	22645
841.701	22561
841.838	22592
841.975	22516
842.112	22527
842.249	22489
842.385	22451
842.522	22615
842.659	22413
842.796	22242
842.933	22436
843.069	22272
843.206	22394
843.343	22436
843.479	22337
843.616	22306
843.752	22139
843.889	22207
844.025	22238
844.162	22135
844.298	22249
844.435	22135
844.571	22128
844.708	22226
844.844	22318
844.98	22143
845.117	22314
845.253	22120
845.389	21949
845.525	22105
845.661	22029
845.798	21857
845.934	21964
846.07	21907
846.206	21922
846.342	22063
846.478	21827
846.614	21663
846.75	21473
846.886	21568
847.022	21762
847.158	21724
847.294	21656
847.429	21781
847.565	21606
847.701	21903
847.837	21294
847.972	21329
848.108	21454
848.244	21507
848.379	21275
848.515	21165
848.65	21116
848.786	21283
848.921	21184
849.057	21207
849.192	21329
849.328	21283
849.463	21245
849.598	21207
849.734	21085
849.869	21085
850.004	21047
850.14	21036
850.275	21039
850.41	20967
850.545	21036
850.68	20861
850.815	21070
850.95	20876
851.085	21260
851.22	21119
851.355	21009
851.49	20933
851.625	20914
851.76	21020
851.895	20941
852.03	21020
852.165	20895
852.299	20937
852.434	21093
852.569	21070
852.703	20986
852.838	20967
852.973	21222
853.107	20975
853.242	20857
853.376	20902
853.511	20689
853.645	20735
853.78	20887
853.914	20921
854.048	20834
854.183	20804
854.317	20758
854.451	20967
854.585	20910
854.72	20876
854.854	20906
854.988	20762
855.122	20781
855.256	20655
855.39	20826
855.524	20845
855.658	20788
855.792	20781
855.926	20941
856.06	20800
856.194	20819
856.327	20880
856.461	20613
856.595	20644
856.729	20834
856.862	20834
856.996	20872
857.13	20971
857.263	20838
857.397	20925
857.53	20773
857.664	20823
857.797	21009
857.931	20876
858.064	20788
858.197	20849
858.331	20735
858.464	20838
858.597	20777
858.731	20735
858.864	20750
858.997	20735
859.13	20921
859.263	20948
859.396	20849
859.529	20800
859.662	20765
859.795	20785
859.928	20872
860.061	20963
860.194	21089
860.327	20849
860.46	20830
860.592	20891
860.725	21070
860.858	21001
860.99	20811
861.123	20644
861.256	20819
861.388	20735
861.521	21431
861.653	20743
861.786	20617
861.918	20640
862.05	20697
862.183	20727
862.315	20823
862.447	20807
862.58	20758
862.712	20503
862.844	20568
862.976	20518
863.108	20590
863.24	20990
863.372	20579
863.504	20339
863.636	20556
863.768	20438
863.9	20598
864.032	20412
864.164	20575
864.296	20556
864.428	20716
864.559	20602
864.691	20587
864.823	20602
864.954	20469
865.086	20522
865.217	20473
865.349	20400
865.48	20412
865.612	20347
865.743	20522
865.875	20374
866.006	20370
866.137	20370
866.269	20499
866.4	20400
866.531	20377
866.662	20282
866.793	20252
866.924	20324
867.055	20370
867.186	20385
867.317	20450
867.448	20199
867.579	20400
867.71	20256
867.841	20286
867.972	20389
868.103	20313
868.233	20282
868.364	20423
868.495	20549
868.625	20651
868.756	20724
868.886	20625
869.017	20602
869.147	20693
869.278	20743
869.408	20651
869.539	20549
869.669	20648
869.799	20579
869.929	20655
870.06	20724
870.19	21013
870.32	20952
870.45	20887
870.58	20952
870.71	21138
870.84	21108
870.97	21036
871.1	21081
871.23	21241
871.36	21279
871.489	21085
871.619	21252
871.749	21195
871.879	21344
872.008	21260
872.138	21214
872.267	21127
872.397	21096
872.526	21028
872.656	21089
872.785	20986
872.915	21180
873.044	21348
873.173	21275
873.303	21233
873.432	21306
873.561	21363
873.69	21287
873.819	21260
873.948	21207
874.077	21222
874.206	21207
874.335	21294
874.464	21397
874.593	21454
874.722	21443
874.851	21454
874.979	21439
875.108	21507
875.237	21374
875.365	21408
875.494	21443
875.623	21587
875.751	21477
875.88	21557
876.008	21561
876.136	21690
876.265	21884
876.393	21972
876.521	21922
876.65	21899
876.778	21941
876.906	21903
877.034	21797
877.162	21812
877.29	21751
877.418	21854
877.546	21922
877.674	21884
877.802	21793
877.93	21892
878.058	21861
878.185	21770
878.313	21751
878.441	21739
878.568	21686
878.696	21770
878.824	21762
878.951	21907
879.079	21964
879.206	22051
879.333	21960
879.461	21884
879.588	22010
879.715	21956
879.842	22010
879.97	21865
880.097	21622
880.224	21713
880.351	21694
880.478	21732
880.605	21576
880.732	21644
880.859	21945
880.986	21637
881.112	21663
881.239	21622
881.366	21511
881.493	21317
881.619	21237
881.746	21218
881.872	21279
881.999	21173
882.125	21214
882.252	21131
882.378	21116
882.505	21237
882.631	20990
882.757	20982
882.883	21032
883.01	20967
883.136	20777
883.262	20785
883.388	20769
883.514	20933
883.64	20929
883.766	20895
883.892	20693
884.018	20781
884.143	20857
884.269	20914
884.395	20682
884.52	20469
884.646	20598
884.772	20568
884.897	20442
885.023	20644
885.148	20693
885.274	20739
885.399	20773
885.524	20609
885.65	20613
885.775	20594
885.9	20590
886.025	20697
886.15	20708
886.275	20545
886.4	20400
886.525	20602
886.65	20465
886.775	20488
886.9	20724
887.025	20686
887.149	20583
887.274	20438
887.399	20301
887.523	20339
887.648	20396
887.773	20370
887.897	20385
888.021	20385
888.146	20294
888.27	20476
888.395	20374
888.519	20385
888.643	20351
888.767	20415
888.891	20305
889.015	20126
889.139	20195
889.263	20183
889.387	20252
889.511	20400
889.635	20328
889.759	20168
889.883	20244
890.006	20157
890.13	20294
890.254	20195
890.377	20088
890.501	19986
890.624	19871
890.748	19955
890.871	19837
890.995	19681
891.118	19616
891.241	19677
891.364	19590
891.488	19826
891.611	19845
891.734	19681
891.857	19784
891.98	19814
892.103	19852
892.226	19818
892.349	19757
892.471	19605
892.594	19655
892.717	19662
892.839	19594
892.962	19616
893.085	19742
893.207	19571
893.33	19518
893.452	19632
893.575	19681
893.697	19731
893.819	19906
893.941	19666
894.064	19731
894.186	19601
894.308	19594
894.43	19715
894.552	19921
894.674	19742
894.796	19597
894.918	19715
895.04	19571
895.161	19628
895.283	19666
895.405	19480
895.526	19700
895.648	19597
895.769	19521
895.891	19738
896.012	19734
896.134	19731
896.255	19696
896.376	19616
896.498	19750
896.619	19677
896.74	19620
896.861	19750
896.982	19932
897.103	19982
897.224	19856
897.345	19833
897.466	19822
897.587	19932
897.708	20111
897.828	19902
897.949	19780
898.07	19689
898.19	19803
898.311	19959
898.431	19826
898.552	19951
898.672	19978
898.792	20058
898.913	20035
899.033	19788
899.153	19757
899.273	19590
899.393	19582
899.513	19594
899.633	19556
899.753	19681
899.873	19620
899.993	19670
900.113	19563
900.232	19575
900.352	19487
900.472	19559
900.591	19415
900.711	19384
900.83	19396
900.95	19537
901.069	19441
901.189	19373
901.308	19126
901.427	19069
901.546	18981
901.665	19069
901.784	18985
901.904	18913
902.023	18806
902.141	18631
902.26	18464
902.379	18639
902.498	18559
902.617	18494
902.735	18521
902.854	18422
902.973	18448
903.091	18190
903.21	18038
903.328	18194
903.446	18049
903.565	17977
903.683	18117
903.801	17958
903.919	17901
904.038	17999
904.156	17889
904.274	17874
904.392	17672
904.51	17680
904.627	17756
904.745	17714
904.863	17809
904.981	17608
905.098	17532
905.216	17463
905.334	17482
905.451	17547
905.569	17444
905.686	17440
905.803	17414
905.921	17174
906.038	17299
906.155	17296
906.272	17136
906.389	17246
906.506	16968
906.623	17014
906.74	16946
906.857	16809
906.974	16934
907.091	17132
907.208	17045
907.324	16980
907.441	16908
907.557	16649
907.674	16748
907.79	16664
907.907	16706
908.023	16687
908.139	16675
908.256	16683
908.372	16622
908.488	16691
908.604	16497
908.72	16363
908.836	16519
908.952	16424
909.068	16459
909.184	16542
909.3	16500
909.415	16489
909.531	16493
909.647	16192
909.762	16173
909.878	16158
909.993	16135
910.108	16051
910.224	16063
910.339	16131
910.454	16071
910.57	15953
910.685	15873
910.8	16192
910.915	16116
911.03	15895
911.145	15861
911.259	15724
911.374	15701
911.489	15732
911.604	15656
911.718	15496
911.833	15454
911.947	15389
912.062	15462
912.176	15504
912.291	15603
912.405	15610
912.519	15641
912.633	15739
912.748	15511
912.862	15473
912.976	15294
913.09	15207
913.204	15287
913.318	15332
913.431	15397
913.545	15317
913.659	15439
913.772	15363
913.886	15207
914	15188
914.113	15310
914.226	15268
914.34	15169
914.453	14990
914.566	15108
914.68	14975
914.793	14998
914.906	14895
915.019	14674
915.132	14689
915.245	14651
915.358	14773
915.47	14769
915.583	14769
915.696	14788
915.809	14724
915.921	14887
916.034	14678
916.146	14682
916.259	14610
916.371	14598
916.483	14720
916.595	14545
916.708	14625
916.82	14545
916.932	14587
917.044	14545
917.156	14484
917.268	14404
917.38	14457
917.491	14465
917.603	14419
917.715	14522
917.826	14541
917.938	14351
918.049	14271
918.161	14415
918.272	14461
918.384	14480
918.495	14339
918.606	14168
918.717	14134
918.828	14202
918.939	14195
919.05	14027
919.161	14180
919.272	13864
919.383	14016
919.494	14134
919.604	14275
919.715	14153
919.826	14058
919.936	14202
920.047	14278
920.157	14138
920.267	14377
920.378	14202
920.488	14100
920.598	14282
920.708	14343
920.818	14244
920.928	14309
921.038	14427
921.148	14366
921.258	14149
921.368	13955
921.477	14012
921.587	13871
921.697	13712
921.806	13898
921.916	13696
922.025	13552
922.134	13643
922.244	13537
922.353	13495
922.462	13403
922.571	13396
922.68	13354
922.789	13179
922.898	13221
923.007	13099
923.116	13206
923.224	13187
923.333	13072
923.442	13023
923.55	13004
923.659	13133
923.767	13091
923.876	12875
923.984	13023
924.092	12977
924.201	12958
924.309	13038
924.417	12958
924.525	12886
924.633	12935
924.741	13681
924.849	12684
924.956	12753
925.064	12684
925.172	12540
925.279	12521
925.387	12612
925.494	12669
925.602	12688
925.709	12635
925.816	12620
925.924	12555
926.031	12654
926.138	12574
926.245	12612
926.352	12448
926.459	12601
926.566	12642
926.673	12471
926.779	12334
926.886	12365
926.993	12209
927.099	12159
927.206	12190
927.312	12205
927.419	12232
927.525	12209
927.631	12300
927.737	12110
927.843	12007
927.95	11992
928.056	11977
928.162	12019
928.267	12102
928.373	12559
928.479	12133
928.585	11851
928.69	12011
928.796	12045
928.901	11870
929.007	11745
929.112	11817
929.218	11889
929.323	11824
929.428	11703
929.533	11813
929.638	11695
929.743	11691
929.848	11813
929.953	11710
930.058	11703
930.163	11505
930.267	11493
930.372	11623
930.477	11376
930.581	11501
930.685	11490
930.79	11334
930.894	11345
930.998	11311
931.103	11497
931.207	11067
931.311	11067
931.415	10885
931.519	10877
931.623	10706
