Data from test_V78500241_2165.txt Node
Date: Fri Mar 25 15:24:56 CST 2022
User: usil
Spectrometer: V785-0024
Trigger mode: 0
Integration Time (sec): 4.000000E-1
Scans to average: 1
Nonlinearity correction enabled: false
Boxcar width: 0
Storing dark spectrum: false
XAxis mode: Wavelengths
Number of Pixels in Spectrum: 1024
>>>>>Begin Spectral Data<<<<<
801.071	27800
801.214	27709
801.356	27393
801.499	27473
801.641	27363
801.783	27298
801.926	27412
802.068	27332
802.211	27249
802.353	27176
802.496	26986
802.638	27135
802.78	26838
802.923	26857
803.065	26906
803.208	26918
803.35	26811
803.492	27112
803.635	27085
803.777	26963
803.919	27249
804.061	27382
804.204	27043
804.346	27104
804.488	27055
804.63	27131
804.773	27070
804.915	27199
805.057	27222
805.199	27058
805.341	27180
805.483	27279
805.626	27161
805.768	27142
805.91	27336
806.052	27214
806.194	27260
806.336	27450
806.478	27237
806.62	27462
806.762	27481
806.904	27462
807.046	27720
807.188	27686
807.33	27759
807.472	27713
807.614	27591
807.756	27675
807.898	27431
808.04	27374
808.182	27572
808.324	27576
808.465	27462
808.607	27728
808.749	27930
808.891	27953
809.033	27994
809.174	27842
809.316	27747
809.458	27876
809.6	27698
809.741	27937
809.883	28124
810.025	28188
810.166	28306
810.308	28211
810.45	28139
810.591	28196
810.733	27778
810.875	27770
811.016	27930
811.158	27831
811.299	28059
811.441	27964
811.582	27964
811.724	27903
811.865	27793
812.007	27956
812.148	27838
812.29	27914
812.431	27994
812.573	28090
812.714	28261
812.855	28451
812.997	28493
813.138	28721
813.279	28413
813.421	28443
813.562	28287
813.703	28318
813.845	28124
813.986	27873
814.127	27637
814.268	27614
814.41	27633
814.551	27557
814.692	27603
814.833	27519
814.974	27587
815.115	27648
815.256	27427
815.397	27374
815.539	27454
815.68	27367
815.821	27256
815.962	27420
816.103	27351
816.244	27264
816.385	27043
816.526	27112
816.666	26868
816.807	26887
816.948	26952
817.089	27001
817.23	26819
817.371	26849
817.512	26899
817.653	26807
817.793	26861
817.934	27032
818.075	26815
818.216	26910
818.356	26819
818.497	26682
818.638	26594
818.778	26651
818.919	26689
819.06	26602
819.2	26731
819.341	26857
819.481	26826
819.622	26990
819.762	27066
819.903	27169
820.043	26937
820.184	26902
820.324	26948
820.465	26979
820.605	26994
820.746	26971
820.886	26800
821.026	27039
821.167	26804
821.307	26986
821.447	26925
821.588	26762
821.728	26644
821.868	26598
822.008	26256
822.149	26263
822.289	26305
822.429	26103
822.569	26046
822.709	25959
822.849	25830
822.99	25841
823.13	25734
823.27	25734
823.41	25727
823.55	25609
823.69	25620
823.83	25700
823.97	25518
824.11	25510
824.25	25350
824.389	25521
824.529	25487
824.669	25476
824.809	25597
824.949	25483
825.089	25434
825.228	25578
825.368	25297
825.508	25225
825.648	25339
825.787	25422
825.927	25362
826.067	25362
826.206	25171
826.346	25339
826.485	25308
826.625	25324
826.765	25331
826.904	25324
827.044	25118
827.183	25285
827.323	24966
827.462	25103
827.601	25015
827.741	25027
827.88	25069
828.02	24844
828.159	24989
828.298	24973
828.437	25084
828.577	24977
828.716	25164
828.855	24970
828.994	24810
829.134	24817
829.273	24844
829.412	24787
829.551	24616
829.69	24700
829.829	24734
829.968	24802
830.107	24700
830.246	24589
830.385	24745
830.524	24551
830.663	24585
830.802	24399
830.941	24308
831.08	24228
831.219	24471
831.357	24342
831.496	24631
831.635	24327
831.774	24270
831.913	24148
832.051	24182
832.19	24041
832.329	24144
832.467	24038
832.606	23950
832.744	23973
832.883	24026
833.022	23999
833.16	24034
833.299	24053
833.437	24011
833.576	24064
833.714	24022
833.852	24049
833.991	24148
834.129	24087
834.267	24338
834.406	24167
834.544	24171
834.682	24167
834.821	23984
834.959	24182
835.097	24034
835.235	24110
835.373	23999
835.511	24079
835.65	23874
835.788	24011
835.926	23897
836.064	23752
836.202	23779
836.34	23999
836.478	24018
836.615	23828
836.753	23988
836.891	24030
837.029	23980
837.167	23855
837.305	23828
837.443	23798
837.58	23786
837.718	23752
837.856	23874
837.993	23695
838.131	23775
838.269	23733
838.406	23585
838.544	23733
838.681	23478
838.819	23379
838.956	23250
839.094	23307
839.231	23303
839.369	23440
839.506	23493
839.643	23417
839.781	23231
839.918	23235
840.055	23258
840.193	23193
840.33	23254
840.467	23086
840.604	23022
840.742	23383
840.879	22927
841.016	23128
841.153	23006
841.29	23254
841.427	23067
841.564	23132
841.701	23162
841.838	23086
841.975	23041
842.112	22930
842.249	22885
842.385	22805
842.522	23124
842.659	22904
842.796	22786
842.933	22976
843.069	22949
843.206	22759
843.343	22976
843.479	22824
843.616	22919
843.752	22656
843.889	22774
844.025	22873
844.162	22691
844.298	22786
844.435	22653
844.571	22607
844.708	22683
844.844	22915
844.98	22752
845.117	22694
845.253	22622
845.389	22592
845.525	22519
845.661	22573
845.798	22402
845.934	22440
846.07	22382
846.206	22470
846.342	22527
846.478	22409
846.614	22242
846.75	22078
846.886	22135
847.022	22280
847.158	22025
847.294	22082
847.429	22215
847.565	22036
847.701	22432
847.837	21842
847.972	21873
848.108	21941
848.244	21915
848.379	21656
848.515	21797
848.65	21660
848.786	21739
848.921	21789
849.057	21762
849.192	21793
849.328	21694
849.463	21789
849.598	21648
849.734	21595
849.869	21679
850.004	21515
850.14	21496
850.275	21458
850.41	21412
850.545	21431
850.68	21526
850.815	21587
850.95	21557
851.085	21580
851.22	21599
851.355	21412
851.49	21515
851.625	21447
851.76	21405
851.895	21469
852.03	21264
852.165	21428
852.299	21428
852.434	21553
852.569	21568
852.703	21481
852.838	21591
852.973	21549
853.107	21629
853.242	21443
853.376	21378
853.511	21214
853.645	21317
853.78	21428
853.914	21192
854.048	21348
854.183	21367
854.317	21302
854.451	21443
854.585	21233
854.72	21317
854.854	21252
854.988	21245
855.122	21325
855.256	21245
855.39	21355
855.524	21355
855.658	21367
855.792	21393
855.926	21363
856.06	21344
856.194	21420
856.327	21313
856.461	21184
856.595	21241
856.729	21287
856.862	21405
856.996	21325
857.13	21260
857.263	21424
857.397	21424
857.53	21405
857.664	21401
857.797	21325
857.931	21329
858.064	21237
858.197	21397
858.331	21279
858.464	21340
858.597	21096
858.731	21252
858.864	21245
858.997	21279
859.13	21249
859.263	21405
859.396	21382
859.529	21283
859.662	21203
859.795	21222
859.928	21302
860.061	21450
860.194	21603
860.327	21218
860.46	21256
860.592	21378
860.725	21408
860.858	21408
860.99	21203
861.123	21226
861.256	21199
861.388	21214
861.521	21953
861.653	21222
861.786	21089
861.918	21131
862.05	21207
862.183	21214
862.315	21359
862.447	21275
862.58	21184
862.712	20971
862.844	20986
862.976	21093
863.108	21119
863.24	21492
863.372	20979
863.504	20948
863.636	21066
863.768	21039
863.9	20929
864.032	20864
864.164	20982
864.296	21013
864.428	21176
864.559	21009
864.691	21066
864.823	21024
864.954	21005
865.086	21081
865.217	20891
865.349	20804
865.48	21009
865.612	20842
865.743	21039
865.875	20967
866.006	20834
866.137	20895
866.269	20830
866.4	20861
866.531	20720
866.662	20762
866.793	20842
866.924	20899
867.055	20765
867.186	20857
867.317	20762
867.448	20682
867.579	20781
867.71	20708
867.841	20655
867.972	20861
868.103	20864
868.233	20712
868.364	20838
868.495	21013
868.625	21119
868.756	21104
868.886	20933
869.017	20986
869.147	21096
869.278	21256
869.408	21096
869.539	21051
869.669	21108
869.799	21058
869.929	21074
870.06	21127
870.19	21351
870.32	21386
870.45	21310
870.58	21454
870.71	21523
870.84	21553
870.97	21515
871.1	21378
871.23	21644
871.36	21656
871.489	21614
871.619	21656
871.749	21671
871.879	21641
872.008	21739
872.138	21717
872.267	21603
872.397	21530
872.526	21447
872.656	21477
872.785	21485
872.915	21686
873.044	21667
873.173	21759
873.303	21781
873.432	21816
873.561	21713
873.69	21698
873.819	21751
873.948	21846
874.077	21698
874.206	21583
874.335	21701
874.464	21736
874.593	21915
874.722	21816
874.851	21930
874.979	21888
875.108	21930
875.237	21884
875.365	21937
875.494	21873
875.623	22059
875.751	21930
875.88	22025
876.008	22010
876.136	22006
876.265	22234
876.393	22314
876.521	22405
876.65	22287
876.778	22287
876.906	22223
877.034	22188
877.162	22265
877.29	22299
877.418	22238
877.546	22276
877.674	22257
877.802	22211
877.93	22276
878.058	22223
878.185	22147
878.313	22223
878.441	22249
878.568	22124
878.696	22166
878.824	22249
878.951	22257
879.079	22360
879.206	22531
879.333	22276
879.461	22322
879.588	22306
879.715	22535
879.842	22447
879.97	22337
880.097	22105
880.224	22074
880.351	22207
880.478	22059
880.605	22036
880.732	22032
880.859	22242
880.986	22090
881.112	22074
881.239	21835
881.366	21728
881.493	21762
881.619	21633
881.746	21667
881.872	21633
881.999	21610
882.125	21622
882.252	21644
882.378	21526
882.505	21797
882.631	21458
882.757	21405
882.883	21538
883.01	21386
883.136	21256
883.262	21245
883.388	21218
883.514	21310
883.64	21405
883.766	21306
883.892	21051
884.018	21104
884.143	21378
884.269	21351
884.395	21070
884.52	20925
884.646	21081
884.772	20929
884.897	20807
885.023	20998
885.148	21081
885.274	21226
885.399	21142
885.524	20960
885.65	21058
885.775	20994
885.9	20979
886.025	21085
886.15	20982
886.275	20861
886.4	20857
886.525	21024
886.65	20979
886.775	20868
886.9	20979
887.025	21336
887.149	20979
887.274	20815
887.399	20697
887.523	20720
887.648	20705
887.773	20693
887.897	20921
888.021	20765
888.146	20629
888.27	20876
888.395	20941
888.519	20845
888.643	20842
888.767	20853
888.891	20727
889.015	20655
889.139	20526
889.263	20571
889.387	20598
889.511	20648
889.635	20590
889.759	20533
889.883	20571
890.006	20556
890.13	20648
890.254	20507
890.377	20469
890.501	20347
890.624	20191
890.748	20377
890.871	20180
890.995	20069
891.118	20054
891.241	20229
891.364	20115
891.488	20221
891.611	20256
891.734	20134
891.857	20218
891.98	20161
892.103	20248
892.226	19970
892.349	20145
892.471	19978
892.594	20008
892.717	20142
892.839	19997
892.962	20005
893.085	20050
893.207	20111
893.33	19875
893.452	19993
893.575	20016
893.697	20122
893.819	20202
893.941	20248
894.064	20153
894.186	19989
894.308	20012
894.43	20199
894.552	20176
894.674	20035
894.796	19963
894.918	20168
895.04	19932
895.161	20062
895.283	20081
895.405	20035
895.526	20134
895.648	20122
895.769	20073
895.891	20119
896.012	20107
896.134	20122
896.255	20054
896.376	19887
896.498	19925
896.619	20153
896.74	20024
896.861	20122
896.982	20362
897.103	20419
897.224	20294
897.345	20313
897.466	20244
897.587	20240
897.708	20427
897.828	20343
897.949	20225
898.07	20020
898.19	20161
898.311	20339
898.431	20195
898.552	20199
898.672	20358
898.792	20366
898.913	20259
899.033	20039
899.153	20001
899.273	19921
899.393	20069
899.513	20035
899.633	19982
899.753	20111
899.873	20084
899.993	20039
900.113	19970
900.232	20020
900.352	19906
900.472	19807
900.591	19765
900.711	19909
900.83	19651
900.95	19898
901.069	19811
901.189	19757
901.308	19514
901.427	19331
901.546	19381
901.665	19381
901.784	19403
901.904	19209
902.023	19107
902.141	18935
902.26	18954
902.379	19076
902.498	18924
902.617	18833
902.735	18939
902.854	18798
902.973	18837
903.091	18604
903.21	18528
903.328	18646
903.446	18479
903.565	18338
903.683	18452
903.801	18304
903.919	18357
904.038	18338
904.156	18243
904.274	18254
904.392	18136
904.51	18133
904.627	18106
904.745	18228
904.863	18186
904.981	17847
905.098	17851
905.216	17859
905.334	17760
905.451	17840
905.569	17794
905.686	17866
905.803	17882
905.921	17592
906.038	17741
906.155	17737
906.272	17509
906.389	17543
906.506	17421
906.623	17341
906.74	17368
906.857	17242
906.974	17353
907.091	17433
907.208	17474
907.324	17315
907.441	17288
907.557	17117
907.674	17060
907.79	17075
907.907	16972
908.023	17064
908.139	17105
908.256	17064
908.372	17052
908.488	16961
908.604	16782
908.72	16889
908.836	16889
908.952	16843
909.068	16812
909.184	16869
909.3	16862
909.415	16778
909.531	16820
909.647	16538
909.762	16542
909.878	16527
909.993	16512
910.108	16470
910.224	16398
910.339	16485
910.454	16447
910.57	16299
910.685	16215
910.8	16497
910.915	16497
911.03	16249
911.145	16181
911.259	16074
911.374	16086
911.489	16048
911.604	15949
911.718	15857
911.833	15812
911.947	15804
912.062	15770
912.176	15842
912.291	15854
912.405	15873
912.519	15926
912.633	16055
912.748	15854
912.862	15819
912.976	15762
913.09	15549
913.204	15591
913.318	15629
913.431	15861
913.545	15755
913.659	15713
913.772	15633
913.886	15496
914	15424
914.113	15603
914.226	15564
914.34	15534
914.453	15428
914.566	15507
914.68	15268
914.793	15294
914.906	15180
915.019	15123
915.132	15036
915.245	15036
915.358	15074
915.47	15005
915.583	15097
915.696	15104
915.809	15142
915.921	15192
916.034	15013
916.146	14994
916.259	14921
916.371	15074
916.483	15077
916.595	14910
916.708	14933
916.82	14804
916.932	14864
917.044	14804
917.156	14750
917.268	14705
917.38	14796
917.491	14689
917.603	14712
917.715	14845
917.826	14769
917.938	14632
918.049	14488
918.161	14697
918.272	14811
918.384	14849
918.495	14621
918.606	14537
918.717	14423
918.828	14480
918.939	14560
919.05	14457
919.161	14423
919.272	14313
919.383	14343
919.494	14469
919.604	14663
919.715	14533
919.826	14298
919.936	14473
920.047	14549
920.157	14355
920.267	14541
920.378	14446
920.488	14454
920.598	14583
920.708	14807
920.818	14545
920.928	14537
921.038	14754
921.148	14693
921.258	14434
921.368	14294
921.477	14183
921.587	14123
921.697	14111
921.806	14111
921.916	13967
922.025	13849
922.134	13902
922.244	13795
922.353	13879
922.462	13750
922.571	13658
922.68	13502
922.789	13533
922.898	13445
923.007	13487
923.116	13521
923.224	13472
923.333	13487
923.442	13278
923.55	13297
923.659	13346
923.767	13495
923.876	13244
923.984	13419
924.092	13217
924.201	13255
924.309	13206
924.417	13270
924.525	13114
924.633	13175
924.741	13890
924.849	12996
924.956	13046
925.064	12985
925.172	12852
925.279	12825
925.387	12951
925.494	12825
925.602	13019
925.709	12909
925.816	12768
925.924	12871
926.031	12909
926.138	12897
926.245	12932
926.352	12673
926.459	12916
926.566	12947
926.673	12802
926.779	12662
926.886	12612
926.993	12578
927.099	12433
927.206	12418
927.312	12388
927.419	12540
927.525	12467
927.631	12544
927.737	12372
927.843	12330
927.95	12197
928.056	12342
928.162	12323
928.267	12338
928.373	12802
928.479	12311
928.585	12209
928.69	12159
928.796	12266
928.901	12155
929.007	11961
929.112	12091
929.218	12079
929.323	12057
929.428	11973
929.533	12117
929.638	11901
929.743	11939
929.848	11992
929.953	11965
930.058	11828
930.163	11726
930.267	11661
930.372	11893
930.477	11684
930.581	11946
930.685	11752
930.79	11551
930.894	11661
930.998	11596
931.103	11710
931.207	11360
931.311	11345
931.415	11147
931.519	11094
931.623	10923
