Data from test_V78500241_1893.txt Node
Date: Fri Mar 25 15:23:02 CST 2022
User: usil
Spectrometer: V785-0024
Trigger mode: 0
Integration Time (sec): 4.000000E-1
Scans to average: 1
Nonlinearity correction enabled: false
Boxcar width: 0
Storing dark spectrum: false
XAxis mode: Wavelengths
Number of Pixels in Spectrum: 1024
>>>>>Begin Spectral Data<<<<<
801.071	27838
801.214	27812
801.356	27469
801.499	27466
801.641	27374
801.783	27416
801.926	27424
802.068	27287
802.211	27233
802.353	27264
802.496	26994
802.638	26857
802.78	26891
802.923	26963
803.065	26880
803.208	26910
803.35	27074
803.492	27051
803.635	27165
803.777	27051
803.919	27154
804.061	27420
804.204	27214
804.346	27089
804.488	27123
804.63	27203
804.773	27112
804.915	27180
805.057	27233
805.199	27146
805.341	27222
805.483	27378
805.626	27188
805.768	27195
805.91	27283
806.052	27268
806.194	27252
806.336	27477
806.478	27424
806.62	27351
806.762	27496
806.904	27439
807.046	27774
807.188	27728
807.33	27576
807.472	27724
807.614	27637
807.756	27720
807.898	27557
808.04	27595
808.182	27378
808.324	27595
808.465	27728
808.607	27724
808.749	27907
808.891	28036
809.033	28116
809.174	27941
809.316	27850
809.458	27930
809.6	27907
809.741	28128
809.883	28074
810.025	28261
810.166	28185
810.308	28226
810.45	28207
810.591	28112
810.733	27987
810.875	27941
811.016	27732
811.158	27789
811.299	27953
811.441	27994
811.582	28074
811.724	27778
811.865	27953
812.007	27800
812.148	27960
812.29	27998
812.431	28040
812.573	28325
812.714	28234
812.855	28424
812.997	28683
813.138	28660
813.279	28569
813.421	28390
813.562	28394
813.703	28177
813.845	28188
813.986	27797
814.127	27667
814.268	27564
814.41	27736
814.551	27564
814.692	27557
814.833	27348
814.974	27553
815.115	27599
815.256	27557
815.397	27431
815.539	27500
815.68	27291
815.821	27313
815.962	27542
816.103	27431
816.244	27260
816.385	27272
816.526	27062
816.666	27013
816.807	26887
816.948	26849
817.089	27005
817.23	26960
817.371	26883
817.512	26956
817.653	26861
817.793	26777
817.934	26876
818.075	26902
818.216	26849
818.356	26914
818.497	26686
818.638	26530
818.778	26769
818.919	26720
819.06	26765
819.2	26689
819.341	26883
819.481	26967
819.622	27055
819.762	27108
819.903	27169
820.043	27039
820.184	27001
820.324	27146
820.465	27108
820.605	26963
820.746	27039
820.886	26800
821.026	26960
821.167	26735
821.307	26960
821.447	26845
821.588	26777
821.728	26686
821.868	26453
822.008	26358
822.149	26324
822.289	26324
822.429	26103
822.569	25989
822.709	26058
822.849	25947
822.99	25742
823.13	25951
823.27	25860
823.41	25632
823.55	25643
823.69	25742
823.83	25704
823.97	25628
824.11	25620
824.25	25460
824.389	25502
824.529	25544
824.669	25514
824.809	25753
824.949	25613
825.089	25681
825.228	25472
825.368	25362
825.508	25293
825.648	25495
825.787	25441
825.927	25441
826.067	25407
826.206	25438
826.346	25445
826.485	25381
826.625	25407
826.765	25438
826.904	25388
827.044	25236
827.183	25175
827.323	25126
827.462	25255
827.601	25190
827.741	25179
827.88	25187
828.02	25027
828.159	24996
828.298	25171
828.437	25190
828.577	25137
828.716	25187
828.855	25141
828.994	24741
829.134	24886
829.273	24878
829.412	24734
829.551	24848
829.69	24878
829.829	24951
829.968	24951
830.107	24939
830.246	24909
830.385	24681
830.524	24722
830.663	24692
830.802	24464
830.941	24517
831.08	24475
831.219	24623
831.357	24479
831.496	24650
831.635	24540
831.774	24456
831.913	24258
832.051	24334
832.19	24289
832.329	24289
832.467	24171
832.606	24121
832.744	23984
832.883	24072
833.022	24178
833.16	24197
833.299	24091
833.437	24201
833.576	24205
833.714	24186
833.852	24266
833.991	24353
834.129	24224
834.267	24262
834.406	24045
834.544	24247
834.682	24121
834.821	24270
834.959	24308
835.097	24140
835.235	24262
835.373	24205
835.511	24125
835.65	24079
835.788	24133
835.926	23901
836.064	23718
836.202	23931
836.34	24121
836.478	24079
836.615	24125
836.753	24216
836.891	24182
837.029	23988
837.167	24049
837.305	24018
837.443	23965
837.58	23870
837.718	23961
837.856	23813
837.993	23828
838.131	23874
838.269	23695
838.406	23691
838.544	23767
838.681	23627
838.819	23463
838.956	23528
839.094	23296
839.231	23398
839.369	23505
839.506	23775
839.643	23638
839.781	23288
839.918	23231
840.055	23356
840.193	23364
840.33	23315
840.467	23337
840.604	23292
840.742	23486
840.879	23254
841.016	23216
841.153	23273
841.29	23410
841.427	23372
841.564	23307
841.701	23273
841.838	23197
841.975	23143
842.112	23220
842.249	23105
842.385	22999
842.522	23220
842.659	23136
842.796	23022
842.933	23086
843.069	22991
843.206	23044
843.343	23094
843.479	23029
843.616	23121
843.752	22824
843.889	22869
844.025	22961
844.162	22809
844.298	22987
844.435	22797
844.571	22752
844.708	22877
844.844	23044
844.98	22858
845.117	22885
845.253	22831
845.389	22729
845.525	22660
845.661	22618
845.798	22554
845.934	22538
846.07	22459
846.206	22599
846.342	22611
846.478	22519
846.614	22363
846.75	22310
846.886	22230
847.022	22348
847.158	22382
847.294	22333
847.429	22462
847.565	22128
847.701	22485
847.837	22063
847.972	22048
848.108	22090
848.244	22124
848.379	21968
848.515	21876
848.65	21930
848.786	21793
848.921	21945
849.057	21991
849.192	21956
849.328	21907
849.463	21854
849.598	21930
849.734	21663
849.869	21698
850.004	21576
850.14	21675
850.275	21793
850.41	21515
850.545	21599
850.68	21591
850.815	21561
850.95	21720
851.085	21838
851.22	21800
851.355	21568
851.49	21675
851.625	21500
851.76	21583
851.895	21515
852.03	21679
852.165	21576
852.299	21694
852.434	21614
852.569	21667
852.703	21641
852.838	21625
852.973	21759
853.107	21747
853.242	21587
853.376	21469
853.511	21291
853.645	21393
853.78	21545
853.914	21321
854.048	21401
854.183	21367
854.317	21420
854.451	21507
854.585	21500
854.72	21340
854.854	21545
854.988	21435
855.122	21412
855.256	21374
855.39	21355
855.524	21523
855.658	21488
855.792	21481
855.926	21519
856.06	21511
856.194	21488
856.327	21374
856.461	21428
856.595	21321
856.729	21428
856.862	21717
856.996	21431
857.13	21515
857.263	21504
857.397	21614
857.53	21488
857.664	21473
857.797	21496
857.931	21511
858.064	21458
858.197	21469
858.331	21397
858.464	21329
858.597	21355
858.731	21348
858.864	21401
858.997	21412
859.13	21462
859.263	21363
859.396	21443
859.529	21443
859.662	21412
859.795	21462
859.928	21549
860.061	21549
860.194	21720
860.327	21496
860.46	21530
860.592	21507
860.725	21625
860.858	21523
860.99	21428
861.123	21294
861.256	21325
861.388	21534
861.521	22219
861.653	21332
861.786	21256
861.918	21161
862.05	21424
862.183	21367
862.315	21393
862.447	21458
862.58	21420
862.712	21165
862.844	21180
862.976	21233
863.108	21207
863.24	21530
863.372	21180
863.504	21066
863.636	21192
863.768	21211
863.9	21188
864.032	20982
864.164	21142
864.296	21085
864.428	21393
864.559	21306
864.691	21173
864.823	21165
864.954	21256
865.086	21184
865.217	21085
865.349	20975
865.48	21001
865.612	21009
865.743	21173
865.875	20979
866.006	21039
866.137	21047
866.269	21036
866.4	21070
866.531	21028
866.662	20937
866.793	20918
866.924	21051
867.055	20918
867.186	20998
867.317	20880
867.448	20910
867.579	20895
867.71	20971
867.841	20876
867.972	21051
868.103	20899
868.233	20872
868.364	21013
868.495	20994
868.625	21142
868.756	21275
868.886	21150
869.017	21211
869.147	21416
869.278	21329
869.408	21298
869.539	21268
869.669	21264
869.799	21332
869.929	21332
870.06	21359
870.19	21523
870.32	21435
870.45	21485
870.58	21538
870.71	21671
870.84	21762
870.97	21720
871.1	21603
871.23	21759
871.36	21869
871.489	21755
871.619	21785
871.749	21835
871.879	21789
872.008	21934
872.138	21755
872.267	21869
872.397	21682
872.526	21644
872.656	21713
872.785	21648
872.915	21838
873.044	21884
873.173	21808
873.303	21895
873.432	21979
873.561	21945
873.69	21884
873.819	21827
873.948	21884
874.077	21739
874.206	21762
874.335	21953
874.464	21941
874.593	22116
874.722	22017
874.851	22090
874.979	22192
875.108	22162
875.237	22082
875.365	21941
875.494	21987
875.623	22158
875.751	22112
875.88	22143
876.008	22173
876.136	22211
876.265	22413
876.393	22497
876.521	22577
876.65	22489
876.778	22447
876.906	22348
877.034	22409
877.162	22409
877.29	22310
877.418	22333
877.546	22512
877.674	22409
877.802	22333
877.93	22413
878.058	22356
878.185	22318
878.313	22424
878.441	22306
878.568	22257
878.696	22310
878.824	22341
878.951	22462
879.079	22523
879.206	22626
879.333	22573
879.461	22371
879.588	22519
879.715	22493
879.842	22675
879.97	22443
880.097	22200
880.224	22173
880.351	22226
880.478	22265
880.605	22029
880.732	22219
880.859	22424
880.986	22234
881.112	22265
881.239	22086
881.366	21888
881.493	21911
881.619	21838
881.746	21724
881.872	21831
881.999	21720
882.125	21747
882.252	21915
882.378	21789
882.505	21930
882.631	21599
882.757	21572
882.883	21644
883.01	21583
883.136	21420
883.262	21325
883.388	21249
883.514	21401
883.64	21603
883.766	21344
883.892	21233
884.018	21260
884.143	21504
884.269	21504
884.395	21184
884.52	21176
884.646	21252
884.772	21062
884.897	21039
885.023	21222
885.148	21226
885.274	21218
885.399	21268
885.524	21074
885.65	21161
885.775	21009
885.9	21096
886.025	21226
886.15	21173
886.275	21058
886.4	21066
886.525	21127
886.65	21077
886.775	21013
886.9	21249
887.025	21260
887.149	21024
887.274	20937
887.399	20921
887.523	20929
887.648	20872
887.773	20781
887.897	20910
888.021	20952
888.146	20826
888.27	21024
888.395	21051
888.519	21024
888.643	21005
888.767	20883
888.891	20758
889.015	20598
889.139	20815
889.263	20587
889.387	20830
889.511	20807
889.635	20823
889.759	20750
889.883	20670
890.006	20663
890.13	20895
890.254	20587
890.377	20606
890.501	20374
890.624	20419
890.748	20499
890.871	20317
890.995	20214
891.118	20248
891.241	20305
891.364	20355
891.488	20492
891.611	20305
891.734	20275
891.857	20301
891.98	20275
892.103	20290
892.226	20358
892.349	20259
892.471	20145
892.594	20157
892.717	20214
892.839	20210
892.962	20252
893.085	20278
893.207	20161
893.33	20130
893.452	20119
893.575	20259
893.697	20096
893.819	20423
893.941	20339
894.064	20317
894.186	20278
894.308	20035
894.43	20164
894.552	20267
894.674	20252
894.796	20012
894.918	20157
895.04	20100
895.161	20233
895.283	20187
895.405	20081
895.526	20180
895.648	20164
895.769	20275
895.891	20244
896.012	20309
896.134	20225
896.255	20210
896.376	20149
896.498	20267
896.619	20237
896.74	20142
896.861	20149
896.982	20454
897.103	20560
897.224	20400
897.345	20400
897.466	20229
897.587	20393
897.708	20514
897.828	20423
897.949	20313
898.07	20328
898.19	20317
898.311	20366
898.431	20324
898.552	20347
898.672	20492
898.792	20404
898.913	20320
899.033	20282
899.153	20256
899.273	20039
899.393	20138
899.513	20035
899.633	20012
899.753	20107
899.873	20012
899.993	20138
900.113	20134
900.232	20210
900.352	20096
900.472	19978
900.591	19776
900.711	19928
900.83	19944
900.95	20058
901.069	19986
901.189	19750
901.308	19620
901.427	19552
901.546	19529
901.665	19472
901.784	19495
901.904	19346
902.023	19247
902.141	19088
902.26	19004
902.379	19012
902.498	19023
902.617	18935
902.735	19050
902.854	18981
902.973	18859
903.091	18578
903.21	18692
903.328	18559
903.446	18540
903.565	18536
903.683	18433
903.801	18369
903.919	18437
904.038	18391
904.156	18216
904.274	18334
904.392	18228
904.51	18171
904.627	18262
904.745	18330
904.863	18197
904.981	18079
905.098	17935
905.216	18030
905.334	17893
905.451	17859
905.569	17882
905.686	17939
905.803	17821
905.921	17638
906.038	17859
906.155	17657
906.272	17516
906.389	17573
906.506	17414
906.623	17493
906.74	17398
906.857	17395
906.974	17433
907.091	17611
907.208	17558
907.324	17433
907.441	17322
907.557	17181
907.674	17174
907.79	17117
907.907	17147
908.023	17223
908.139	17079
908.256	17223
908.372	17025
908.488	16900
908.604	16900
908.72	16820
908.836	16850
908.952	16752
909.068	16885
909.184	16999
909.3	16816
909.415	16987
909.531	16721
909.647	16630
909.762	16649
909.878	16607
909.993	16611
910.108	16592
910.224	16535
910.339	16512
910.454	16382
910.57	16390
910.685	16314
910.8	16538
910.915	16542
911.03	16474
911.145	16226
911.259	16109
911.374	16093
911.489	16101
911.604	16116
911.718	15949
911.833	15884
911.947	15850
912.062	15762
912.176	15888
912.291	15865
912.405	15808
912.519	16120
912.633	16097
912.748	15937
912.862	15819
912.976	15781
913.09	15599
913.204	15663
913.318	15743
913.431	15759
913.545	15800
913.659	15861
913.772	15713
913.886	15515
914	15534
914.113	15625
914.226	15682
914.34	15595
914.453	15443
914.566	15519
914.68	15496
914.793	15313
914.906	15218
915.019	15119
915.132	15157
915.245	15169
915.358	15169
915.47	15127
915.583	15207
915.696	15146
915.809	15195
915.921	15226
916.034	15058
916.146	15032
916.259	15032
916.371	15230
916.483	15131
916.595	14902
916.708	15020
916.82	14960
916.932	14876
917.044	14963
917.156	14906
917.268	14807
917.38	14872
917.491	14765
917.603	14792
917.715	14902
917.826	14796
917.938	14686
918.049	14689
918.161	14777
918.272	14956
918.384	14773
918.495	14785
918.606	14598
918.717	14537
918.828	14571
918.939	14629
919.05	14488
919.161	14602
919.272	14389
919.383	14374
919.494	14579
919.604	14724
919.715	14564
919.826	14408
919.936	14419
920.047	14514
920.157	14476
920.267	14667
920.378	14514
920.488	14522
920.598	14606
920.708	14811
920.818	14674
920.928	14602
921.038	14750
921.148	14765
921.258	14465
921.368	14415
921.477	14332
921.587	14176
921.697	14149
921.806	14282
921.916	14081
922.025	14069
922.134	13890
922.244	13955
922.353	13959
922.462	13753
922.571	13750
922.68	13552
922.789	13472
922.898	13613
923.007	13411
923.116	13499
923.224	13476
923.333	13518
923.442	13419
923.55	13339
923.659	13392
923.767	13460
923.876	13358
923.984	13316
924.092	13244
924.201	13289
924.309	13270
924.417	13339
924.525	13141
924.633	13198
924.741	14130
924.849	12958
924.956	13145
925.064	12901
925.172	12863
925.279	13065
925.387	13015
925.494	13031
925.602	13015
925.709	12932
925.816	12935
925.924	12833
926.031	13012
926.138	12871
926.245	12901
926.352	12833
926.459	12951
926.566	12943
926.673	12916
926.779	12734
926.886	12768
926.993	12486
927.099	12551
927.206	12437
927.312	12509
927.419	12517
927.525	12483
927.631	12479
927.737	12361
927.843	12350
927.95	12243
928.056	12300
928.162	12311
928.267	12456
928.373	12886
928.479	12395
928.585	12167
928.69	12258
928.796	12372
928.901	12232
929.007	12079
929.112	12159
929.218	12270
929.323	12057
929.428	12045
929.533	12216
929.638	11992
929.743	12049
929.848	12053
929.953	11988
930.058	11889
930.163	11714
930.267	11771
930.372	11901
930.477	11718
930.581	11942
930.685	11729
930.79	11543
930.894	11630
930.998	11665
931.103	11729
931.207	11368
931.311	11261
931.415	11170
931.519	10961
931.623	11064
