Data from test_V78500241_2781.txt Node
Date: Fri Mar 25 15:29:13 CST 2022
User: usil
Spectrometer: V785-0024
Trigger mode: 0
Integration Time (sec): 4.000000E-1
Scans to average: 1
Nonlinearity correction enabled: false
Boxcar width: 0
Storing dark spectrum: false
XAxis mode: Wavelengths
Number of Pixels in Spectrum: 1024
>>>>>Begin Spectral Data<<<<<
801.071	27249
801.214	27043
801.356	26845
801.499	26769
801.641	26693
801.783	26602
801.926	26720
802.068	26689
802.211	26530
802.353	26495
802.496	26305
802.638	26438
802.78	26252
802.923	26221
803.065	26134
803.208	26347
803.35	26355
803.492	26495
803.635	26393
803.777	26309
803.919	26419
804.061	26651
804.204	26587
804.346	26511
804.488	26377
804.63	26511
804.773	26450
804.915	26530
805.057	26705
805.199	26530
805.341	26358
805.483	26648
805.626	26457
805.768	26450
805.91	26625
806.052	26564
806.194	26552
806.336	26670
806.478	26484
806.62	26507
806.762	26636
806.904	26887
807.046	27074
807.188	27123
807.33	27013
807.472	27032
807.614	26952
807.756	26925
807.898	26963
808.04	26796
808.182	26792
808.324	27009
808.465	26857
808.607	27047
808.749	27154
808.891	27359
809.033	27310
809.174	27173
809.316	27173
809.458	27176
809.6	27218
809.741	27344
809.883	27287
810.025	27564
810.166	27526
810.308	27500
810.45	27386
810.591	27329
810.733	27192
810.875	27252
811.016	26986
811.158	27096
811.299	27249
811.441	27344
811.582	27439
811.724	27268
811.865	27009
812.007	27214
812.148	27184
812.29	27233
812.431	27291
812.573	27272
812.714	27591
812.855	27709
812.997	27656
813.138	27949
813.279	27816
813.421	27652
813.562	27625
813.703	27492
813.845	27329
813.986	27131
814.127	27013
814.268	26876
814.41	26845
814.551	26826
814.692	26929
814.833	26724
814.974	26845
815.115	26849
815.256	26617
815.397	26834
815.539	26830
815.68	26617
815.821	26431
815.962	26670
816.103	26571
816.244	26465
816.385	26511
816.526	26294
816.666	26206
816.807	26027
816.948	26240
817.089	26233
817.23	26062
817.371	26103
817.512	25947
817.653	26065
817.793	26058
817.934	26043
818.075	26077
818.216	26039
818.356	26168
818.497	25959
818.638	25784
818.778	25784
818.919	25833
819.06	25852
819.2	26065
819.341	26115
819.481	26103
819.622	26202
819.762	26355
819.903	26267
820.043	26256
820.184	26153
820.324	26180
820.465	26157
820.605	26298
820.746	26248
820.886	26039
821.026	26294
821.167	26138
821.307	26020
821.447	26206
821.588	25906
821.728	25970
821.868	25689
822.008	25662
822.149	25582
822.289	25476
822.429	25301
822.569	25152
822.709	25202
822.849	25251
822.99	25141
823.13	24890
823.27	24958
823.41	24928
823.55	24753
823.69	24787
823.83	24871
823.97	24909
824.11	24719
824.25	24734
824.389	24475
824.529	24779
824.669	24604
824.809	24692
824.949	24711
825.089	24631
825.228	24688
825.368	24559
825.508	24350
825.648	24559
825.787	24578
825.927	24525
826.067	24509
826.206	24388
826.346	24646
826.485	24612
826.625	24608
826.765	24703
826.904	24536
827.044	24346
827.183	24285
827.323	24292
827.462	24304
827.601	24220
827.741	24102
827.88	24220
828.02	24136
828.159	24232
828.298	24190
828.437	24315
828.577	24167
828.716	24308
828.855	24159
828.994	23988
829.134	24136
829.273	23977
829.412	23843
829.551	23843
829.69	23794
829.829	23885
829.968	24015
830.107	24197
830.246	23942
830.385	23927
830.524	23912
830.663	23729
830.802	23752
830.941	23512
831.08	23551
831.219	23733
831.357	23581
831.496	23771
831.635	23661
831.774	23474
831.913	23459
832.051	23414
832.19	23353
832.329	23330
832.467	23250
832.606	23159
832.744	23216
832.883	23318
833.022	23143
833.16	23235
833.299	23284
833.437	23307
833.576	23284
833.714	23303
833.852	23303
833.991	23200
834.129	23341
834.267	23307
834.406	23200
834.544	23311
834.682	23334
834.821	23368
834.959	23406
835.097	23250
835.235	23235
835.373	23197
835.511	23193
835.65	23006
835.788	23155
835.926	22934
836.064	22980
836.202	23056
836.34	23140
836.478	23162
836.615	23067
836.753	23067
836.891	23318
837.029	23113
837.167	23010
837.305	23060
837.443	23006
837.58	22862
837.718	23044
837.856	23048
837.993	22904
838.131	22987
838.269	22835
838.406	22946
838.544	22828
838.681	22645
838.819	22759
838.956	22535
839.094	22474
839.231	22455
839.369	22721
839.506	22835
839.643	22782
839.781	22546
839.918	22398
840.055	22462
840.193	22348
840.33	22379
840.467	22409
840.604	22489
840.742	22820
840.879	22265
841.016	22325
841.153	22204
841.29	22481
841.427	22379
841.564	22462
841.701	22432
841.838	22291
841.975	22299
842.112	22310
842.249	22207
842.385	22246
842.522	22462
842.659	22242
842.796	22276
842.933	22059
843.069	22051
843.206	22086
843.343	22230
843.479	22082
843.616	22230
843.752	21964
843.889	21998
844.025	22097
844.162	21972
844.298	22025
844.435	21918
844.571	21922
844.708	21998
844.844	22021
844.98	22090
845.117	21922
845.253	21846
845.389	21789
845.525	21781
845.661	21724
845.798	21553
845.934	21656
846.07	21717
846.206	21591
846.342	21759
846.478	21538
846.614	21439
846.75	21367
846.886	21336
847.022	21416
847.158	21321
847.294	21374
847.429	21447
847.565	21382
847.701	21656
847.837	21161
847.972	21154
848.108	21161
848.244	21264
848.379	20967
848.515	21039
848.65	20982
848.786	21154
848.921	21093
849.057	21119
849.192	21036
849.328	21085
849.463	21043
849.598	20967
849.734	20918
849.869	20815
850.004	20785
850.14	20796
850.275	20651
850.41	20712
850.545	20792
850.68	20769
850.815	20754
850.95	20727
851.085	20826
851.22	20876
851.355	20796
851.49	20701
851.625	20655
851.76	20689
851.895	20625
852.03	20678
852.165	20796
852.299	20758
852.434	20743
852.569	20727
852.703	20830
852.838	20838
852.973	20891
853.107	20883
853.242	20705
853.376	20655
853.511	20431
853.645	20518
853.78	20701
853.914	20476
854.048	20469
854.183	20495
854.317	20648
854.451	20872
854.585	20632
854.72	20438
854.854	20568
854.988	20533
855.122	20480
855.256	20492
855.39	20640
855.524	20598
855.658	20667
855.792	20594
855.926	20469
856.06	20632
856.194	20777
856.327	20530
856.461	20541
856.595	20446
856.729	20575
856.862	20533
856.996	20533
857.13	20644
857.263	20796
857.397	20670
857.53	20533
857.664	20689
857.797	20602
857.931	20670
858.064	20579
858.197	20644
858.331	20552
858.464	20469
858.597	20526
858.731	20556
858.864	20530
858.997	20579
859.13	20552
859.263	20602
859.396	20564
859.529	20507
859.662	20583
859.795	20476
859.928	20602
860.061	20640
860.194	20705
860.327	20674
860.46	20587
860.592	20644
860.725	20731
860.858	20750
860.99	20560
861.123	20488
861.256	20522
861.388	20621
861.521	21260
861.653	20495
861.786	20313
861.918	20419
862.05	20389
862.183	20575
862.315	20442
862.447	20560
862.58	20499
862.712	20339
862.844	20229
862.976	20370
863.108	20374
863.24	20887
863.372	20278
863.504	20256
863.636	20278
863.768	20290
863.9	20450
864.032	20324
864.164	20195
864.296	20195
864.428	20400
864.559	20438
864.691	20305
864.823	20298
864.954	20313
865.086	20221
865.217	20187
865.349	20081
865.48	20183
865.612	20195
865.743	20294
865.875	20187
866.006	20176
866.137	20149
866.269	20153
866.4	20244
866.531	20081
866.662	20088
866.793	20126
866.924	20202
867.055	20229
867.186	20077
867.317	20107
867.448	19993
867.579	20092
867.71	20126
867.841	20073
867.972	20149
868.103	20024
868.233	20122
868.364	20084
868.495	20210
868.625	20332
868.756	20469
868.886	20202
869.017	20362
869.147	20454
869.278	20518
869.408	20465
869.539	20248
869.669	20374
869.799	20343
869.929	20560
870.06	20469
870.19	20598
870.32	20727
870.45	20743
870.58	20811
870.71	21001
870.84	20864
870.97	20705
871.1	20796
871.23	20902
871.36	21017
871.489	20933
871.619	21013
871.749	20998
871.879	20994
872.008	21032
872.138	20933
872.267	21085
872.397	20861
872.526	20842
872.656	20800
872.785	20937
872.915	20823
873.044	21043
873.173	20986
873.303	21047
873.432	21013
873.561	21131
873.69	21001
873.819	21085
873.948	21165
874.077	21036
874.206	20990
874.335	21051
874.464	21135
874.593	21180
874.722	21055
874.851	21405
874.979	21279
875.108	21340
875.237	21188
875.365	21249
875.494	21207
875.623	21127
875.751	21169
875.88	21268
876.008	21287
876.136	21625
876.265	21591
876.393	21816
876.521	21663
876.65	21747
876.778	21774
876.906	21656
877.034	21473
877.162	21660
877.29	21576
877.418	21717
877.546	21713
877.674	21644
877.802	21633
877.93	21576
878.058	21583
878.185	21412
878.313	21641
878.441	21485
878.568	21325
878.696	21568
878.824	21576
878.951	21587
879.079	21736
879.206	21899
879.333	21842
879.461	21595
879.588	21675
879.715	21724
879.842	21846
879.97	21553
880.097	21469
880.224	21389
880.351	21428
880.478	21382
880.605	21279
880.732	21340
880.859	21728
880.986	21382
881.112	21458
881.239	21306
881.366	21138
881.493	21150
881.619	20956
881.746	20986
881.872	21032
881.999	21032
882.125	20979
882.252	21100
882.378	20998
882.505	21116
882.631	20792
882.757	20678
882.883	20811
883.01	20651
883.136	20651
883.262	20571
883.388	20590
883.514	20705
883.64	20743
883.766	20583
883.892	20484
884.018	20552
884.143	20674
884.269	20731
884.395	20366
884.52	20366
884.646	20469
884.772	20351
884.897	20305
885.023	20290
885.148	20431
885.274	20488
885.399	20461
885.524	20434
885.65	20434
885.775	20328
885.9	20324
886.025	20480
886.15	20514
886.275	20218
886.4	20275
886.525	20358
886.65	20244
886.775	20240
886.9	20514
887.025	20507
887.149	20275
887.274	20119
887.399	20043
887.523	20138
887.648	20081
887.773	20039
887.897	20240
888.021	20210
888.146	20111
888.27	20202
888.395	20229
888.519	20180
888.643	20183
888.767	20180
888.891	20043
889.015	20016
889.139	19989
889.263	20050
889.387	19959
889.511	20153
889.635	20126
889.759	19887
889.883	19871
890.006	19997
890.13	20035
890.254	19978
890.377	19879
890.501	19712
890.624	19727
890.748	19757
890.871	19647
890.995	19537
891.118	19514
891.241	19533
891.364	19464
891.488	19594
891.611	19449
891.734	19594
891.857	19609
891.98	19422
892.103	19578
892.226	19483
892.349	19464
892.471	19422
892.594	19369
892.717	19518
892.839	19419
892.962	19491
893.085	19457
893.207	19586
893.33	19373
893.452	19316
893.575	19384
893.697	19411
893.819	19582
893.941	19605
894.064	19563
894.186	19297
894.308	19308
894.43	19419
894.552	19578
894.674	19674
894.796	19419
894.918	19499
895.04	19278
895.161	19472
895.283	19403
895.405	19228
895.526	19491
895.648	19434
895.769	19586
895.891	19563
896.012	19590
896.134	19491
896.255	19396
896.376	19468
896.498	19445
896.619	19491
896.74	19407
896.861	19472
896.982	19761
897.103	19879
897.224	19696
897.345	19582
897.466	19647
897.587	19814
897.708	19772
897.828	19708
897.949	19632
898.07	19487
898.19	19655
898.311	19746
898.431	19613
898.552	19719
898.672	19727
898.792	19723
898.913	19700
899.033	19552
899.153	19559
899.273	19445
899.393	19426
899.513	19525
899.633	19441
899.753	19586
899.873	19373
899.993	19487
900.113	19297
900.232	19422
900.352	19388
900.472	19331
900.591	19209
900.711	19312
900.83	19244
900.95	19358
901.069	19278
901.189	19247
901.308	18932
901.427	18859
901.546	18833
901.665	18894
901.784	18947
901.904	18703
902.023	18616
902.141	18395
902.26	18475
902.379	18464
902.498	18361
902.617	18292
902.735	18357
902.854	18410
902.973	18155
903.091	18117
903.21	17939
903.328	18041
903.446	17954
903.565	17783
903.683	17828
903.801	17684
903.919	17691
904.038	17729
904.156	17581
904.274	17745
904.392	17680
904.51	17551
904.627	17676
904.745	17737
904.863	17668
904.981	17383
905.098	17296
905.216	17337
905.334	17372
905.451	17307
905.569	17341
905.686	17337
905.803	17254
905.921	17155
906.038	17231
906.155	17056
906.272	16965
906.389	17102
906.506	16828
906.623	16820
906.74	16828
906.857	16763
906.974	16847
907.091	16957
907.208	16965
907.324	16824
907.441	16691
907.557	16577
907.674	16603
907.79	16424
907.907	16508
908.023	16634
908.139	16584
908.256	16519
908.372	16462
908.488	16523
908.604	16303
908.72	16276
908.836	16272
908.952	16177
909.068	16341
909.184	16421
909.3	16280
909.415	16367
909.531	16318
909.647	16067
909.762	16059
909.878	15975
909.993	15991
910.108	15945
910.224	15998
910.339	15972
910.454	15838
910.57	15823
910.685	15713
910.8	15979
910.915	15956
911.03	15789
911.145	15694
911.259	15599
911.374	15561
911.489	15458
911.604	15492
911.718	15485
911.833	15329
911.947	15287
912.062	15233
912.176	15386
912.291	15401
912.405	15378
912.519	15530
912.633	15622
912.748	15420
912.862	15378
912.976	15199
913.09	15074
913.204	15104
913.318	15207
913.431	15279
913.545	15226
913.659	15211
913.772	15089
913.886	15116
914	14921
914.113	15020
914.226	15077
914.34	14994
914.453	14845
914.566	14944
914.68	14899
914.793	14804
914.906	14648
915.019	14556
915.132	14610
915.245	14560
915.358	14625
915.47	14621
915.583	14587
915.696	14754
915.809	14716
915.921	14731
916.034	14492
916.146	14488
916.259	14442
916.371	14663
916.483	14625
916.595	14408
916.708	14396
916.82	14480
916.932	14423
917.044	14473
917.156	14374
917.268	14328
917.38	14339
917.491	14206
917.603	14328
917.715	14336
917.826	14195
917.938	14210
918.049	14103
918.161	14214
918.272	14324
918.384	14252
918.495	14256
918.606	14050
918.717	13928
918.828	14046
918.939	14046
919.05	13967
919.161	14046
919.272	13822
919.383	13799
919.494	14145
919.604	14240
919.715	14027
919.826	13913
919.936	14024
920.047	14043
920.157	14012
920.267	14145
920.378	13989
920.488	14027
920.598	14248
920.708	14282
920.818	14149
920.928	14206
921.038	14332
921.148	14275
921.258	13947
921.368	13879
921.477	13742
921.587	13632
921.697	13696
921.806	13742
921.916	13594
922.025	13483
922.134	13419
922.244	13377
922.353	13464
922.462	13270
922.571	13247
922.68	13099
922.789	13031
922.898	13046
923.007	12954
923.116	13042
923.224	13053
923.333	12989
923.442	12837
923.55	12947
923.659	12913
923.767	12875
923.876	12848
923.984	12962
924.092	12844
924.201	12817
924.309	12749
924.417	12787
924.525	12779
924.633	12688
924.741	13518
924.849	12540
924.956	12639
925.064	12597
925.172	12479
925.279	12471
925.387	12582
925.494	12456
925.602	12608
925.709	12597
925.816	12441
925.924	12471
926.031	12540
926.138	12486
926.245	12483
926.352	12353
926.459	12574
926.566	12471
926.673	12403
926.779	12357
926.886	12251
926.993	12140
927.099	12007
927.206	12072
927.312	12057
927.419	12163
927.525	12136
927.631	12049
927.737	12026
927.843	11950
927.95	11836
928.056	11870
928.162	11961
928.267	11935
928.373	12612
928.479	12015
928.585	11726
928.69	11878
928.796	11923
928.901	11775
929.007	11596
929.112	11821
929.218	11703
929.323	11718
929.428	11688
929.533	11748
929.638	11512
929.743	11581
929.848	11688
929.953	11646
930.058	11493
930.163	11326
930.267	11345
930.372	11505
930.477	11280
930.581	11570
930.685	11429
930.79	11280
930.894	11292
930.998	11220
931.103	11376
931.207	10972
931.311	10915
931.415	10854
931.519	10729
931.623	10615
